D:\数据\20211216\ZS1E-TJ-000226.D Thu Dec 16 14:07:54 2021
Start of data points
0.09722,27023
0.10655,28083
0.11590,27922
0.12523,28120
0.13457,28324
0.14392,27870
0.15325,27545
0.16258,27478
0.17193,27678
0.18127,28340
0.19060,29228
0.19995,27203
0.20928,26562
0.21863,27777
0.22797,28104
0.23730,27637
0.24665,27882
0.25598,27192
0.26532,28063
0.27467,26464
0.28400,28193
0.29333,27311
0.30268,27186
0.31202,26692
0.32135,27158
0.33070,27768
0.34003,27399
0.34937,27862
0.35872,28101
0.36805,26877
0.37738,27274
0.38673,27449
0.39607,27159
0.40542,27742
0.41475,27014
0.42408,26321
0.43343,26265
0.44277,23533
0.45210,20568
0.46145,16651
0.47078,13556
0.48012,7565
0.48947,6104
0.49880,5958
0.50813,5721
0.51748,4996
0.52682,5321
0.53615,5467
0.54550,5077
0.55483,5765
0.56418,5253
0.57352,5001
0.58285,4638
0.59220,4732
0.60153,4670
0.61087,5469
0.62022,4995
0.62955,4857
0.63888,4598
0.64823,4933
0.65757,4926
0.66690,4877
0.67625,4728
0.68558,4413
0.69492,4157
0.70427,5035
0.71360,4452
0.72293,4967
0.73228,4995
0.74162,4433
0.75097,5341
0.76030,4554
0.76963,4449
0.77898,4488
0.78832,4893
0.79765,4734
0.80700,4843
0.81633,5586
0.82567,4855
0.83502,4428
0.84435,4249
0.85368,4163
0.86303,4824
0.87237,5014
0.88170,5093
0.89105,4336
0.90038,4869
0.90972,4125
0.91907,4389
0.92840,4753
0.93775,5329
0.94708,4934
0.95642,4460
0.96577,4698
0.97510,4591
0.98443,4575
0.99378,4587
1.00312,4569
1.01245,3724
1.02180,4085
1.03113,4797
1.04047,4757
1.04982,4137
1.05915,4429
1.06848,4784
1.07783,4275
1.08717,5405
1.09650,4188
1.10585,5291
1.11518,4787
1.12453,4762
1.13387,4185
1.14320,4871
1.15255,4037
1.16188,5022
1.17122,4554
1.18057,4080
1.18990,4657
1.19923,4222
1.20858,4502
1.21792,4297
1.22725,4017
1.23660,3933
1.24593,4212
1.25527,4022
1.26462,4477
1.27395,4203
1.28328,4160
1.29263,3920
1.30197,4407
1.31132,4449
1.32065,3888
1.32998,4789
1.33933,4863
1.34867,4525
1.35800,4843
1.36735,4714
1.37668,4309
1.38602,4594
1.39537,4274
1.40470,4050
1.41403,4154
1.42338,4032
1.43272,4180
1.44205,4308
1.45140,3914
1.46073,4251
1.47007,4573
1.47942,4593
1.48875,3967
1.49810,3950
1.50743,4047
1.51677,4059
1.52612,4395
1.53545,4506
1.54478,4408
1.55413,3789
1.56347,4181
1.57280,4159
1.58215,4122
1.59148,4074
1.60082,4237
1.61017,6530
1.61950,11689
1.62883,18027
1.63818,24724
1.64752,29310
1.65687,43928
1.66620,57262
1.67553,62010
1.68488,60854
1.69422,50823
1.70355,40057
1.71290,28152
1.72223,21360
1.73157,21649
1.74092,25017
1.75025,26633
1.75958,29560
1.76893,33284
1.77827,39547
1.78760,41583
1.79695,43645
1.80628,42133
1.81562,43691
1.82497,41831
1.83430,39437
1.84365,38755
1.85298,37673
1.86232,39569
1.87167,44798
1.88100,60135
1.89033,98331
1.89968,142728
1.90902,174475
1.91835,219549
1.92770,379543
1.93703,778607
1.94637,1414297
1.95572,1954231
1.96505,1988458
1.97438,1643845
1.98373,1209709
1.99307,887757
2.00240,698265
2.01175,597121
2.02108,550651
2.03043,481792
2.03977,359989
2.04910,250369
2.05845,179716
2.06778,136701
2.07712,108834
2.08647,90350
2.09580,76341
2.10513,71125
2.11448,69197
2.12382,68943
2.13315,78691
2.14250,103430
2.15183,122015
2.16117,114840
2.17052,98402
2.17985,102538
2.18920,173394
2.19853,249933
2.20787,203097
2.21722,130286
2.22655,104404
2.23588,136486
2.24523,230727
2.25457,919956
2.26390,2836462
2.27325,3331087
2.28258,2490779
2.29192,1547567
2.30127,1036487
2.31060,1999959
2.31993,5697936
2.32928,7134877
2.33862,4541959
2.34795,2053925
2.35730,893926
2.36663,435883
2.37598,269929
2.38532,229898
2.39465,194457
2.40400,161400
2.41333,142173
2.42267,131299
2.43202,119939
2.44135,108736
2.45068,93868
2.46003,92329
2.46937,125867
2.47870,183038
2.48805,183114
2.49738,143880
2.50672,108227
2.51607,91156
2.52540,80806
2.53473,76560
2.54408,76051
2.55342,82316
2.56277,92253
2.57210,354713
2.58143,493429
2.59078,408418
2.60012,306762
2.60945,238774
2.61880,223508
2.62813,241330
2.63747,215426
2.64682,171660
2.65615,145267
2.66548,131552
2.67483,115162
2.68417,94676
2.69350,79697
2.70285,69397
2.71218,71707
2.72152,96296
2.73087,133476
2.74020,156651
2.74955,173785
2.75888,211488
2.76822,247512
2.77757,301669
2.78690,299750
2.79623,264004
2.80558,212696
2.81492,175272
2.82425,163517
2.83360,152129
2.84293,131875
2.85227,128913
2.86162,147832
2.87095,156866
2.88028,181346
2.88963,166054
2.89897,135982
2.90830,106308
2.91765,96915
2.92698,93059
2.93633,83329
2.94567,71646
2.95500,70153
2.96435,61540
2.97368,61151
2.98302,60484
2.99237,60356
3.00170,66502
3.01103,73413
3.02038,73038
3.02972,67619
3.03905,67845
3.04840,95892
3.05773,127927
3.06707,160610
3.07642,159637
3.08575,132434
3.09508,98367
3.10443,72635
3.11377,58950
3.12312,56124
3.13245,57666
3.14178,61436
3.15113,65654
3.16047,73439
3.16980,76523
3.17915,73556
3.18848,68272
3.19782,63517
3.20717,60320
3.21650,58662
3.22583,57018
3.23518,56630
3.24452,52594
3.25385,53352
3.26320,51538
3.27253,51331
3.28188,49366
3.29122,50435
3.30055,54271
3.30990,57720
3.31923,56212
3.32857,51834
3.33792,51541
3.34725,49648
3.35658,53151
3.36593,52872
3.37527,50201
3.38460,45780
3.39395,47201
3.40328,48100
3.41262,57271
3.42197,65639
3.43130,69772
3.44063,65843
3.44998,68152
3.45932,71685
3.46867,72717
3.47800,67264
3.48733,62167
3.49668,61499
3.50602,58985
3.51535,55267
3.52470,52577
3.53403,50205
3.54337,53109
3.55272,88435
3.56205,213611
3.57138,385595
3.58073,421852
3.59007,301810
3.59940,171653
3.60875,116261
3.61808,92123
3.62742,125991
3.63677,117702
3.64610,101099
3.65545,86735
3.66478,79550
3.67412,75892
3.68347,74929
3.69280,70173
3.70213,61368
3.71148,58987
3.72082,66722
3.73015,75245
3.73950,75195
3.74883,65085
3.75817,57426
3.76752,54250
3.77685,50453
3.78618,46350
3.79553,46154
3.80487,50421
3.81420,65378
3.82355,84141
3.83288,86759
3.84223,72644
3.85157,61529
3.86090,56111
3.87025,53783
3.87958,54668
3.88892,58553
3.89827,66939
3.90760,76660
3.91693,74918
3.92628,70032
3.93562,73859
3.94495,83716
3.95430,109781
3.96363,142246
3.97297,132365
3.98232,118234
3.99165,90397
4.00100,97265
4.01033,93492
4.01967,88460
4.02902,90332
4.03835,120375
4.04768,182073
4.05703,204431
4.06637,169010
4.07570,141286
4.08505,148098
4.09438,159477
4.10372,147004
4.11307,115682
4.12240,90322
4.13173,71407
4.14108,62923
4.15042,62282
4.15975,56597
4.16910,58175
4.17843,54799
4.18778,51750
4.19712,49014
4.20645,53825
4.21580,53639
4.22513,53481
4.23447,54017
4.24382,50755
4.25315,51389
4.26248,49301
4.27183,52112
4.28117,56770
4.29050,64428
4.29985,63350
4.30918,63859
4.31852,63431
4.32787,70929
4.33720,73811
4.34653,71192
4.35588,66850
4.36522,56744
4.37457,53075
4.38390,50812
4.39323,54356
4.40258,58136
4.41192,55473
4.42125,51404
4.43060,48829
4.43993,45854
4.44927,46780
4.45862,45838
4.46795,52206
4.47728,64305
4.48663,75293
4.49597,71394
4.50530,61296
4.51465,55246
4.52398,49645
4.53332,48505
4.54267,49466
4.55200,52121
4.56135,52217
4.57068,55106
4.58002,53783
4.58937,50713
4.59870,47248
4.60803,49890
4.61738,48000
4.62672,46290
4.63605,46197
4.64540,48602
4.65473,53682
4.66407,59380
4.67342,59411
4.68275,60096
4.69208,62270
4.70143,72734
4.71077,78629
4.72010,68180
4.72945,55529
4.73878,49545
4.74813,55511
4.75747,58543
4.76680,57441
4.77615,56344
4.78548,54882
4.79482,51551
4.80417,51615
4.81350,54471
4.82283,53512
4.83218,53026
4.84152,53309
4.85085,56615
4.86020,55964
4.86953,60632
4.87887,75645
4.88822,82491
4.89755,72218
4.90690,61521
4.91623,52663
4.92557,47419
4.93492,50838
4.94425,55202
4.95358,55835
4.96293,53293
4.97227,49708
4.98160,45449
4.99095,44082
5.00028,45838
5.00962,50099
5.01897,54987
5.02830,62922
5.03763,64963
5.04698,64697
5.05632,60509
5.06565,54454
5.07500,51118
5.08433,54985
5.09368,55637
5.10302,53600
5.11235,49993
5.12170,49256
5.13103,47576
5.14037,46983
5.14972,51187
5.15905,58511
5.16838,61492
5.17773,56260
5.18707,52338
5.19640,56318
5.20575,64167
5.21508,64870
5.22442,53482
5.23377,50800
5.24310,53785
5.25243,56271
5.26178,57880
5.27112,83608
5.28047,217091
5.28980,488585
5.29913,689730
5.30848,556290
5.31782,290656
5.32715,129332
5.33650,76750
5.34583,62411
5.35517,55134
5.36452,56774
5.37385,56227
5.38318,59198
5.39253,63323
5.40187,61775
5.41120,60836
5.42055,53905
5.42988,50828
5.43922,47630
5.44857,46879
5.45790,45919
5.46725,44865
5.47658,45572
5.48592,45356
5.49527,47525
5.50460,46085
5.51393,49763
5.52328,54881
5.53262,67390
5.54195,69154
5.55130,67154
5.56063,62341
5.56997,60399
5.57932,55867
5.58865,53095
5.59798,48477
5.60733,46872
5.61667,46768
5.62602,45304
5.63535,44484
5.64468,43935
5.65403,45616
5.66337,48557
5.67270,52455
5.68205,61927
5.69138,77942
5.70072,71558
5.71007,68004
5.71940,62208
5.72873,60717
5.73808,58248
5.74742,59267
5.75675,69298
5.76610,72695
5.77543,75452
5.78477,92241
5.79412,86644
5.80345,74597
5.81280,61582
5.82213,56178
5.83147,58848
5.84082,67367
5.85015,68454
5.85948,60992
5.86883,51722
5.87817,42235
5.88750,36772
5.89685,34041
5.90618,33610
5.91552,43930
5.92487,66075
5.93420,85888
5.94353,86870
5.95288,93848
5.96222,111025
5.97155,103323
5.98090,77317
5.99023,55881
5.99958,44042
6.00892,38020
6.01825,33589
6.02760,29357
6.03693,25553
6.04627,23730
6.05562,22147
6.06495,24309
6.07428,25879
6.08363,25206
6.09297,22518
6.10230,19679
6.11165,18147
6.12098,23013
6.13032,34361
6.13967,51709
6.14900,57516
6.15833,45269
6.16768,30464
6.17702,22198
6.18637,21248
6.19570,22783
6.20503,22874
6.21438,20664
6.22372,21793
6.23305,22547
6.24240,24548
6.25173,25958
6.26107,22459
6.27042,22169
6.27975,33049
6.28908,48695
6.29843,48388
6.30777,35781
6.31710,25937
6.32645,20582
6.33578,18572
6.34512,18485
6.35447,19109
6.36380,19804
6.37315,21055
6.38248,26614
6.39182,47170
6.40117,175496
6.41050,673909
6.41983,1470268
6.42918,1606395
6.43852,985814
6.44785,382025
6.45720,123433
6.46653,52641
6.47587,35250
6.48522,31615
6.49455,27972
6.50388,24052
6.51323,24386
6.52257,25240
6.53192,23676
6.54125,23379
6.55058,21861
6.55993,18948
6.56927,19937
6.57860,20103
6.58795,20791
6.59728,21016
6.60662,24465
6.61597,22152
6.62530,24182
6.63463,24826
6.64398,27165
6.65332,27969
6.66265,29246
6.67200,29418
6.68133,28409
6.69067,25215
6.70002,25077
6.70935,38211
6.71870,42920
6.72803,41212
6.73737,35050
6.74672,30382
6.75605,26459
6.76538,25314
6.77473,23739
6.78407,24461
6.79340,27516
6.80275,34241
6.81208,36365
6.82142,33122
6.83077,27906
6.84010,25625
6.84943,26225
6.85878,26536
6.86812,27250
6.87745,25459
6.88680,23168
6.89613,23161
6.90548,21399
6.91482,26000
6.92415,27186
6.93350,27033
6.94283,24601
6.95217,24744
6.96152,22547
6.97085,25384
6.98018,25137
6.98953,25514
6.99887,25105
7.00820,24083
7.01755,20723
7.02688,21475
7.03622,19994
7.04557,18461
7.05490,17928
7.06423,16690
7.07358,15881
7.08292,16893
7.09227,17909
7.10160,21652
7.11093,25249
7.12028,29061
7.12962,27070
7.13895,24823
7.14830,22016
7.15763,19700
7.16697,18104
7.17632,18481
7.18565,19316
7.19498,20033
7.20433,20578
7.21367,21667
7.22300,22538
7.23235,37411
7.24168,67349
7.25103,100071
7.26037,96176
7.26970,58914
7.27905,36919
7.28838,31889
7.29772,28181
7.30707,24798
7.31640,22239
7.32573,18928
7.33508,19553
7.34442,20375
7.35375,18741
7.36310,19192
7.37243,18469
7.38177,19317
7.39112,28387
7.40045,67451
7.40978,145761
7.41913,216759
7.42847,204036
7.43782,134129
7.44715,70313
7.45648,37649
7.46583,25191
7.47517,21004
7.48450,22551
7.49385,27349
7.50318,34291
7.51252,34557
7.52187,29417
7.53120,21591
7.54053,20253
7.54988,20357
7.55922,20337
7.56855,22535
7.57790,24614
7.58723,23387
7.59657,26657
7.60592,26612
7.61525,27377
7.62460,28883
7.63393,31523
7.64327,29730
7.65262,27068
7.66195,24429
7.67128,21038
7.68063,22040
7.68997,24370
7.69930,24142
7.70865,25123
7.71798,26053
7.72732,26203
7.73667,25161
7.74600,25689
7.75533,27934
7.76468,32311
7.77402,32553
7.78335,31533
7.79270,31382
7.80203,32412
7.81138,27848
7.82072,25980
7.83005,23975
7.83940,21809
7.84873,24931
7.85807,33884
7.86742,61114
7.87675,93347
7.88608,96146
7.89543,75785
7.90477,54908
7.91410,61460
7.92345,92863
7.93278,111520
7.94212,84567
7.95147,58664
7.96080,69299
7.97013,84552
7.97948,71559
7.98882,56190
7.99817,45017
8.00750,38096
8.01683,34394
8.02618,31455
8.03552,34624
8.04485,40948
8.05420,47918
8.06353,42696
8.07287,31296
8.08222,26671
8.09155,40003
8.10088,72161
8.11023,83448
8.11957,71256
8.12890,47670
8.13825,34105
8.14758,30274
8.15692,27305
8.16627,27279
8.17560,26269
8.18495,25522
8.19428,24746
8.20362,25339
8.21297,23872
8.22230,24874
8.23163,25286
8.24098,26720
8.25032,29819
8.25965,32090
8.26900,30719
8.27833,28836
8.28767,23750
8.29702,23463
8.30635,22290
8.31568,24230
8.32503,25596
8.33437,23496
8.34372,25890
8.35305,24078
8.36238,23461
8.37173,22304
8.38107,21023
8.39040,23694
8.39975,32014
8.40908,36542
8.41842,37276
8.42777,36321
8.43710,33845
8.44643,32545
8.45578,29301
8.46512,28476
8.47445,28215
8.48380,27569
8.49313,28367
8.50247,27279
8.51182,25265
8.52115,22834
8.53050,22260
8.53983,22748
8.54917,24061
8.55852,25448
8.56785,25462
8.57718,27235
8.58653,26521
8.59587,30994
8.60520,36415
8.61455,35556
8.62388,33494
8.63322,30890
8.64257,29884
8.65190,27140
8.66123,25156
8.67058,28283
8.67992,26001
8.68925,25248
8.69860,25423
8.70793,26018
8.71728,25580
8.72662,26188
8.73595,23901
8.74530,24141
8.75463,26245
8.76397,30466
8.77332,31030
8.78265,31155
8.79198,31644
8.80133,45284
8.81067,79896
8.82000,108271
8.82935,99806
8.83868,59739
8.84802,35932
8.85737,27951
8.86670,28207
8.87603,27318
8.88538,29469
8.89472,31675
8.90407,28100
8.91340,29251
8.92273,29359
8.93208,29564
8.94142,29800
8.95075,27668
8.96010,25050
8.96943,23706
8.97877,24583
8.98812,27741
8.99745,28014
9.00678,28910
9.01613,29412
9.02547,30276
9.03480,29450
9.04415,30500
9.05348,26356
9.06283,27815
9.07217,28729
9.08150,30028
9.09085,34090
9.10018,35808
9.10952,34269
9.11887,31722
9.12820,32311
9.13753,32646
9.14688,36219
9.15622,34217
9.16555,30040
9.17490,26627
9.18423,26072
9.19357,27332
9.20292,27449
9.21225,33321
9.22158,60787
9.23093,98270
9.24027,117879
9.24962,94907
9.25895,62747
9.26828,45591
9.27763,40178
9.28697,37464
9.29630,36059
9.30565,32947
9.31498,33368
9.32432,33876
9.33367,39036
9.34300,42775
9.35233,41245
9.36168,55966
9.37102,114087
9.38035,210237
9.38970,235834
9.39903,184939
9.40837,116907
9.41772,73793
9.42705,60439
9.43640,55968
9.44573,49881
9.45507,38247
9.46442,32250
9.47375,28946
9.48308,28940
9.49243,28686
9.50177,32322
9.51110,34225
9.52045,31882
9.52978,31874
9.53912,38627
9.54847,47461
9.55780,53058
9.56713,64419
9.57648,71758
9.58582,59302
9.59515,41833
9.60450,38088
9.61383,36552
9.62318,34869
9.63252,36152
9.64185,35742
9.65120,35095
9.66053,36549
9.66987,35244
9.67922,34374
9.68855,32228
9.69788,32186
9.70723,28978
9.71657,31127
9.72590,64768
9.73525,257236
9.74458,773800
9.75392,1252287
9.76327,1171665
9.77260,677627
9.78193,307530
9.79128,165884
9.80062,118521
9.80997,92432
9.81930,79419
9.82863,76680
9.83798,80747
9.84732,82291
9.85665,77697
9.86600,69501
9.87533,60013
9.88467,61590
9.89402,74163
9.90335,76343
9.91268,72830
9.92203,61412
9.93137,58350
9.94070,53915
9.95005,51396
9.95938,44011
9.96873,42688
9.97807,51323
9.98740,89080
9.99675,137666
10.00608,141473
10.01542,103052
10.02477,66884
10.03410,49237
10.04343,38383
10.05278,38684
10.06212,42037
10.07145,57578
10.08080,72666
10.09013,76549
10.09947,61786
10.10882,53338
10.11815,90425
10.12748,232630
10.13683,420014
10.14617,428000
10.15552,440150
10.16485,895010
10.17418,1542658
10.18353,1296653
10.19287,548335
10.20220,144477
10.21155,52199
10.22088,42595
10.23022,41561
10.23957,51387
10.24890,75240
10.25823,85019
10.26758,69537
10.27692,51731
10.28625,38812
10.29560,36930
10.30493,34244
10.31427,35913
10.32362,35786
10.33295,31540
10.34230,31655
10.35163,31425
10.36097,34361
10.37032,34258
10.37965,34603
10.38898,32502
10.39833,31284
10.40767,30363
10.41700,31036
10.42635,37234
10.43568,42509
10.44502,44189
10.45437,41980
10.46370,47270
10.47303,56653
10.48238,61588
10.49172,51389
10.50105,42640
10.51040,33366
10.51973,30750
10.52908,29902
10.53842,31100
10.54775,30317
10.55710,32469
10.56643,32908
10.57577,34192
10.58512,31894
10.59445,30953
10.60378,30063
10.61313,28542
10.62247,28120
10.63180,34271
10.64115,43583
10.65048,42835
10.65982,37672
10.66917,35195
10.67850,38353
10.68785,44192
10.69718,45238
10.70652,41032
10.71587,43382
10.72520,49684
10.73453,49482
10.74388,45954
10.75322,65576
10.76255,131284
10.77190,204337
10.78123,192104
10.79057,135696
10.79992,141743
10.80925,218606
10.81858,241742
10.82793,167803
10.83727,89805
10.84660,50621
10.85595,42024
10.86528,41218
10.87463,45684
10.88397,60530
10.89330,70092
10.90265,70524
10.91198,53136
10.92132,42618
10.93067,40116
10.94000,39949
10.94933,39721
10.95868,37782
10.96802,38831
10.97735,40774
10.98670,37179
10.99603,32193
11.00537,31187
11.01472,30649
11.02405,30627
11.03338,31507
11.04273,30483
11.05207,31223
11.06142,31830
11.07075,34998
11.08008,36798
11.08943,38886
11.09877,34796
11.10810,43058
11.11745,64069
11.12678,68726
11.13612,58904
11.14547,46919
11.15480,43410
11.16413,38151
11.17348,36897
11.18282,35234
11.19215,35068
11.20150,32588
11.21083,32020
11.22017,31815
11.22952,34731
11.23885,33557
11.24820,36606
11.25753,35080
11.26687,40573
11.27622,44938
11.28555,41869
11.29488,35282
11.30423,32226
11.31357,31319
11.32290,30843
11.33225,35444
11.34158,45370
11.35092,61498
11.36027,74222
11.36960,77713
11.37893,66157
11.38828,51717
11.39762,47684
11.40695,53727
11.41630,58367
11.42563,50335
11.43498,41773
11.44432,36153
11.45365,32723
11.46300,37964
11.47233,46812
11.48167,56796
11.49102,48128
11.50035,36107
11.50968,31999
11.51903,30994
11.52837,30051
11.53770,31293
11.54705,30640
11.55638,34506
11.56572,51101
11.57507,93036
11.58440,146534
11.59373,150868
11.60308,121706
11.61242,88250
11.62177,67709
11.63110,54723
11.64043,45252
11.64978,43100
11.65912,47364
11.66845,50661
11.67780,48771
11.68713,46253
11.69647,39411
11.70582,38732
11.71515,38415
11.72448,40317
11.73383,36685
11.74317,37232
11.75250,36776
11.76185,36134
11.77118,37625
11.78053,41260
11.78987,47928
11.79920,51810
11.80855,46895
11.81788,41414
11.82722,43480
11.83657,44693
11.84590,41400
11.85523,42270
11.86458,40481
11.87392,41156
11.88325,41163
11.89260,41060
11.90193,39487
11.91127,36016
11.92062,35610
11.92995,35561
11.93928,41336
11.94863,54191
11.95797,68258
11.96732,62021
11.97665,46157
11.98598,37763
11.99533,35499
12.00467,40425
12.01400,54940
12.02335,75486
12.03268,71319
12.04202,58680
12.05137,48273
12.06070,42883
12.07003,37452
12.07938,35250
12.08872,31208
12.09805,34581
12.10740,36273
12.11673,35129
12.12607,32648
12.13542,31557
12.14475,34152
12.15410,35732
12.16343,45705
12.17277,74401
12.18212,126517
12.19145,146188
12.20078,104079
12.21013,55891
12.21947,41277
12.22880,41579
12.23815,50981
12.24748,51334
12.25682,45173
12.26617,46904
12.27550,70199
12.28483,115850
12.29418,136867
12.30352,101658
12.31285,63587
12.32220,46452
12.33153,43538
12.34088,47596
12.35022,49815
12.35955,45463
12.36890,40374
12.37823,41494
12.38757,47247
12.39692,56904
12.40625,57459
12.41558,53547
12.42493,46633
12.43427,43276
12.44360,40042
12.45295,38990
12.46228,39607
12.47162,43329
12.48097,49797
12.49030,46748
12.49965,49252
12.50898,50204
12.51832,50543
12.52767,52702
12.53700,51260
12.54633,49091
12.55568,48115
12.56502,51765
12.57435,57675
12.58370,56389
12.59303,47856
12.60237,39614
12.61172,37924
12.62105,40109
12.63038,48736
12.63973,65291
12.64907,79816
12.65840,86856
12.66775,68971
12.67708,57377
12.68643,44256
12.69577,38301
12.70510,35107
12.71445,38539
12.72378,42954
12.73312,42125
12.74247,42948
12.75180,44814
12.76113,46353
12.77048,46272
12.77982,37991
12.78915,34479
12.79850,34468
12.80783,35756
12.81717,39970
12.82652,41345
12.83585,41439
12.84518,42349
12.85453,38462
12.86387,35446
12.87322,35037
12.88255,32841
12.89188,36718
12.90123,41403
12.91057,40711
12.91990,38976
12.92925,34834
12.93858,34686
12.94792,38681
12.95727,37876
12.96660,41518
12.97593,38193
12.98528,36708
12.99462,32911
13.00395,33839
13.01330,35005
13.02263,38588
13.03197,45850
13.04132,53981
13.05065,53962
13.06000,44903
13.06933,43001
13.07867,52319
13.08802,51442
13.09735,44194
13.10668,41792
13.11603,38753
13.12537,39655
13.13470,44144
13.14405,51455
13.15338,55167
13.16272,58235
13.17207,63650
13.18140,60916
13.19073,59479
13.20008,84924
13.20942,181128
13.21875,308559
13.22810,315556
13.23743,202574
13.24678,125434
13.25612,114498
13.26545,104882
13.27480,82281
13.28413,77392
13.29347,77804
13.30282,68003
13.31215,61264
13.32148,67719
13.33083,71547
13.34017,65765
13.34950,61387
13.35885,56860
13.36818,51286
13.37752,46643
13.38687,44764
13.39620,47771
13.40555,60574
13.41488,61198
13.42422,51558
13.43357,47647
13.44290,56111
13.45223,62226
13.46158,57131
13.47092,51131
13.48025,51081
13.48960,53847
13.49893,48483
13.50827,46721
13.51762,61364
13.52695,101922
13.53628,146448
13.54563,135641
13.55497,84752
13.56430,51438
13.57365,42932
13.58298,38582
13.59233,36277
13.60167,35917
13.61100,34036
13.62035,34194
13.62968,34985
13.63902,37886
13.64837,44586
13.65770,48282
13.66703,48426
13.67638,42929
13.68572,38773
13.69505,36155
13.70440,36786
13.71373,34654
13.72307,34996
13.73242,32547
13.74175,32138
13.75108,32308
13.76043,36530
13.76977,35085
13.77912,35618
13.78845,34178
13.79778,37085
13.80713,45068
13.81647,48613
13.82580,45928
13.83515,40546
13.84448,36568
13.85382,35336
13.86317,37305
13.87250,37781
13.88183,43312
13.89118,51564
13.90052,73139
13.90985,113234
13.91920,173512
13.92853,213749
13.93787,160877
13.94722,88773
13.95655,58171
13.96590,55192
13.97523,53578
13.98457,47392
13.99392,44231
14.00325,43695
14.01258,43951
14.02193,40795
14.03127,37883
14.04060,47016
14.04995,154453
14.05928,842684
14.06862,2996099
14.07797,5546729
14.08730,5365829
14.09663,2375658
14.10598,529131
14.11532,106474
14.12467,56688
14.13400,50452
14.14333,49460
14.15268,49999
14.16202,50378
14.17135,52435
14.18070,54925
14.19003,62193
14.19937,83140
14.20872,95439
14.21805,71508
14.22738,49375
14.23673,38154
14.24607,37130
14.25540,36196
14.26475,36139
14.27408,41452
14.28342,39983
14.29277,39441
14.30210,36846
14.31145,36630
14.32078,45821
14.33012,60627
14.33947,68309
14.34880,63940
14.35813,52482
14.36748,44019
14.37682,39073
14.38615,39336
14.39550,39022
14.40483,37933
14.41417,37803
14.42352,36465
14.43285,34544
14.44218,36937
14.45153,44600
14.46087,57965
14.47020,75638
14.47955,76918
14.48888,64463
14.49823,49362
14.50757,42246
14.51690,36977
14.52625,33581
14.53558,33131
14.54492,35403
14.55427,35976
14.56360,38924
14.57293,39960
14.58228,40564
14.59162,39159
14.60095,36917
14.61030,35269
14.61963,35566
14.62897,38929
14.63832,43529
14.64765,52939
14.65698,69697
14.66633,81965
14.67567,74796
14.68502,58182
14.69435,49606
14.70368,43647
14.71303,39915
14.72237,36862
14.73170,37278
14.74105,37825
14.75038,40179
14.75972,41122
14.76907,42456
14.77840,45330
14.78773,49957
14.79708,47894
14.80642,43631
14.81575,41966
14.82510,42402
14.83443,42065
14.84377,41421
14.85312,38950
14.86245,40619
14.87180,50337
14.88113,59162
14.89047,55238
14.89982,47306
14.90915,41344
14.91848,39216
14.92783,40659
14.93717,39218
14.94650,42018
14.95585,42104
14.96518,43858
14.97452,46180
14.98387,48275
14.99320,44635
15.00253,43038
15.01188,48098
15.02122,57185
15.03055,49482
15.03990,45412
15.04923,46639
15.05858,52028
15.06792,52464
15.07725,49971
15.08660,48361
15.09593,42694
15.10527,38703
15.11462,38617
15.12395,44395
15.13328,52541
15.14263,58851
15.15197,55405
15.16130,46968
15.17065,40744
15.17998,40048
15.18932,38960
15.19867,47631
15.20800,65201
15.21735,92160
15.22668,104461
15.23602,94767
15.24537,74472
15.25470,59613
15.26403,46412
15.27338,44544
15.28272,43236
15.29205,46241
15.30140,41318
15.31073,41791
15.32007,41486
15.32942,44724
15.33875,49803
15.34808,52894
15.35743,49105
15.36677,51470
15.37610,59366
15.38545,63248
15.39478,53996
15.40413,42866
15.41347,39961
15.42280,41613
15.43215,45024
15.44148,45369
15.45082,43882
15.46017,39814
15.46950,37724
15.47883,40436
15.48818,39284
15.49752,42634
15.50685,49137
15.51620,60375
15.52553,79872
15.53487,80957
15.54422,65617
15.55355,50440
15.56288,42416
15.57223,39784
15.58157,38613
15.59092,37459
15.60025,39237
15.60958,38413
15.61893,38776
15.62827,43211
15.63760,51932
15.64695,57033
15.65628,58763
15.66562,57300
15.67497,54739
15.68430,51323
15.69363,49905
15.70298,60474
15.71232,76786
15.72165,78536
15.73100,59973
15.74033,47738
15.74967,51671
15.75902,58222
15.76835,62409
15.77770,60401
15.78703,54722
15.79637,47874
15.80572,56292
15.81505,92580
15.82438,199766
15.83373,354855
15.84307,468574
15.85240,445609
15.86175,304483
15.87108,155037
15.88042,89744
15.88977,79781
15.89910,85356
15.90843,92215
15.91778,83644
15.92712,67505
15.93647,55798
15.94580,49075
15.95513,47517
15.96448,46078
15.97382,49343
15.98315,60536
15.99250,79547
16.00183,93141
16.01117,82501
16.02052,64376
16.02985,49560
16.03918,47899
16.04853,48843
16.05787,52372
16.06720,52323
16.07655,50274
16.08588,48442
16.09522,47027
16.10457,45432
16.11390,49250
16.12325,56612
16.13258,57989
16.14192,55535
16.15127,47932
16.16060,48729
16.16993,47935
16.17928,44329
16.18862,42271
16.19795,49806
16.20730,58544
16.21663,62783
16.22597,64479
16.23532,68483
16.24465,65546
16.25398,55624
16.26333,50994
16.27267,53076
16.28200,70363
16.29135,123258
16.30068,219811
16.31003,270340
16.31937,203036
16.32870,108894
16.33805,63639
16.34738,49067
16.35672,41340
16.36607,39489
16.37540,36680
16.38473,35660
16.39408,39560
16.40342,41915
16.41275,44156
16.42210,46580
16.43143,46172
16.44077,46838
16.45012,48850
16.45945,57699
16.46878,60276
16.47813,56282
16.48747,52506
16.49682,48697
16.50615,48426
16.51548,49638
16.52483,52667
16.53417,55323
16.54350,51304
16.55285,47192
16.56218,42638
16.57152,42487
16.58087,43045
16.59020,45950
16.59953,47063
16.60888,44769
16.61822,45492
16.62755,50270
16.63690,59289
16.64623,64172
16.65557,58982
16.66492,52687
16.67425,47938
16.68360,45837
16.69293,52559
16.70227,61763
16.71162,63723
16.72095,57549
16.73028,45906
16.73963,50998
16.74897,82191
16.75830,125607
16.76765,118933
16.77698,78653
16.78632,51360
16.79567,44163
16.80500,46923
16.81433,51439
16.82368,56869
16.83302,63903
16.84237,66677
16.85170,64371
16.86103,55760
16.87038,50723
16.87972,47690
16.88905,45510
16.89840,44708
16.90773,53557
16.91707,67184
16.92642,74615
16.93575,69756
16.94508,63314
16.95443,65565
16.96377,73959
16.97310,69822
16.98245,62499
16.99178,53360
17.00112,47644
17.01047,45984
17.01980,51889
17.02915,69092
17.03848,107216
17.04782,115677
17.05717,88023
17.06650,60201
17.07583,55076
17.08518,49657
17.09452,50843
17.10385,48011
17.11320,47299
17.12253,44188
17.13187,46566
17.14122,51182
17.15055,54178
17.15988,48050
17.16923,44239
17.17857,41949
17.18790,43931
17.19725,43976
17.20658,44025
17.21593,42167
17.22527,41870
17.23460,40722
17.24395,41909
17.25328,42694
17.26262,45343
17.27197,49733
17.28130,54633
17.29063,60017
17.29998,57665
17.30932,51872
17.31865,50293
17.32800,53189
17.33733,53710
17.34667,49816
17.35602,45183
17.36535,43986
17.37468,51774
17.38403,87304
17.39337,138023
17.40272,145405
17.41205,103592
17.42138,78190
17.43073,62599
17.44007,56935
17.44940,52277
17.45875,53746
17.46808,53620
17.47742,49983
17.48677,61836
17.49610,173508
17.50543,702458
17.51478,1867394
17.52412,2543011
17.53345,1713139
17.54280,625413
17.55213,156644
17.56147,67234
17.57082,58273
17.58015,61907
17.58950,68479
17.59883,64544
17.60817,53433
17.61752,49465
17.62685,51892
17.63618,51393
17.64553,51511
17.65487,53158
17.66420,56169
17.67355,62826
17.68288,71823
17.69222,78019
17.70157,78986
17.71090,77767
17.72023,74289
17.72958,68333
17.73892,60793
17.74827,58085
17.75760,59184
17.76693,66155
17.77628,68965
17.78562,64833
17.79495,62092
17.80430,59670
17.81363,55992
17.82297,51800
17.83232,49373
17.84165,47569
17.85098,53668
17.86033,64391
17.86967,73037
17.87900,77580
17.88835,69293
17.89768,59680
17.90702,54195
17.91637,46629
17.92570,47789
17.93505,47384
17.94438,50380
17.95372,47109
17.96307,49075
17.97240,50453
17.98173,48583
17.99108,45735
18.00042,47789
18.00975,46990
18.01910,47487
18.02843,47279
18.03777,48526
18.04712,52888
18.05645,62423
18.06578,71522
18.07513,62085
18.08447,52403
18.09380,45054
18.10315,45003
18.11248,49740
18.12183,55800
18.13117,56062
18.14050,51853
18.14985,53853
18.15918,53935
18.16852,53190
18.17787,56713
18.18720,53902
18.19653,50753
18.20588,48296
18.21522,44890
18.22455,45206
18.23390,45236
18.24323,47230
18.25257,44712
18.26192,44029
18.27125,45767
18.28058,51280
18.28993,60618
18.29927,63859
18.30862,69039
18.31795,69522
18.32728,67249
18.33663,68456
18.34597,70841
18.35530,77245
18.36465,79339
18.37398,75868
18.38332,69630
18.39267,66056
18.40200,61979
18.41133,56010
18.42068,53961
18.43002,52283
18.43935,56081
18.44870,63165
18.45803,68057
18.46737,61660
18.47672,55026
18.48605,50925
18.49540,63755
18.50473,81562
18.51407,100759
18.52342,97400
18.53275,88836
18.54208,69252
18.55143,61694
18.56077,63618
18.57010,59503
18.57945,55965
18.58878,53877
18.59812,52505
18.60747,57022
18.61680,60526
18.62613,62284
18.63548,62654
18.64482,64133
18.65417,61645
18.66350,57535
18.67283,51424
18.68218,54288
18.69152,53952
18.70085,56764
18.71020,58894
18.71953,63792
18.72887,67423
18.73822,63672
18.74755,61177
18.75688,55561
18.76623,54668
18.77557,49031
18.78490,46555
18.79425,45650
18.80358,48118
18.81292,48005
18.82227,48427
18.83160,51516
18.84095,49161
18.85028,45479
18.85962,48257
18.86897,46828
18.87830,42627
18.88763,44686
18.89698,46319
18.90632,54103
18.91565,64815
18.92500,67772
18.93433,65003
18.94367,62537
18.95302,64151
18.96235,69207
18.97168,75827
18.98103,77709
18.99037,70241
18.99970,57571
19.00905,55100
19.01838,52101
19.02773,51764
19.03707,52828
19.04640,67544
19.05575,91375
19.06508,110054
19.07442,119551
19.08377,142635
19.09310,171964
19.10243,156159
19.11178,109365
19.12112,72249
19.13045,54461
19.13980,47522
19.14913,46017
19.15847,42120
19.16782,44346
19.17715,43041
19.18648,45302
19.19583,51214
19.20517,53839
19.21452,56872
19.22385,61482
19.23318,61093
19.24253,58966
19.25187,53207
19.26120,49048
19.27055,49150
19.27988,52006
19.28922,59445
19.29857,62591
19.30790,71728
19.31723,88049
19.32658,94335
19.33592,78368
19.34525,65533
19.35460,54309
19.36393,47812
19.37328,45814
19.38262,45378
19.39195,44973
19.40130,48415
19.41063,52971
19.41997,53258
19.42932,50156
19.43865,46241
19.44798,45218
19.45733,43417
19.46667,43788
19.47600,49781
19.48535,50029
19.49468,55601
19.50402,53745
19.51337,50805
19.52270,47017
19.53203,46748
19.54138,50545
19.55072,48107
19.56007,46317
19.56940,46564
19.57873,52985
19.58808,54330
19.59742,55099
19.60675,55346
19.61610,48963
19.62543,50311
19.63477,53642
19.64412,58235
19.65345,59708
19.66278,52320
19.67213,49131
19.68147,50155
19.69080,57750
19.70015,63603
19.70948,74422
19.71882,78053
19.72817,81432
19.73750,89919
19.74685,87090
19.75618,73459
19.76552,61942
19.77487,58584
19.78420,62157
19.79353,60146
19.80288,58216
19.81222,52737
19.82155,50518
19.83090,50926
19.84023,50572
19.84957,48133
19.85892,48517
19.86825,55744
19.87758,70323
19.88693,89729
19.89627,80719
19.90560,64744
19.91495,52343
19.92428,50562
19.93363,50698
19.94297,52790
19.95230,47729
19.96165,49649
19.97098,54010
19.98032,51004
19.98967,47905
19.99900,44781
20.00833,42087
20.01768,44149
20.02702,47401
20.03635,49738
20.04570,53136
20.05503,53880
20.06437,53234
20.07372,52548
20.08305,53256
20.09238,53750
20.10173,51060
20.11107,46153
20.12042,42838
20.12975,42755
20.13908,44506
20.14843,51746
20.15777,61095
20.16710,65327
20.17645,61479
20.18578,53843
20.19512,49114
20.20447,44595
20.21380,44895
20.22313,45768
20.23248,49832
20.24182,55621
20.25115,67357
20.26050,74483
20.26983,63423
20.27917,51171
20.28852,47096
20.29785,45840
20.30720,43115
20.31653,41126
20.32587,40099
20.33522,40599
20.34455,41511
20.35388,41174
20.36323,42034
20.37257,42771
20.38190,45505
20.39125,43195
20.40058,41699
20.40992,39757
20.41927,39301
20.42860,40882
20.43793,44322
20.44728,44313
20.45662,43156
20.46597,44670
20.47530,51414
20.48463,52171
20.49398,49641
20.50332,44802
20.51265,42979
20.52200,42635
20.53133,42956
20.54067,44539
20.55002,46770
20.55935,55256
20.56868,93031
20.57803,187583
20.58737,283401
20.59670,236138
20.60605,127645
20.61538,71455
20.62472,57768
20.63407,52585
20.64340,50444
20.65275,52359
20.66208,50027
20.67142,52147
20.68077,50200
20.69010,51100
20.69943,48424
20.70878,49456
20.71812,50660
20.72745,49769
20.73680,49587
20.74613,48219
20.75547,48803
20.76482,46897
20.77415,44873
20.78348,45875
20.79283,48745
20.80217,54943
20.81150,54795
20.82085,54069
20.83018,48680
20.83953,45960
20.84887,45981
20.85820,44848
20.86755,43079
20.87688,43091
20.88622,44369
20.89557,46193
20.90490,47322
20.91423,48774
20.92358,48390
20.93292,45628
20.94225,45306
20.95160,42363
20.96093,44324
20.97027,39309
20.97962,41794
20.98895,41935
20.99828,42436
21.00763,44934
21.01697,44578
21.02632,45148
21.03565,42262
21.04498,42792
21.05433,44757
21.06367,45314
21.07300,45853
21.08235,42935
21.09168,44960
21.10102,44932
21.11037,46707
21.11970,48399
21.12903,47647
21.13838,46701
21.14772,45206
21.15705,44586
21.16640,45468
21.17573,48866
21.18508,56540
21.19442,62443
21.20375,59377
21.21310,52617
21.22243,49051
21.23177,49107
21.24112,48373
21.25045,45645
21.25978,44579
21.26913,47296
21.27847,54992
21.28780,60329
21.29715,61546
21.30648,58079
21.31582,53366
21.32517,50291
21.33450,51862
21.34383,47850
21.35318,48645
21.36252,48416
21.37187,46141
21.38120,46525
21.39053,44188
21.39988,47646
21.40922,48787
21.41855,54762
21.42790,53250
21.43723,50252
21.44657,47975
21.45592,47079
21.46525,45242
21.47458,45869
21.48393,47361
21.49327,52642
21.50260,52992
21.51195,50192
21.52128,50959
21.53062,45573
21.53997,45888
21.54930,46995
21.55865,48495
21.56798,56607
21.57732,68858
21.58667,72158
21.59600,64284
21.60533,53960
21.61468,49318
21.62402,48917
21.63335,49188
21.64270,50024
21.65203,50075
21.66137,47304
21.67072,47744
21.68005,53105
21.68938,57220
21.69873,55588
21.70807,52622
21.71740,56013
21.72675,58117
21.73608,58313
21.74543,56261
21.75477,52562
21.76410,48274
21.77345,44279
21.78278,44479
21.79212,45227
21.80147,49827
21.81080,51969
21.82013,57917
21.82948,59388
21.83882,55068
21.84815,52513
21.85750,48498
21.86683,45047
21.87617,50550
21.88552,54278
21.89485,57804
21.90418,57832
21.91353,57275
21.92287,54594
21.93222,52534
21.94155,51559
21.95088,52129
21.96023,50692
21.96957,54662
21.97890,58611
21.98825,69726
21.99758,84858
22.00692,81697
22.01627,66956
22.02560,56542
22.03493,54219
22.04428,58492
22.05362,59824
22.06295,60792
22.07230,60954
22.08163,61363
22.09098,64155
22.10032,60658
22.10965,57007
22.11900,55317
22.12833,51865
22.13767,50904
22.14702,48725
22.15635,54994
22.16568,67284
22.17503,74877
22.18437,75928
22.19370,66551
22.20305,55540
22.21238,53906
22.22172,57127
22.23107,56141
22.24040,56769
22.24973,58282
22.25908,55172
22.26842,56091
22.27777,64908
22.28710,72309
22.29643,78734
22.30578,74048
22.31512,66237
22.32445,57274
22.33380,54543
22.34313,52465
22.35247,58137
22.36182,62092
22.37115,68459
22.38048,70794
22.38983,71538
22.39917,64934
22.40850,57914
22.41785,54208
22.42718,52991
22.43652,59288
22.44587,62077
22.45520,59258
22.46455,58275
22.47388,55644
22.48322,55503
22.49257,54040
22.50190,67132
22.51123,91899
22.52058,128727
22.52992,127639
22.53925,90049
22.54860,64482
22.55793,56190
22.56727,54719
22.57662,60177
22.58595,64870
22.59528,66421
22.60463,65735
22.61397,67840
22.62330,67674
22.63265,66105
22.64198,60931
22.65133,56839
22.66067,54001
22.67000,50449
22.67935,53014
22.68868,57677
22.69802,65415
22.70737,63822
22.71670,59606
22.72603,57295
22.73538,58952
22.74472,64495
22.75405,65468
22.76340,63953
22.77273,65960
22.78207,59840
22.79142,59517
22.80075,62412
22.81010,66647
22.81943,66230
22.82877,62849
22.83812,57152
22.84745,58642
22.85678,56365
22.86613,55710
22.87547,56518
22.88480,56607
22.89415,58638
22.90348,55840
22.91282,57705
22.92217,58146
22.93150,60973
22.94083,60815
22.95018,56816
22.95952,54711
22.96885,54977
22.97820,55311
22.98753,53180
22.99688,51474
23.00622,48653
23.01555,48392
23.02490,46976
23.03423,47325
23.04357,45617
23.05292,46717
23.06225,48106
23.07158,48251
23.08093,46958
23.09027,46351
23.09960,45311
23.10895,45715
23.11828,45597
23.12762,46373
23.13697,44942
23.14630,48340
23.15563,46520
23.16498,47416
23.17432,49524
23.18367,48704
23.19300,49291
23.20233,49744
23.21168,48294
23.22102,46884
23.23035,45164
23.23970,47906
23.24903,49472
23.25837,54397
23.26772,55013
23.27705,51692
23.28638,50676
23.29573,49954
23.30507,48861
23.31440,47353
23.32375,50545
23.33308,58070
23.34242,72537
23.35177,71208
23.36110,64523
23.37045,51937
23.37978,49698
23.38912,50204
23.39847,48133
23.40780,48601
23.41713,48241
23.42648,46869
23.43582,44849
23.44515,46279
23.45450,50958
23.46383,48328
23.47317,52572
23.48252,52818
23.49185,50084
23.50118,48321
23.51053,48082
23.51987,50402
23.52920,46735
23.53855,47390
23.54788,46201
23.55723,47494
23.56657,44854
23.57590,45628
23.58525,49531
23.59458,49867
23.60392,50856
23.61327,47553
23.62260,44874
23.63193,44620
23.64128,43948
23.65062,43392
23.65995,42134
23.66930,44676
23.67863,48256
23.68797,49647
23.69732,50882
23.70665,52221
23.71598,52794
23.72533,52240
23.73467,52318
23.74402,54726
23.75335,50561
23.76268,46096
23.77203,44593
23.78137,45676
23.79070,43028
23.80005,45768
23.80938,46381
23.81872,45354
23.82807,43272
23.83740,43787
23.84673,42574
23.85608,42021
23.86542,42572
23.87475,44423
23.88410,44400
23.89343,47253
23.90278,49100
23.91212,49967
23.92145,48848
23.93080,45575
23.94013,43920
23.94947,43178
23.95882,43886
23.96815,43297
23.97748,43623
23.98683,40870
23.99617,43027
24.00550,44269
24.01485,46784
24.02418,46295
24.03352,44616
24.04287,42282
24.05220,40890
24.06153,40306
24.07088,40840
24.08022,43303
24.08957,45795
24.09890,44183
24.10823,43827
24.11758,41378
24.12692,41856
24.13625,41625
24.14560,42055
24.15493,39761
24.16427,43247
24.17362,43848
24.18295,42995
24.19228,43359
24.20163,44067
24.21097,41451
24.22030,44202
24.22965,46785
24.23898,45609
24.24832,46443
24.25767,45610
24.26700,43057
24.27635,45161
24.28568,44490
24.29502,45857
24.30437,45120
24.31370,45034
24.32303,47323
24.33238,47042
24.34172,46339
24.35105,45798
24.36040,44206
24.36973,42416
24.37907,46157
24.38842,47266
24.39775,44345
24.40708,45360
24.41643,44946
24.42577,43461
24.43510,41619
24.44445,43624
24.45378,42699
24.46313,44554
24.47247,43197
24.48180,42479
24.49115,43122
24.50048,42626
24.50982,43910
24.51917,43971
24.52850,42144
24.53783,46880
24.54718,50574
24.55652,56933
24.56585,66573
24.57520,64599
24.58453,59341
24.59387,49684
24.60322,49688
24.61255,49019
24.62190,52679
24.63123,52400
24.64057,48769
24.64992,46301
24.65925,46824
24.66858,45937
24.67793,48688
24.68727,46718
24.69660,44838
24.70595,46722
24.71528,46781
24.72462,45082
24.73397,45172
24.74330,43227
24.75263,44369
24.76198,42877
24.77132,43833
24.78065,43323
24.79000,43534
24.79933,43190
24.80868,44733
24.81802,42598
24.82735,44976
24.83670,44069
24.84603,45121
24.85537,45194
24.86472,43421
24.87405,44756
24.88338,43681
24.89273,46626
24.90207,46875
24.91140,46440
24.92075,46320
24.93008,45363
24.93942,45656
24.94877,46244
24.95810,47187
24.96743,46976
24.97678,45286
24.98612,46099
24.99547,44447
25.00480,46269
25.01413,45493
25.02348,42933
25.03282,42964
25.04215,43403
25.05150,42398
25.06083,45756
25.07017,42243
25.07952,43303
25.08885,45514
25.09818,45578
25.10753,46000
25.11687,46342
25.12620,44197
25.13555,45620
25.14488,47943
25.15422,47955
25.16357,48804
25.17290,47035
25.18225,46619
25.19158,45177
25.20092,47013
25.21027,46010
25.21960,46121
25.22893,45309
25.23828,44528
25.24762,44412
25.25695,45540
25.26630,44448
25.27563,44306
25.28497,46109
25.29432,47752
25.30365,47612
25.31298,50675
25.32233,59390
25.33167,70233
25.34100,77366
25.35035,65964
25.35968,60469
25.36903,53714
25.37837,53616
25.38770,50383
25.39705,47391
25.40638,48433
25.41572,49828
25.42507,47668
25.43440,49893
25.44373,51347
25.45308,49356
25.46242,52021
25.47175,52340
25.48110,54022
25.49043,59645
25.49977,61546
25.50912,60458
25.51845,58472
25.52780,59165
25.53713,55559
25.54647,59099
25.55582,57851
25.56515,57161
25.57448,56198
25.58383,54349
25.59317,56163
25.60250,52383
25.61185,51411
25.62118,51553
25.63052,49966
25.63987,53134
25.64920,54197
25.65853,56122
25.66788,55825
25.67722,55552
25.68655,54164
25.69590,50806
25.70523,49617
25.71458,50183
25.72392,49596
25.73325,46427
25.74260,48638
25.75193,48914
25.76127,49582
25.77062,51604
25.77995,47630
25.78928,48524
25.79863,53147
25.80797,55843
25.81730,60698
25.82665,58196
25.83598,58766
25.84532,56278
25.85467,54005
25.86400,49731
25.87333,49299
25.88268,50954
25.89202,48129
25.90137,48827
25.91070,49726
25.92003,48148
25.92938,49338
25.93872,48190
25.94805,50034
25.95740,52574
25.96673,52276
25.97607,52425
25.98542,50647
25.99475,50655
26.00408,50341
26.01343,48192
26.02277,48504
26.03210,49135
26.04145,51807
26.05078,53983
26.06012,54225
26.06947,51944
26.07880,50559
26.08815,50815
26.09748,51099
26.10682,49294
26.11617,50111
26.12550,49435
26.13483,52056
26.14418,55196
26.15352,57015
26.16285,56317
26.17220,56102
26.18153,57188
26.19087,55821
26.20022,52706
26.20955,52051
26.21888,48323
26.22823,48571
26.23757,47625
26.24692,47310
26.25625,45681
26.26558,49302
26.27493,47274
26.28427,47066
26.29360,47545
26.30295,49363
26.31228,49198
26.32162,50524
26.33097,50121
26.34030,47699
26.34963,49003
26.35898,47610
26.36832,47889
26.37765,47618
26.38700,47353
26.39633,46223
26.40567,48818
26.41502,47910
26.42435,48601
26.43370,50275
26.44303,50378
26.45237,50744
26.46172,50868
26.47105,53247
26.48038,49605
26.48973,50788
26.49907,52346
26.50840,52623
26.51775,54359
26.52708,54147
26.53642,56785
26.54577,58605
26.55510,58091
26.56443,57100
26.57378,54763
26.58312,56062
26.59245,55056
26.60180,55921
26.61113,58117
26.62048,58388
26.62982,54477
26.63915,53280
26.64850,53234
26.65783,51818
26.66717,52275
26.67652,51802
26.68585,51950
26.69518,51274
26.70453,48591
26.71387,49928
26.72320,50857
26.73255,48052
26.74188,50359
26.75122,50704
26.76057,50721
26.76990,49297
26.77923,52029
26.78858,51683
26.79792,52264
26.80727,52632
26.81660,53360
26.82593,51869
26.83528,52790
26.84462,55107
26.85395,53642
26.86330,52037
26.87263,52509
26.88197,53263
26.89132,50191
26.90065,48161
26.90998,48640
26.91933,49592
26.92867,49425
26.93800,49242
26.94735,47953
26.95668,49449
26.96602,50133
26.97537,48964
26.98470,48125
26.99405,49043
27.00338,49680
27.01272,50927
27.02207,51114
27.03140,53436
27.04073,51462
27.05008,53255
27.05942,55165
27.06875,57154
27.07810,54748
27.08743,52308
27.09677,53222
27.10612,52610
27.11545,50652
27.12478,53032
27.13413,52974
27.14347,54962
27.15282,53982
27.16215,52236
27.17148,51955
27.18083,51600
27.19017,51759
27.19950,48684
27.20885,50510
27.21818,50136
27.22752,48859
27.23687,49811
27.24620,52205
27.25553,56480
27.26488,61173
27.27422,60987
27.28355,59508
27.29290,56884
27.30223,53974
27.31157,53633
27.32092,51335
27.33025,50758
27.33960,51595
27.34893,48811
27.35827,50017
27.36762,49971
27.37695,48979
27.38628,50918
27.39563,49223
27.40497,50801
27.41430,50802
27.42365,50140
27.43298,50611
27.44232,51423
27.45167,50743
27.46100,51669
27.47033,51492
27.47968,51207
27.48902,53547
27.49835,50458
27.50770,52198
27.51703,50626
27.52638,54177
27.53572,51753
27.54505,50296
27.55440,53429
27.56373,49405
27.57307,52391
27.58242,50284
27.59175,51165
27.60108,51555
27.61043,50775
27.61977,48623
27.62910,50373
27.63845,50492
27.64778,53034
27.65712,51791
27.66647,58112
27.67580,62990
27.68513,69758
27.69448,67479
27.70382,62376
27.71317,56686
27.72250,53374
27.73183,52599
27.74118,51543
27.75052,53316
27.75985,49398
27.76920,49381
27.77853,52437
27.78787,53006
27.79722,53255
27.80655,51123
27.81588,50924
27.82523,49879
27.83457,51035
27.84390,52244
27.85325,51935
27.86258,52265
27.87193,51038
27.88127,51388
27.89060,54287
27.89995,55128
27.90928,50452
27.91862,51519
27.92797,52235
27.93730,54310
27.94663,52035
27.95598,54680
27.96532,54268
27.97465,52169
27.98400,52054
27.99333,53136
28.00267,52243
28.01202,51392
28.02135,51203
28.03068,49402
28.04003,49693
28.04937,49427
28.05872,50761
28.06805,51702
28.07738,51280
28.08673,53728
28.09607,50209
28.10540,52349
28.11475,53382
28.12408,57658
28.13342,57108
28.14277,56180
28.15210,57528
28.16143,56239
28.17078,58241
28.18012,56040
28.18945,55842
28.19880,57612
28.20813,54629
28.21747,52758
28.22682,55433
28.23615,53430
28.24550,52792
28.25483,53177
28.26417,55401
28.27352,53852
28.28285,56070
28.29218,54175
28.30153,56859
28.31087,56857
28.32020,56672
28.32955,55730
28.33888,55914
28.34822,53758
28.35757,53927
28.36690,54113
28.37623,52473
28.38558,55290
28.39492,55134
28.40425,53733
28.41360,55279
28.42293,55088
28.43228,56742
28.44162,55930
28.45095,58727
28.46030,55281
28.46963,56737
28.47897,57420
28.48832,56991
28.49765,56875
28.50698,54036
28.51633,56631
28.52567,55689
28.53500,54418
28.54435,57740
28.55368,56098
28.56302,57291
28.57237,57331
28.58170,58260
28.59103,60707
28.60038,63681
28.60972,65647
28.61907,65392
28.62840,62851
28.63773,62643
28.64708,60538
28.65642,60649
28.66575,68261
28.67510,81854
28.68443,104369
28.69377,112906
28.70312,100202
28.71245,84127
28.72178,72445
28.73113,67801
28.74047,63236
28.74980,65872
28.75915,65154
28.76848,63997
28.77782,61706
28.78717,62599
28.79650,62973
28.80585,64179
28.81518,64971
28.82452,61363
28.83387,60916
28.84320,60619
28.85253,63572
28.86188,61474
28.87122,62505
28.88055,63865
28.88990,62675
28.89923,60494
28.90857,60747
28.91792,60747
28.92725,60833
28.93658,59956
28.94593,61469
28.95527,63798
28.96462,65256
28.97395,73127
28.98328,71949
28.99263,69991
29.00197,70015
29.01130,64490
29.02065,66372
29.02998,65983
29.03932,65972
29.04867,66158
29.05800,62805
29.06733,64137
29.07668,62849
29.08602,62632
29.09535,61908
29.10470,61407
29.11403,64753
29.12337,64921
29.13272,62478
29.14205,63437
29.15140,61826
29.16073,62832
29.17007,57906
29.17942,63188
29.18875,64229
29.19808,65797
29.20743,68294
29.21677,70345
29.22610,69842
29.23545,66067
29.24478,66203
29.25412,62796
29.26347,64832
29.27280,65279
29.28213,64165
29.29148,64626
29.30082,65901
29.31015,65411
29.31950,64774
29.32883,64993
29.33818,65882
29.34752,62756
29.35685,63604
29.36620,67163
29.37553,65135
29.38487,65232
29.39422,65255
29.40355,63196
29.41288,60881
29.42223,63495
29.43157,63716
29.44090,63306
29.45025,68027
29.45958,66959
29.46892,67799
29.47827,67318
29.48760,67824
29.49693,65882
29.50628,66524
29.51562,65093
29.52497,64579
29.53430,65805
29.54363,63080
29.55298,63316
29.56232,63855
29.57165,63276
29.58100,64422
29.59033,63273
29.59967,62070
29.60902,62373
29.61835,63663
29.62768,63755
29.63703,64623
29.64637,64042
29.65570,63402
29.66505,63066
29.67438,64620
29.68373,64074
29.69307,63167
29.70240,64736
29.71175,64509
29.72108,65295
29.73042,66854
29.73977,67713
29.74910,68262
29.75843,68252
29.76778,67697
29.77712,67155
29.78645,65181
29.79580,66378
29.80513,65372
29.81447,65128
29.82382,63408
29.83315,63274
29.84248,63525
29.85183,66662
29.86117,66722
29.87052,64325
29.87985,63843
29.88918,66246
29.89853,64818
29.90787,63177
29.91720,63981
29.92655,65537
29.93588,63286
29.94522,66892
29.95457,65399
29.96390,66743
29.97323,67973
29.98258,67938
29.99192,72721
30.00125,71476
30.01060,71514
30.01993,70434
30.02927,67528
30.03862,66457
30.04795,66950
30.05730,65438
30.06663,65244
30.07597,62781
30.08532,65793
30.09465,62604
30.10398,66806
30.11333,63570
30.12267,64131
30.13200,65957
30.14135,65276
30.15068,66267
30.16002,67076
30.16937,66183
30.17870,69176
30.18803,66836
30.19738,66249
30.20672,65219
30.21605,69448
30.22540,68849
30.23473,68303
30.24408,67351
30.25342,67319
30.26275,64840
30.27210,68537
30.28143,66421
30.29077,68364
30.30012,66304
30.30945,67457
30.31878,64423
30.32813,67172
30.33747,67612
30.34680,68310
30.35615,67402
30.36548,70748
30.37482,71108
30.38417,71984
30.39350,72071
30.40283,74007
30.41218,78413
30.42152,75550
30.43087,77223
30.44020,74964
30.44953,73946
30.45888,74596
30.46822,73540
30.47755,72505
30.48690,72296
30.49623,72093
30.50557,74823
30.51492,70229
30.52425,71075
30.53358,70334
30.54293,70915
30.55227,70656
30.56160,70954
30.57095,72706
30.58028,70821
30.58962,75272
30.59897,75663
30.60830,77107
30.61765,80671
30.62698,84759
30.63632,89353
30.64567,96126
30.65500,101738
30.66433,102892
30.67368,99147
30.68302,98595
30.69235,94194
30.70170,89749
30.71103,89113
30.72037,84739
30.72972,85452
30.73905,82731
30.74838,80482
30.75773,77751
30.76707,77946
30.77642,75984
30.78575,82677
30.79508,80214
30.80443,82397
30.81377,82036
30.82310,80420
30.83245,80488
30.84178,82888
30.85112,80917
30.86047,79498
30.86980,82489
30.87913,83851
30.88848,84206
30.89782,85792
30.90715,86189
30.91650,86005
30.92583,85962
30.93517,86003
30.94452,85655
30.95385,86479
30.96320,87171
30.97253,85309
30.98187,85496
30.99122,84091
31.00055,84001
31.00988,82007
31.01923,77547
31.02857,78428
31.03790,79017
31.04725,76787
31.05658,78829
31.06592,78379
31.07527,76772
31.08460,77037
31.09393,77492
31.10328,77588
31.11262,74986
31.12195,76482
31.13130,79970
31.14063,79411
31.14998,77235
31.15932,79007
31.16865,81220
31.17800,83427
31.18733,78581
31.19667,80564
31.20602,80752
31.21535,79805
31.22468,80564
31.23403,79671
31.24337,79990
31.25270,79344
31.26205,82036
31.27138,81627
31.28072,82310
31.29007,80473
31.29940,80728
31.30873,80430
31.31808,78689
31.32742,80481
31.33677,81089
31.34610,80803
31.35543,79567
31.36478,77941
