D:\数据\20211117中山一医采样\ZS1E-Z-000001.D Wed Nov 17 19:37:15 2021,
Start of data points,
0.09742,44286
0.10677,45363
0.1161,42394
0.12545,42863
0.13478,44960
0.14412,42631
0.15347,45119
0.1628,42669
0.17213,41549
0.18148,40874
0.19082,40922
0.20015,42106
0.2095,42257
0.21883,41370
0.22817,40216
0.23752,41381
0.24685,40179
0.25618,40372
0.26553,38914
0.27487,39148
0.2842,38334
0.29355,42710
0.30288,38695
0.31223,37916
0.32157,39135
0.3309,38637
0.34025,40400
0.34958,39985
0.35892,40070
0.36827,38452
0.3776,38111
0.38693,37971
0.39628,37043
0.40562,37028
0.41495,38178
0.4243,38091
0.43363,36353
0.44297,31614
0.45232,29737
0.46165,25860
0.47098,17723
0.48033,16212
0.48967,14849
0.49902,15382
0.50835,15171
0.51768,16214
0.52703,14013
0.53637,15459
0.5457,13914
0.55505,12825
0.56438,14373
0.57372,13033
0.58307,13810
0.5924,12705
0.60173,13518
0.61108,13849
0.62042,14608
0.62975,13175
0.6391,12690
0.64843,13268
0.65778,12530
0.66712,12608
0.67645,13108
0.6858,12610
0.69513,12174
0.70447,13322
0.71382,12903
0.72315,13603
0.73248,14086
0.74183,12004
0.75117,12408
0.7605,11839
0.76985,12218
0.77918,12779
0.78852,13310
0.79787,11952
0.8072,13500
0.81653,12668
0.82588,11924
0.83522,12349
0.84457,12654
0.8539,11288
0.86323,13092
0.87258,11605
0.88192,12674
0.89125,12106
0.9006,11610
0.90993,11621
0.91927,11949
0.92862,11239
0.93795,11044
0.94728,12271
0.95663,11874
0.96597,11261
0.9753,11255
0.98465,11786
0.99398,11954
1.00332,10703
1.01267,12006
1.022,12063
1.03135,10880
1.04068,11989
1.05002,10560
1.05937,10865
1.0687,11537
1.07803,12414
1.08738,11118
1.09672,10870
1.10605,12563
1.1154,11013
1.12473,11078
1.13407,11902
1.14342,11633
1.15275,11861
1.16208,11348
1.17143,10952
1.18077,10910
1.1901,10069
1.19945,10777
1.20878,11521
1.21813,10823
1.22747,11241
1.2368,10771
1.24615,10494
1.25548,10497
1.26482,10787
1.27417,10469
1.2835,10648
1.29283,10527
1.30218,11046
1.31152,11864
1.32085,9780
1.3302,12485
1.33953,10900
1.34887,11626
1.35822,10464
1.36755,10602
1.37688,10010
1.38623,11438
1.39557,11016
1.40492,10890
1.41425,10336
1.42358,9597
1.43293,9991
1.44227,10941
1.4516,11361
1.46095,10797
1.47028,10546
1.47962,10715
1.48897,10783
1.4983,9227
1.50763,10594
1.51698,9880
1.52632,10394
1.53565,10806
1.545,10805
1.55433,10437
1.56367,11016
1.57302,10817
1.58235,10789
1.5917,10501
1.60103,12301
1.61037,17248
1.61972,26285
1.62905,31119
1.63838,37618
1.64773,49399
1.65707,63008
1.6664,68980
1.67575,67079
1.68508,57575
1.69442,53090
1.70377,43031
1.7131,31884
1.72243,28681
1.73178,30781
1.74112,31603
1.75047,37405
1.7598,40719
1.76913,46379
1.77848,48450
1.78782,47686
1.79715,49480
1.8065,49051
1.81583,48437
1.82517,48120
1.83452,48560
1.84385,46785
1.85318,46074
1.86253,46965
1.87187,58130
1.8812,92639
1.89055,153875
1.89988,200716
1.90922,219934
1.91857,286407
1.9279,576534
1.93725,1316129
1.94658,2485119
1.95592,3338390
1.96527,3173441
1.9746,2461856
1.98393,1798799
1.99328,1344737
2.00262,1087842
2.01195,918809
2.0213,793682
2.03063,650666
2.03997,490636
2.04932,366217
2.05865,270310
2.06798,205067
2.07733,158043
2.08667,130194
2.096,157108
2.10535,190280
2.11468,157182
2.12403,123250
2.13337,128665
2.1427,195354
2.15205,214012
2.16138,169695
2.17072,134986
2.18007,127601
2.1894,173877
2.19873,261758
2.20808,231679
2.21742,163089
2.22675,122079
2.2361,144264
2.24543,284035
2.25477,1303484
2.26412,3192142
2.27345,3305880
2.28278,2365938
2.29213,1449505
2.30147,962732
2.31082,2069639
2.32015,6973754
2.32948,9971833
2.33883,6994585
2.34817,3293440
2.3575,1415384
2.36685,658958
2.37618,364982
2.38552,271704
2.39487,228690
2.4042,189036
2.41353,169563
2.42288,151295
2.43222,136858
2.44155,121212
2.4509,110780
2.46023,105201
2.46958,120899
2.47892,130622
2.48825,121109
2.4976,104037
2.50693,92811
2.51627,87223
2.52562,81514
2.53495,79473
2.54428,79944
2.55363,93810
2.56297,120954
2.5723,176062
2.58165,239803
2.59098,217019
2.60032,174843
2.60967,146107
2.619,133524
2.62833,151700
2.63768,185413
2.64702,183667
2.65637,162351
2.6657,141677
2.67503,121519
2.68438,101785
2.69372,81750
2.70305,78649
2.7124,76936
2.72173,94301
2.73107,125736
2.74042,169548
2.74975,202551
2.75908,208690
2.76843,197351
2.77777,201226
2.7871,238657
2.79645,252286
2.80578,222770
2.81512,195029
2.82447,181265
2.8338,166050
2.84315,140835
2.85248,123422
2.86182,122507
2.87117,159129
2.8805,194989
2.88983,173378
2.89918,138916
2.90852,109793
2.91785,96409
2.9272,87376
2.93653,87175
2.94587,80208
2.95522,72742
2.96455,70449
2.97388,71283
2.98323,68004
2.99257,69638
3.0019,79821
3.01125,94260
3.02058,110816
3.02993,103197
3.03927,101347
3.0486,116222
3.05795,126824
3.06728,145008
3.07662,151638
3.08597,136103
3.0953,107065
3.10463,91287
3.11398,76722
3.12332,68695
3.13265,67959
3.142,70083
3.15133,72678
3.16067,77233
3.17002,85003
3.17935,86198
3.18868,80308
3.19803,75561
3.20737,75635
3.21672,74504
3.22605,73829
3.23538,70261
3.24473,65971
3.25407,65485
3.2634,64564
3.27275,62130
3.28208,61622
3.29142,61308
3.30077,63613
3.3101,68655
3.31943,69754
3.32878,68028
3.33812,67526
3.34745,64291
3.3568,63969
3.36613,63575
3.37548,62438
3.38482,60690
3.39415,59373
3.4035,57084
3.41283,62838
3.42217,68770
3.43152,74989
3.44085,75982
3.45018,81322
3.45953,85798
3.46887,85166
3.4782,78671
3.48755,74345
3.49688,70897
3.50622,65333
3.51557,64697
3.5249,64805
3.53423,62725
3.54358,61239
3.55292,72419
3.56227,133659
3.5716,305293
3.58093,474250
3.59028,445299
3.59962,276670
3.60895,161665
3.6183,123542
3.62763,120605
3.63697,108319
3.64632,99045
3.65565,89004
3.66498,87110
3.67433,88221
3.68367,91735
3.693,90643
3.70235,82113
3.71168,71869
3.72102,67063
3.73037,73892
3.7397,80936
3.74905,82415
3.75838,73090
3.76772,69866
3.77707,63683
3.7864,60868
3.79573,59689
3.80508,66060
3.81442,107463
3.82375,263658
3.8331,483704
3.84243,523322
3.85177,373805
3.86112,226839
3.87045,138082
3.87978,96815
3.88913,80791
3.89847,80474
3.9078,86906
3.91715,97313
3.92648,92836
3.93583,93449
3.94517,99543
3.9545,121622
3.96385,129078
3.97318,115532
3.98252,98302
3.99187,79217
4.0012,70251
4.01053,64539
4.01988,63155
4.02922,61783
4.03855,79571
4.0479,131202
4.05723,205822
4.06657,232195
4.07592,193510
4.08525,147528
4.0946,127072
4.10393,120280
4.11327,108830
4.12262,91645
4.13195,79851
4.14128,74359
4.15063,70039
4.15997,71294
4.1693,69487
4.17865,64896
4.18798,63515
4.19732,61738
4.20667,61095
4.216,64028
4.22533,68544
4.23468,64460
4.24402,61576
4.25335,61240
4.2627,59545
4.27203,64004
4.28138,83665
4.29072,86705
4.30005,84388
4.3094,77713
4.31873,71698
4.32807,74594
4.33742,74991
4.34675,81325
4.35608,76448
4.36543,68009
4.37477,62995
4.3841,63593
4.39345,71259
4.40278,68724
4.41212,65218
4.42147,61554
4.4308,57857
4.44013,55426
4.44948,55948
4.45882,55890
4.46817,56985
4.4775,61963
4.48683,69702
4.49618,76368
4.50552,78648
4.51485,70115
4.5242,62991
4.53353,61586
4.54287,66018
4.55222,69794
4.56155,65360
4.57088,62800
4.58023,59817
4.58957,60850
4.5989,60389
4.60825,57303
4.61758,61255
4.62692,58392
4.63627,60062
4.6456,65485
4.65495,77382
4.66428,80519
4.67362,75122
4.68297,69210
4.6923,67286
4.70163,68606
4.71098,76487
4.72032,72040
4.72965,67729
4.739,65960
4.74833,70659
4.75767,74797
4.76702,67531
4.77635,64472
4.78568,60986
4.79503,60226
4.80437,60316
4.8137,61019
4.82305,59692
4.83238,64057
4.84173,63884
4.85107,65541
4.8604,64579
4.86975,68417
4.87908,75227
4.88842,87546
4.89777,86644
4.9071,77565
4.91643,71261
4.92578,68028
4.93512,66261
4.94445,66242
4.9538,65639
4.96313,65224
4.97247,60496
4.98182,55893
4.99115,57526
5.00048,60697
5.00983,60333
5.01917,63010
5.02852,62765
5.03785,66958
5.04718,68000
5.05653,67056
5.06587,62578
5.0752,62516
5.08455,64828
5.09388,65710
5.10322,65319
5.11257,60398
5.1219,58296
5.13123,56143
5.14058,59014
5.14992,66267
5.15925,71100
5.1686,69504
5.17793,68745
5.18728,70344
5.19662,78394
5.20595,86139
5.2153,73215
5.22463,66199
5.23397,63935
5.24332,64015
5.25265,65448
5.26198,65755
5.27133,71311
5.28067,115813
5.29,220450
5.29935,324335
5.30868,313192
5.31802,207711
5.32737,132624
5.3367,102993
5.34603,85734
5.35538,73500
5.36472,64179
5.37407,60553
5.3834,63553
5.39273,72173
5.40208,82879
5.41142,83120
5.42075,74346
5.4301,68031
5.43943,62796
5.44877,58188
5.45812,55040
5.46745,53854
5.47678,55081
5.48613,55990
5.49547,55450
5.5048,60041
5.51415,59971
5.52348,67611
5.53282,91379
5.54217,115319
5.5515,115852
5.56085,89062
5.57018,71595
5.57952,61657
5.58887,58258
5.5982,58574
5.60753,57290
5.61688,57121
5.62622,53961
5.63555,54290
5.6449,53303
5.65423,57071
5.66357,56594
5.67292,63449
5.68225,79093
5.69158,82186
5.70093,75399
5.71027,69227
5.7196,68609
5.72895,67436
5.73828,64947
5.74763,68511
5.75697,77560
5.7663,89101
5.77565,95132
5.78498,94614
5.79432,82580
5.80367,68019
5.813,57525
5.82233,58082
5.83168,63066
5.84102,74581
5.85035,75941
5.8597,72274
5.86903,63200
5.87837,60460
5.88772,53815
5.89705,50606
5.9064,51291
5.91573,69479
5.92507,114252
5.93442,170183
5.94375,164272
5.95308,135720
5.96243,119413
5.97177,98642
5.9811,76254
5.99045,67339
5.99978,60636
6.00912,57358
6.01847,52582
6.0278,47584
6.03713,39572
6.04648,35747
6.05582,34954
6.06515,33480
6.0745,35265
6.08383,34372
6.09318,32639
6.10252,30358
6.11185,30571
6.1212,31139
6.13053,34846
6.13987,39623
6.14922,42060
6.15855,38044
6.16788,34097
6.17723,30503
6.18657,31626
6.1959,29275
6.20525,30599
6.21458,30504
6.22392,30653
6.23327,35530
6.2426,41784
6.25193,41889
6.26128,36529
6.27062,34769
6.27997,41957
6.2893,44939
6.29863,43479
6.30798,35241
6.31732,28248
6.32665,27701
6.336,26310
6.34533,27252
6.35467,27263
6.36402,28029
6.37335,30552
6.38268,45402
6.39203,76221
6.40137,166822
6.4107,492611
6.42005,1078564
6.42938,1259588
6.43872,827329
6.44807,319256
6.4574,100232
6.46675,50120
6.47608,38126
6.48542,36325
6.49477,32890
6.5041,29421
6.51343,29092
6.52278,31509
6.53212,30873
6.54145,29377
6.5508,28660
6.56013,27830
6.56947,27542
6.57882,27486
6.58815,29685
6.59748,32774
6.60683,35666
6.61617,37902
6.6255,34430
6.63485,36036
6.64418,34950
6.65353,35781
6.66287,38036
6.6722,36906
6.68155,37336
6.69088,34742
6.70022,38142
6.70957,44326
6.7189,47768
6.72823,42930
6.73758,35206
6.74692,32565
6.75625,29903
6.7656,28740
6.77493,30502
6.78427,34200
6.79362,40557
6.80295,43603
6.8123,46490
6.82163,41944
6.83097,36886
6.84032,32674
6.84965,37350
6.85898,40346
6.86833,39245
6.87767,33172
6.887,29560
6.89635,28130
6.90568,29642
6.91502,30198
6.92437,32741
6.9337,29066
6.94303,29428
6.95238,29248
6.96172,30888
6.97105,30342
6.9804,30417
6.98973,30617
6.99908,29842
7.00842,28977
7.01775,27312
7.0271,29431
7.03643,27717
7.04577,24108
7.05512,24662
7.06445,23436
7.07378,23904
7.08313,24774
7.09247,26809
7.1018,29549
7.11115,32369
7.12048,35452
7.12982,37075
7.13917,34645
7.1485,29722
7.15783,27866
7.16718,25948
7.17652,26440
7.18587,25558
7.1952,25661
7.20453,26051
7.21388,26521
7.22322,30226
7.23255,38795
7.2419,65706
7.25123,99426
7.26057,95830
7.26992,72154
7.27925,56998
7.28858,54294
7.29793,46117
7.30727,38599
7.3166,32899
7.32595,29358
7.33528,26171
7.34462,26632
7.35397,25954
7.3633,24616
7.37265,24974
7.38198,25006
7.39132,31602
7.40067,60633
7.41,128317
7.41933,186941
7.42868,181820
7.43802,126154
7.44735,71583
7.4567,41516
7.46603,32888
7.47537,33068
7.48472,45806
7.49405,49700
7.50338,47336
7.51273,38363
7.52207,31088
7.5314,26508
7.54075,27006
7.55008,26619
7.55943,27029
7.56877,29523
7.5781,32968
7.58745,33700
7.59678,35121
7.60612,33307
7.61547,34970
7.6248,35372
7.63413,36796
7.64348,34254
7.65282,32039
7.66215,29569
7.6715,27520
7.68083,29271
7.69017,30785
7.69952,33157
7.70885,33993
7.7182,38821
7.72753,36803
7.73687,34297
7.74622,33891
7.75555,36546
7.76488,41711
7.77423,39512
7.78357,36338
7.7929,37316
7.80225,36273
7.81158,33924
7.82092,29285
7.83027,29338
7.8396,28476
7.84893,29511
7.85828,40306
7.86762,68607
7.87695,108552
7.8863,119871
7.89563,88115
7.90498,58365
7.91432,55250
7.92365,85627
7.933,104268
7.94233,92596
7.95167,73369
7.96102,80393
7.97035,86933
7.97968,83922
7.98903,99789
7.99837,115062
8.0077,100996
8.01705,72740
8.02638,59390
8.03572,52650
8.04507,53585
8.0544,61439
8.06373,60371
8.07308,48539
8.08242,40022
8.09177,42646
8.1011,60879
8.11043,64910
8.11978,60212
8.12912,43956
8.13845,34429
8.1478,32121
8.15713,30185
8.16647,30135
8.17582,31426
8.18515,31913
8.19448,32071
8.20383,30902
8.21317,32722
8.2225,34308
8.23185,36567
8.24118,38012
8.25052,42629
8.25987,43359
8.2692,41112
8.27855,38360
8.28788,33160
8.29722,32955
8.30657,32780
8.3159,32157
8.32523,33514
8.33458,33135
8.34392,30829
8.35325,30687
8.3626,30235
8.37193,30121
8.38127,29301
8.39062,37078
8.39995,43975
8.40928,42704
8.41863,42847
8.42797,44572
8.4373,44544
8.44665,42079
8.45598,39314
8.46533,38703
8.47467,38168
8.484,38961
8.49335,36520
8.50268,37616
8.51202,35867
8.52137,34843
8.5307,34240
8.54003,35256
8.54938,36098
8.55872,39223
8.56805,42699
8.5774,42770
8.58673,44371
8.59607,42514
8.60542,43469
8.61475,42898
8.6241,41774
8.63343,38496
8.64277,38094
8.65212,35754
8.66145,36124
8.67078,37859
8.68013,36849
8.68947,37532
8.6988,37053
8.70815,38986
8.71748,38843
8.72682,35646
8.73617,33963
8.7455,38215
8.75483,50980
8.76418,61600
8.77352,62686
8.78285,49085
8.7922,41120
8.80153,47555
8.81088,62737
8.82022,86221
8.82955,87862
8.8389,64324
8.84823,45694
8.85757,37511
8.86692,36719
8.87625,40343
8.88558,43310
8.89493,43317
8.90427,42909
8.9136,42689
8.92295,44180
8.93228,40951
8.94162,43204
8.95097,41000
8.9603,37701
8.96963,36519
8.97898,37996
8.98832,40225
8.99767,37830
9.007,41605
9.01633,43281
9.02568,41426
9.03502,39084
9.04435,41298
9.0537,45587
9.06303,49357
9.07237,51922
9.08172,57029
9.09105,62551
9.10038,67499
9.10973,61662
9.11907,49926
9.1284,44862
9.13775,44797
9.14708,47537
9.15642,48908
9.16577,40670
9.1751,37236
9.18445,39273
9.19378,37855
9.20312,38584
9.21247,42569
9.2218,56519
9.23113,94162
9.24048,140914
9.24982,144979
9.25915,109101
9.2685,75227
9.27783,54818
9.28717,49652
9.29652,47762
9.30585,43329
9.31518,42472
9.32453,48658
9.33387,66781
9.34322,89013
9.35255,82074
9.36188,80348
9.37123,140249
9.38057,247255
9.3899,284086
9.39925,218659
9.40858,137732
9.41792,91376
9.42727,74552
9.4366,72397
9.44593,66511
9.45528,51585
9.46462,42038
9.47395,36246
9.4833,36402
9.49263,39911
9.50197,43550
9.51132,49323
9.52065,45395
9.53,44582
9.53933,45335
9.54867,49531
9.55802,58895
9.56735,80991
9.57668,99420
9.58603,90501
9.59537,65108
9.6047,60692
9.61405,67480
9.62338,62769
9.63272,52510
9.64207,49819
9.6514,47172
9.66073,46838
9.67008,43960
9.67942,42699
9.68875,44859
9.6981,44902
9.70743,43464
9.71678,38313
9.72612,68680
9.73545,246969
9.7448,817083
9.75413,1500329
9.76347,1480732
9.77282,883329
9.78215,387592
9.79148,196665
9.80083,135214
9.81017,105227
9.8195,94643
9.82885,97875
9.83818,119406
9.84752,142278
9.85687,154112
9.8662,131099
9.87553,101573
9.88488,91454
9.89422,108013
9.90357,123613
9.9129,125881
9.92223,154624
9.93158,196557
9.94092,176924
9.95025,124716
9.9596,80209
9.96893,61763
9.97827,74080
9.98762,135303
9.99695,238536
10.00628,267183
10.01563,197235
10.02497,110332
10.0343,69472
10.04365,58817
10.05298,53171
10.06232,57107
10.07167,67753
10.081,88031
10.09035,99696
10.09968,90958
10.10902,107727
10.11837,347176
10.1277,1339505
10.13703,3001429
10.14638,3401822
10.15572,2244939
10.16505,2112272
10.1744,3450177
10.18373,3704263
10.19307,2021121
10.20242,539919
10.21175,123219
10.22108,66437
10.23043,63739
10.23977,69724
10.2491,87950
10.25845,93528
10.26778,82225
10.27713,62948
10.28647,52816
10.2958,48770
10.30515,49130
10.31448,49170
10.32382,49347
10.33317,51511
10.3425,51749
10.35183,48678
10.36118,47936
10.37052,48275
10.37985,45532
10.3892,45049
10.39853,42106
10.40787,41249
10.41722,39596
10.42655,39283
10.4359,40297
10.44523,44380
10.45457,46939
10.46392,58291
10.47325,69182
10.48258,68838
10.49193,55826
10.50127,45975
10.5106,40393
10.51995,39765
10.52928,38156
10.53862,37169
10.54797,40387
10.5573,44401
10.56663,47921
10.57598,47847
10.58532,52842
10.59465,54676
10.604,54144
10.61333,52865
10.62268,47718
10.63202,48958
10.64135,59162
10.6507,69835
10.66003,57627
10.66937,50730
10.67872,49859
10.68805,52849
10.69738,57189
10.70673,52236
10.71607,49240
10.7254,58629
10.73475,59997
10.74408,55932
10.75342,61549
10.76277,92171
10.7721,144637
10.78143,165376
10.79078,136485
10.80012,157620
10.80947,270677
10.8188,346512
10.82813,273298
10.83748,136200
10.84682,67608
10.85615,49246
10.8655,46394
10.87483,49171
10.88417,54015
10.89352,62813
10.90285,65651
10.91218,56942
10.92153,51872
10.93087,49780
10.9402,56786
10.94955,55341
10.95888,49863
10.96822,46155
10.97757,48263
10.9869,44408
10.99625,41731
11.00558,43791
11.01492,46783
11.02427,44465
11.0336,41943
11.04293,40122
11.05228,38814
11.06162,38878
11.07095,36318
11.0803,38189
11.08963,37514
11.09897,41364
11.10832,48074
11.11765,60677
11.12698,67355
11.13633,62030
11.14567,52936
11.15502,49180
11.16435,47695
11.17368,45698
11.18303,44553
11.19237,42306
11.2017,39775
11.21105,40019
11.22038,42256
11.22972,45279
11.23907,46828
11.2484,42956
11.25773,41421
11.26708,48363
11.27642,53279
11.28575,51531
11.2951,47565
11.30443,44861
11.31377,47114
11.32312,44727
11.33245,43369
11.3418,55950
11.35113,79879
11.36047,112596
11.36982,125710
11.37915,103874
11.38848,74632
11.39783,58114
11.40717,62714
11.4165,69985
11.42585,63655
11.43518,52380
11.44452,45938
11.45387,44081
11.4632,52998
11.47253,67267
11.48188,85744
11.49122,83470
11.50055,59456
11.5099,46561
11.51923,42610
11.52858,41561
11.53792,41289
11.54725,43913
11.5566,48626
11.56593,63716
11.57527,111681
11.58462,167007
11.59395,186140
11.60328,143522
11.61263,102567
11.62197,82435
11.6313,72940
11.64065,71882
11.64998,73722
11.65932,75779
11.66867,77880
11.678,74923
11.68733,64828
11.69668,56230
11.70602,48895
11.71537,52171
11.7247,50920
11.73403,49793
11.74338,48563
11.75272,50653
11.76205,50616
11.7714,50313
11.78073,54383
11.79007,61908
11.79942,65844
11.80875,65396
11.81808,53701
11.82743,51517
11.83677,53607
11.8461,56000
11.85545,53362
11.86478,53828
11.87412,56041
11.88347,60489
11.8928,61624
11.90215,57681
11.91148,54388
11.92082,51913
11.93017,52570
11.9395,57059
11.94883,74480
11.95818,88707
11.96752,83166
11.97685,67617
11.9862,54178
11.99553,48653
12.00487,53639
12.01422,65446
12.02355,83438
12.03288,86446
12.04223,75627
12.05157,68690
12.06092,60675
12.07025,54294
12.07958,48572
12.08893,45946
12.09827,49484
12.1076,53609
12.11695,58260
12.12628,55730
12.13562,56334
12.14497,53591
12.1543,53255
12.16363,59675
12.17298,83386
12.18232,151523
12.19165,195294
12.201,159478
12.21033,92125
12.21967,62310
12.22902,64485
12.23835,82789
12.2477,92723
12.25703,78191
12.26637,65994
12.27572,90352
12.28505,153586
12.29438,196507
12.30373,153611
12.31307,92598
12.3224,62083
12.33175,57910
12.34108,61686
12.35042,69666
12.35977,67654
12.3691,61174
12.37843,50937
12.38778,56394
12.39712,65820
12.40645,76937
12.4158,87430
12.42513,83145
12.43448,74364
12.44382,67112
12.45315,62763
12.4625,61258
12.47183,65149
12.48117,69107
12.49052,69333
12.49985,69574
12.50918,74126
12.51853,70020
12.52787,71900
12.5372,69843
12.54655,66282
12.55588,62725
12.56522,65737
12.57457,71397
12.5839,83049
12.59323,85305
12.60258,79752
12.61192,74353
12.62127,65054
12.6306,62658
12.63993,70129
12.64928,82887
12.65862,89481
12.66795,84650
12.6773,73724
12.68663,64413
12.69597,54852
12.70532,51146
12.71465,52579
12.72398,58749
12.73333,61674
12.74267,58773
12.752,59920
12.76135,63026
12.77068,67566
12.78003,61493
12.78937,54604
12.7987,50618
12.80805,50486
12.81738,51951
12.82672,51850
12.83607,53798
12.8454,53844
12.85473,52759
12.86408,50472
12.87342,48066
12.88275,50149
12.8921,48835
12.90143,53948
12.91077,55598
12.92012,52872
12.92945,48029
12.93878,50919
12.94813,54407
12.95747,58623
12.96682,58888
12.97615,54556
12.98548,47134
12.99483,47848
13.00417,48116
13.0135,49861
13.02285,50534
13.03218,54209
13.04152,64631
13.05087,67513
13.0602,60315
13.06953,59711
13.07888,70780
13.08822,75763
13.09755,65742
13.1069,60501
13.11623,56060
13.12557,54210
13.13492,55854
13.14425,61126
13.1536,65751
13.16293,64596
13.17227,62677
13.18162,66804
13.19095,104302
13.20028,375739
13.20963,1447883
13.21897,3164310
13.2283,3789061
13.23765,2381666
13.24698,863327
13.25632,271567
13.26567,164965
13.275,129679
13.28433,105250
13.29368,91875
13.30302,74998
13.31235,70168
13.3217,75663
13.33103,82303
13.34038,79727
13.34972,76284
13.35905,80517
13.3684,78650
13.37773,71610
13.38707,63427
13.39642,63589
13.40575,81872
13.41508,88561
13.42443,74475
13.43377,62297
13.4431,62699
13.45245,72346
13.46178,71117
13.47112,66485
13.48047,60768
13.4898,61017
13.49913,55173
13.50848,53961
13.51782,58256
13.52717,92347
13.5365,147250
13.54583,156187
13.55518,107268
13.56452,69097
13.57385,53111
13.5832,49764
13.59253,46412
13.60187,47058
13.61122,46339
13.62055,48669
13.62988,49131
13.63923,49439
13.64857,56187
13.6579,59267
13.66725,62107
13.67658,57417
13.68592,51442
13.69527,49122
13.7046,53068
13.71395,54278
13.72328,55447
13.73262,50006
13.74197,44398
13.7513,41969
13.76063,44028
13.76998,46623
13.77932,45486
13.78865,44643
13.798,48346
13.80733,55807
13.81667,58670
13.82602,60401
13.83535,50882
13.84468,47290
13.85403,45668
13.86337,46707
13.87272,53458
13.88205,56136
13.89138,63747
13.90073,87306
13.91007,144531
13.9194,275839
13.92875,424481
13.93808,396335
13.94742,229297
13.95677,114309
13.9661,83024
13.97543,72020
13.98478,64983
13.99412,57394
14.00345,58421
14.0128,54929
14.02213,53790
14.03147,52391
14.04082,55831
14.05015,124722
14.0595,729818
14.06883,3230245
14.07817,7830782
14.08752,1.04E+07
14.09685,7191058
14.10618,2222160
14.11553,357012
14.12487,91359
14.1342,68107
14.14355,63302
14.15288,63994
14.16222,70943
14.17157,79647
14.1809,89212
14.19023,94505
14.19958,118200
14.20892,137267
14.21825,113336
14.2276,78120
14.23693,55688
14.24628,46744
14.25562,46880
14.26495,49969
14.2743,51146
14.28363,57042
14.29297,56472
14.30232,48539
14.31165,47963
14.32098,57804
14.33033,84842
14.33967,109986
14.349,110537
14.35835,84889
14.36768,64086
14.37702,57020
14.38637,50272
14.3957,52130
14.40503,51092
14.41438,51817
14.42372,46818
14.43307,45517
14.4424,47822
14.45173,61631
14.46108,100528
14.47042,141930
14.47975,164400
14.4891,132858
14.49843,90583
14.50777,61494
14.51712,49931
14.52645,43707
14.53578,43443
14.54513,47897
14.55447,51108
14.5638,56980
14.57315,58813
14.58248,56275
14.59183,54601
14.60117,50717
14.6105,48222
14.61985,47207
14.62918,50754
14.63852,59481
14.64787,78033
14.6572,112488
14.66653,132493
14.67588,120560
14.68522,85566
14.69455,61886
14.7039,53871
14.71323,49907
14.72257,48363
14.73192,49070
14.74125,49674
14.75058,50889
14.75993,52215
14.76927,51906
14.77862,55131
14.78795,57715
14.79728,63257
14.80663,73616
14.81597,73693
14.8253,66081
14.83465,60009
14.84398,54064
14.85332,47894
14.86267,48401
14.872,60552
14.88133,87626
14.89068,92920
14.90002,76432
14.90935,59491
14.9187,52647
14.92803,51975
14.93737,55452
14.94672,52544
14.95605,53472
14.9654,59518
14.97473,69458
14.98407,77980
14.99342,71504
15.00275,62446
15.01208,66765
15.02143,75446
15.03077,74586
15.0401,64600
15.04945,66791
15.05878,75721
15.06812,79812
15.07747,86562
15.0868,82820
15.09613,68320
15.10548,55371
15.11482,50278
15.12415,52260
15.1335,70115
15.14283,91674
15.15218,87916
15.16152,69230
15.17085,54778
15.1802,50468
15.18953,52457
15.19887,62420
15.20822,87429
15.21755,130673
15.22688,180730
15.23623,201251
15.24557,170343
15.2549,119920
15.26425,83193
15.27358,62088
15.28292,56337
15.29227,57314
15.3016,56993
15.31093,53874
15.32028,52522
15.32962,56235
15.33897,63096
15.3483,68725
15.35763,69228
15.36698,67726
15.37632,80578
15.38565,89306
15.395,81075
15.40433,62071
15.41367,51778
15.42302,52193
15.43235,57084
15.44168,62305
15.45103,57536
15.46037,52020
15.4697,49567
15.47905,50121
15.48838,53051
15.49773,52371
15.50707,64328
15.5164,94826
15.52575,153585
15.53508,175138
15.54442,130970
15.55377,82106
15.5631,57715
15.57243,48867
15.58178,47025
15.59112,47001
15.60045,49791
15.6098,52891
15.61913,56037
15.62847,61357
15.63782,74664
15.64715,80579
15.65648,81310
15.66583,89168
15.67517,96201
15.68452,85311
15.69385,66941
15.70318,68184
15.71253,87421
15.72187,97214
15.7312,81271
15.74055,64867
15.74988,65853
15.75922,85123
15.76857,97193
15.7779,92669
15.78723,84725
15.79658,66655
15.80592,64014
15.81525,81094
15.8246,131087
15.83393,221088
15.84327,364582
15.85262,465980
15.86195,421138
15.8713,240050
15.88063,119428
15.88997,97975
15.89932,113927
15.90865,131067
15.91798,126031
15.92733,102405
15.93667,73909
15.946,62215
15.95535,54952
15.96468,57183
15.97402,60624
15.98337,83930
15.9927,114506
16.00203,143012
16.01138,133231
16.02072,98841
16.03005,70183
16.0394,57704
16.04873,55766
16.05808,60324
16.06742,62790
16.07675,62339
16.0861,62166
16.09543,58780
16.10477,59469
16.11412,60536
16.12345,70017
16.13278,76070
16.14213,78664
16.15147,67744
16.1608,63883
16.17015,61430
16.17948,59544
16.18882,55020
16.19817,53659
16.2075,63978
16.21685,75713
16.22618,86317
16.23552,90053
16.24487,83774
16.2542,73339
16.26353,69552
16.27288,83167
16.28222,177085
16.29155,564767
16.3009,1386357
16.31023,1947351
16.31957,1552286
16.32892,708463
16.33825,221941
16.34758,84998
16.35693,60007
16.36627,50966
16.3756,48596
16.38495,44815
16.39428,45486
16.40363,49304
16.41297,54236
16.4223,55399
16.43165,59666
16.44098,58604
16.45032,57780
16.45967,68343
16.469,83884
16.47833,83636
16.48768,73181
16.49702,65543
16.50635,63748
16.5157,61557
16.52503,66122
16.53437,67502
16.54372,64799
16.55305,61713
16.56238,59627
16.57173,54487
16.58107,56548
16.59042,62580
16.59975,68137
16.60908,61163
16.61843,58013
16.62777,65743
16.6371,77695
16.64645,84035
16.65578,79905
16.66512,71831
16.67447,64287
16.6838,60590
16.69313,65929
16.70248,84652
16.71182,93593
16.72115,84520
16.7305,68858
16.73983,62788
16.74917,92107
16.75852,154449
16.76785,184803
16.7772,138709
16.78653,85266
16.79587,61274
16.80522,58635
16.81455,63756
16.82388,68338
16.83323,74390
16.84257,87182
16.8519,93086
16.86125,83227
16.87058,71401
16.87992,59324
16.88927,55000
16.8986,57509
16.90793,64255
16.91728,84674
16.92662,110780
16.93595,106386
16.9453,88409
16.95463,80008
16.96398,86325
16.97332,92017
16.98265,89223
16.992,79240
17.00133,72062
17.01067,60785
17.02002,58622
17.02935,72350
17.03868,111358
17.04803,144436
17.05737,125315
17.0667,90883
17.07605,78573
17.08538,75730
17.09472,72616
17.10407,70457
17.1134,65556
17.12273,61023
17.13208,59855
17.14142,72683
17.15077,82511
17.1601,77579
17.16943,60584
17.17878,57624
17.18812,58835
17.19745,61377
17.2068,58546
17.21613,52694
17.22547,50330
17.23482,52160
17.24415,53218
17.25348,54708
17.26283,54958
17.27217,58032
17.2815,65866
17.29085,72470
17.30018,77588
17.30953,67671
17.31887,70702
17.3282,76246
17.33755,83804
17.34688,76147
17.35622,65535
17.36557,63950
17.3749,75619
17.38423,140181
17.39358,282338
17.40292,360912
17.41225,259216
17.4216,137652
17.43093,86410
17.44027,72580
17.44962,68601
17.45895,69639
17.46828,73684
17.47763,68249
17.48697,74173
17.49632,153639
17.50565,691918
17.51498,2321030
17.52433,4436536
17.53367,4509558
17.543,2206317
17.55235,581805
17.56168,127724
17.57102,73821
17.58037,80380
17.5897,94447
17.59903,100305
17.60838,91699
17.61772,76767
17.62705,66380
17.6364,66713
17.64573,67676
17.65507,71473
17.66442,82534
17.67375,100448
17.6831,109651
17.69243,108010
17.70177,112272
17.71112,111389
17.72045,104591
17.72978,93195
17.73913,82473
17.74847,75927
17.7578,83062
17.76715,92255
17.77648,103012
17.78582,105033
17.79517,90874
17.8045,83046
17.81383,77618
17.82318,68977
17.83252,65055
17.84185,61262
17.8512,68306
17.86053,83609
17.86988,106119
17.87922,116042
17.88855,103048
17.8979,94134
17.90723,89215
17.91657,77512
17.92592,69005
17.93525,65600
17.94458,69830
17.95393,71801
17.96327,65661
17.9726,62150
17.98195,59153
17.99128,57138
18.00062,58289
18.00997,58139
18.0193,63924
18.02865,64339
18.03798,64281
18.04732,66470
18.05667,74255
18.066,76798
18.07533,75228
18.08468,69572
18.09402,63552
18.10335,68581
18.1127,91308
18.12203,111929
18.13137,117208
18.14072,102203
18.15005,91899
18.15938,88756
18.16873,86441
18.17807,82513
18.1874,77322
18.19675,74095
18.20608,69899
18.21543,67097
18.22477,68277
18.2341,70390
18.24345,70993
18.25278,66720
18.26212,60278
18.27147,59120
18.2808,66689
18.29013,80668
18.29948,89663
18.30882,96169
18.31815,97580
18.3275,95439
18.33683,91755
18.34617,99090
18.35552,115285
18.36485,131097
18.37418,131909
18.38353,115845
18.39287,99486
18.40222,100609
18.41155,116418
18.42088,127212
18.43023,106195
18.43957,86418
18.4489,89342
18.45825,101241
18.46758,100027
18.47692,86051
18.48627,80001
18.4956,94642
18.50493,127023
18.51428,174442
18.52362,196058
18.53295,171230
18.5423,125342
18.55163,102940
18.56097,106721
18.57032,112781
18.57965,98014
18.589,81298
18.59833,71088
18.60767,76889
18.61702,92940
18.62635,106054
18.63568,107712
18.64503,101078
18.65437,97519
18.6637,91736
18.67305,95613
18.68238,101620
18.69172,104375
18.70107,96230
18.7104,97112
18.71973,110927
18.72908,116843
18.73842,113060
18.74775,99470
18.7571,90002
18.76643,83822
18.77578,74322
18.78512,66894
18.79445,64951
18.8038,66082
18.81313,69458
18.82247,74332
18.83182,76212
18.84115,72675
18.85048,87357
18.85983,72816
18.86917,72085
18.8785,73644
18.88785,75419
18.89718,71294
18.90652,75082
18.91587,92981
18.9252,117923
18.93453,125690
18.94388,108501
18.95322,107751
18.96257,121657
18.9719,140088
18.98123,139215
18.99058,120524
18.99992,98913
19.00925,85623
19.0186,77380
19.02793,77669
19.03727,80107
19.04662,94562
19.05595,139266
19.06528,204160
19.07463,281203
19.08397,434535
19.0933,583151
19.10265,546059
19.11198,333994
19.12133,179448
19.13067,102800
19.14,74462
19.14935,65356
19.15868,62437
19.16802,63233
19.17737,63189
19.1867,66290
19.19603,71215
19.20538,82708
19.21472,92491
19.22405,92761
19.2334,92215
19.24273,90844
19.25207,82220
19.26142,73160
19.27075,69642
19.28008,72076
19.28943,83332
19.29877,93096
19.30812,126615
19.31745,196493
19.32678,249870
19.33613,213384
19.34547,148734
19.3548,98169
19.36415,79773
19.37348,69055
19.38282,63322
19.39217,62399
19.4015,66954
19.41083,70472
19.42018,75013
19.42952,71113
19.43885,68232
19.4482,64956
19.45753,62662
19.46687,62904
19.47622,72166
19.48555,80332
19.4949,87124
19.50423,88388
19.51357,84487
19.52292,71261
19.53225,66339
19.54158,68033
19.55093,67171
19.56027,64192
19.5696,65897
19.57895,71368
19.58828,82449
19.59762,86705
19.60697,83830
19.6163,76146
19.62563,68256
19.63498,75403
19.64432,83675
19.65365,92424
19.663,86139
19.67233,74351
19.68168,67525
19.69102,73868
19.70035,82078
19.7097,84780
19.71903,90814
19.72837,104469
19.73772,132953
19.74705,149720
19.75638,131719
19.76573,101446
19.77507,86398
19.7844,85179
19.79375,89902
19.80308,86324
19.81242,76389
19.82177,69593
19.8311,72574
19.84045,71143
19.84978,67910
19.85912,66437
19.86847,71106
19.8778,90665
19.88713,122484
19.89648,132821
19.90582,105840
19.91515,85571
19.9245,79492
19.93383,73581
19.94317,75338
19.95252,71681
19.96185,73984
19.97118,82753
19.98053,81717
19.98987,75723
19.9992,71145
20.00855,66514
20.01788,68409
20.02723,72587
20.03657,78074
20.0459,80508
20.05525,83921
20.06458,78181
20.07392,72740
20.08327,71454
20.0926,76932
20.10193,77738
20.11128,68521
20.12062,63416
20.12995,61865
20.1393,61683
20.14863,68099
20.15797,81420
20.16732,96707
20.17665,95615
20.18598,82111
20.19533,71841
20.20467,69580
20.21402,68796
20.22335,73440
20.23268,76747
20.24203,78966
20.25137,75702
20.2607,70027
20.27005,67287
20.27938,69403
20.28872,65975
20.29807,73730
20.3074,75546
20.31673,73834
20.32608,68467
20.33542,64204
20.34475,61945
20.3541,61519
20.36343,65255
20.37277,70521
20.38212,72500
20.39145,67532
20.4008,63637
20.41013,61096
20.41947,60261
20.42882,63318
20.43815,64041
20.44748,62914
20.45683,65523
20.46617,67775
20.4755,83625
20.48485,102893
20.49418,100339
20.50352,83191
20.51287,67672
20.5222,66381
20.53153,64901
20.54088,64983
20.55022,69596
20.55955,81080
20.5689,127369
20.57823,277066
20.58758,500783
20.59692,535097
20.60625,317147
20.6156,142984
20.62493,85740
20.63427,93872
20.64362,136037
20.65295,191673
20.66228,191849
20.67163,146155
20.68097,105355
20.6903,88630
20.69965,82318
20.70898,79423
20.71832,77445
20.72767,80133
20.737,77629
20.74635,77053
20.75568,75288
20.76502,77954
20.77437,73064
20.7837,70975
20.79303,72708
20.80238,79430
20.81172,81976
20.82105,79139
20.8304,76011
20.83973,72579
20.84907,69204
20.85842,64135
20.86775,65205
20.87708,61665
20.88643,68846
20.89577,72309
20.9051,70257
20.91445,74195
20.92378,73417
20.93313,69460
20.94247,67818
20.9518,67143
20.96115,65452
20.97048,63677
20.97982,64727
20.98917,62265
20.9985,64231
21.00783,65576
21.01718,65940
21.02652,66789
21.03585,66577
21.0452,65691
21.05453,66926
21.06387,69309
21.07322,71497
21.08255,68367
21.09188,67007
21.10123,68492
21.11057,69555
21.11992,75257
21.12925,79941
21.13858,81652
21.14793,80449
21.15727,76502
21.1666,75468
21.17595,76915
21.18528,83358
21.19462,94920
21.20397,89063
21.2133,79826
21.22263,73655
21.23198,71057
21.24132,72746
21.25065,71355
21.26,69105
21.26933,71072
21.27867,86788
21.28802,107010
21.29735,127107
21.3067,122634
21.31603,100968
21.32537,83066
21.33472,72161
21.34405,69668
21.35338,70407
21.36273,72805
21.37207,73281
21.3814,75298
21.39075,74508
21.40008,76315
21.40942,80277
21.41877,82592
21.4281,86436
21.43743,85158
21.44678,84095
21.45612,78784
21.46547,75089
21.4748,72201
21.48413,77367
21.49348,83751
21.50282,83936
21.51215,83058
21.5215,80190
21.53083,77039
21.54017,76579
21.54952,75536
21.55885,83635
21.56818,102848
21.57753,146285
21.58687,169472
21.5962,154209
21.60555,116529
21.61488,86841
21.62422,79755
21.63357,81875
21.6429,82133
21.65225,80423
21.66158,76326
21.67092,72501
21.68027,81276
21.6896,96331
21.69893,111068
21.70828,115754
21.71762,104452
21.72695,98380
21.7363,95847
21.74563,88068
21.75497,82135
21.76432,76887
21.77365,72990
21.78298,71503
21.79233,76193
21.80167,75164
21.811,81198
21.82035,87886
21.82968,93948
21.83903,94992
21.84837,91761
21.8577,83211
21.86705,79500
21.87638,78142
21.88572,86054
21.89507,97240
21.9044,102160
21.91373,99185
21.92308,90919
21.93242,81813
21.94175,78242
21.9511,76737
21.96043,80902
21.96977,86840
21.97912,97859
21.98845,119715
21.99778,138036
22.00713,148308
22.01647,126587
22.02582,98791
22.03515,84749
22.04448,91003
22.05383,96711
22.06317,102605
22.0725,104076
22.08185,95841
22.09118,91724
22.10052,88890
22.10987,86894
22.1192,80782
22.12853,81982
22.13788,77227
22.14722,78416
22.15655,83761
22.1659,102631
22.17523,124363
22.18457,138978
22.19392,121170
22.20325,100753
22.2126,88960
22.22193,92493
22.23127,98425
22.24062,99143
22.24995,96380
22.25928,91479
22.26863,93119
22.27797,107740
22.2873,130286
22.29665,148912
22.30598,152938
22.31532,133476
22.32467,109928
22.334,97864
22.34333,89809
22.35268,96057
22.36202,110696
22.37135,117862
22.3807,124080
22.39003,127449
22.39938,121309
22.40872,107752
22.41805,100460
22.4274,98723
22.43673,103640
22.44607,109853
22.45542,115825
22.46475,109162
22.47408,100438
22.48343,99995
22.49277,93426
22.5021,88680
22.51145,85303
22.52078,88382
22.53012,88407
22.53947,85824
22.5488,89746
22.55815,89520
22.56748,91292
22.57682,107491
22.58617,117764
22.5955,129255
22.60483,130174
22.61418,123943
22.62352,122613
22.63285,117184
22.6422,111656
22.65153,103842
22.66087,96534
22.67022,90993
22.67955,93229
22.68888,103412
22.69823,120012
22.70757,126320
22.7169,115385
22.72625,103796
22.73558,107851
22.74493,118205
22.75427,121384
22.7636,120428
22.77295,115725
22.78228,111163
22.79162,105223
22.80097,108251
22.8103,124452
22.81963,129509
22.82898,119957
22.83832,110329
22.84765,107089
22.857,108224
22.86633,99702
22.87567,101521
22.88502,105576
22.89435,105920
22.90368,103754
22.91303,104397
22.92237,105055
22.93172,109078
22.94105,116277
22.95038,112625
22.95973,103853
22.96907,105934
22.9784,101804
22.98775,92333
22.99708,93914
23.00642,90705
23.01577,89558
23.0251,86230
23.03443,84830
23.04378,84932
23.05312,91839
23.06245,92320
23.0718,90853
23.08113,90992
23.09047,84142
23.09982,84883
23.10915,82665
23.1185,85747
23.12783,81469
23.13717,82014
23.14652,84327
23.15585,87355
23.16518,84535
23.17453,87685
23.18387,87372
23.1932,84535
23.20255,86205
23.21188,83046
23.22122,82125
23.23057,84835
23.2399,83698
23.24923,92175
23.25858,102380
23.26792,106186
23.27727,101716
23.2866,93689
23.29593,92499
23.30528,89256
23.31462,83785
23.32395,87746
23.3333,107547
23.34263,142865
23.35197,150449
23.36132,134187
23.37065,105246
23.37998,90813
23.38933,89159
23.39867,94690
23.408,94225
23.41735,93858
23.42668,90111
23.43602,92511
23.44537,93602
23.4547,91241
23.46405,91360
23.47338,92062
23.48272,92310
23.49207,89688
23.5014,86476
23.51073,83441
23.52008,86336
23.52942,91332
23.53875,96383
23.5481,94558
23.55743,91992
23.56677,86893
23.57612,86016
23.58545,89360
23.59478,93653
23.60413,95022
23.61347,92913
23.6228,87353
23.63215,86041
23.64148,84471
23.65083,85354
23.66017,84249
23.6695,81525
23.67885,86105
23.68818,89546
23.69752,92106
23.70687,95166
23.7162,95820
23.72553,100054
23.73488,110196
23.74422,114496
23.75355,112740
23.7629,100079
23.77223,93509
23.78157,86773
23.79092,92321
23.80025,92078
23.80958,94746
23.81893,93425
23.82827,88796
23.83762,86452
23.84695,86117
23.85628,84251
23.86563,85029
23.87497,87843
23.8843,88284
23.89365,90939
23.90298,90027
23.91232,93123
23.92167,92286
23.931,89684
23.94033,87948
23.94968,88364
23.95902,90060
23.96835,91306
23.9777,86012
23.98703,87249
23.99637,85151
24.00572,86266
24.01505,89862
24.0244,91928
24.03373,91286
24.04307,88188
24.05242,85158
24.06175,85012
24.07108,85077
24.08043,83557
24.08977,90410
24.0991,92741
24.10845,94265
24.11778,91003
24.12712,90735
24.13647,89474
24.1458,88205
24.15513,93005
24.16448,95037
24.17382,91436
24.18317,92256
24.1925,92756
24.20183,91956
24.21118,92379
24.22052,88692
24.22985,88042
24.2392,91110
24.24853,89543
24.25787,91863
24.26722,91053
24.27655,94954
24.28588,90173
24.29523,92873
24.30457,95487
24.3139,96499
24.32325,100008
24.33258,103828
24.34192,106669
24.35127,99878
24.3606,95169
24.36995,91901
24.37928,94835
24.38862,93412
24.39797,98297
24.4073,100807
24.41663,99333
24.42598,99187
24.43532,101091
24.44465,95839
24.454,95583
24.46333,94636
24.47267,95527
24.48202,99337
24.49135,100504
24.50068,95341
24.51003,102303
24.51937,98246
24.5287,101539
24.53805,100277
24.54738,102408
24.55673,104446
24.56607,103196
24.5754,100868
24.58475,99113
24.59408,96720
24.60342,97057
24.61277,102365
24.6221,109752
24.63143,116230
24.64078,109638
24.65012,103317
24.65945,95592
24.6688,105596
24.67813,109270
24.68747,113426
24.69682,110702
24.70615,110065
24.71548,106793
24.72483,109671
24.73417,107627
24.74352,103303
24.75285,102755
24.76218,99556
24.77153,99017
24.78087,99552
24.7902,99173
24.79955,100261
24.80888,96884
24.81822,101099
24.82757,99192
24.8369,102054
24.84623,99777
24.85558,98507
24.86492,102633
24.87425,103438
24.8836,104920
24.89293,102923
24.90228,105186
24.91162,108582
24.92095,104170
24.9303,107981
24.93963,104435
24.94897,107016
24.95832,106929
24.96765,111510
24.97698,110223
24.98633,108947
24.99567,107605
25.005,109834
25.01435,113595
25.02368,110095
25.03302,108056
25.04237,104971
25.0517,101853
25.06103,109005
25.07038,110235
25.07972,108472
25.08907,107725
25.0984,110303
25.10773,107132
25.11708,109493
25.12642,108473
25.13575,111924
25.1451,116801
25.15443,120164
25.16377,122601
25.17312,120809
25.18245,115503
25.19178,107962
25.20113,116376
25.21047,118595
25.2198,120353
25.22915,118243
25.23848,112448
25.24782,112645
25.25717,112959
25.2665,113962
25.27585,111961
25.28518,112874
25.29452,111129
25.30387,111948
25.3132,113884
25.32253,114253
25.33188,126738
25.34122,135273
25.35055,139889
25.3599,134387
25.36923,130669
25.37857,126130
25.38792,123750
25.39725,121885
25.40658,120842
25.41593,119510
25.42527,121606
25.4346,122249
25.44395,124914
25.45328,119018
25.46263,122072
25.47197,127732
25.4813,135409
25.49065,145706
25.49998,154637
25.50932,152054
25.51867,143134
25.528,140537
25.53733,140601
25.54668,139123
25.55602,134076
25.56535,134046
25.5747,134162
25.58403,132705
25.59337,134081
25.60272,129933
25.61205,133480
25.62138,130135
25.63073,127908
25.64007,132493
25.64942,134760
25.65875,136900
25.66808,140500
25.67743,140723
25.68677,137502
25.6961,137047
25.70545,132941
25.71478,134653
25.72412,137129
25.73347,135140
25.7428,137776
25.75213,137425
25.76148,135504
25.77082,143130
25.78015,138040
25.7895,140300
25.79883,139342
25.80817,143683
25.81752,147766
25.82685,152331
25.8362,148596
25.84553,154600
25.85487,161248
25.86422,148974
25.87355,147629
25.88288,147310
25.89223,146601
25.90157,147480
25.9109,146727
25.92025,146509
25.92958,142770
25.93892,146213
25.94827,151276
25.9576,154658
25.96693,163353
25.97628,158413
25.98562,155184
25.99497,147759
26.0043,146625
26.01363,152791
26.02298,150611
26.03232,153258
26.04165,160543
26.051,163963
26.06033,168051
26.06967,174845
26.07902,165828
26.08835,166557
26.09768,156767
26.10703,159209
26.11637,157072
26.1257,155041
26.13505,157497
26.14438,163844
26.15372,169627
26.16307,169069
26.1724,169347
26.18175,172381
26.19108,167332
26.20042,162716
26.20977,159843
26.2191,158270
26.22843,158356
26.23778,155485
26.24712,159284
26.25645,158911
26.2658,162835
26.27513,162871
26.28447,164138
26.29382,165612
26.30315,167652
26.31248,169474
26.32183,169368
26.33117,170598
26.3405,173301
26.34985,172374
26.35918,167424
26.36853,171913
26.37787,172976
26.3872,170560
26.39655,171458
26.40588,169656
26.41522,169015
26.42457,170020
26.4339,169464
26.44323,174489
26.45258,177972
26.46192,187271
26.47125,192013
26.4806,193464
26.48993,193258
26.49927,191993
26.50862,194738
26.51795,199737
26.52728,209475
26.53663,218122
26.54597,222576
26.55532,226957
26.56465,222762
26.57398,218573
26.58333,222996
26.59267,217663
26.602,222878
26.61135,221848
26.62068,220796
26.63002,212479
26.63937,212010
26.6487,206093
26.65803,206191
26.66738,205553
26.67672,208425
26.68605,207137
26.6954,201686
26.70473,204496
26.71408,196798
26.72342,197843
26.73275,194486
26.7421,201630
26.75143,197924
26.76077,203644
26.77012,205689
26.77945,202494
26.78878,208003
26.79813,207398
26.80747,209018
26.8168,208092
26.82615,207457
26.83548,207034
26.84482,205671
26.85417,207877
26.8635,209459
26.87283,215087
26.88218,212687
26.89152,211852
26.90087,205680
26.9102,206575
26.91953,210398
26.92888,206192
26.93822,206564
26.94755,207955
26.9569,208765
26.96623,209758
26.97557,208769
26.98492,211979
26.99425,212594
27.00358,216376
27.01293,220560
27.02227,225972
27.0316,220067
27.04095,216745
27.05028,224118
27.05962,222875
27.06897,224336
27.0783,226017
27.08765,222323
27.09698,220516
27.10632,218490
27.11567,221534
27.125,221559
27.13433,220340
27.14368,228365
27.15302,230813
27.16235,227528
27.1717,228919
27.18103,228525
27.19037,228053
27.19972,223214
27.20905,222393
27.21838,225860
27.22773,225373
27.23707,229108
27.2464,234231
27.25575,230665
27.26508,246145
27.27443,246904
27.28377,244902
27.2931,237074
27.30245,236215
27.31178,235873
27.32112,234632
27.33047,236542
27.3398,237230
27.34913,235919
27.35848,234095
27.36782,239128
27.37715,239524
27.3865,240838
27.39583,243677
27.40517,242151
27.41452,246629
27.42385,246852
27.43318,248601
27.44253,254665
27.45187,253393
27.46122,252352
27.47055,253011
27.47988,256487
27.48923,252069
27.49857,257406
27.5079,265142
27.51725,275114
27.52658,283783
27.53592,289774
27.54527,291204
27.5546,298325
27.56393,293164
27.57328,291258
27.58262,290859
27.59195,285080
27.6013,283696
27.61063,278473
27.61997,274773
27.62932,271510
27.63865,268318
27.648,267102
27.65733,274736
27.66667,272054
27.67602,276778
27.68535,283392
27.69468,282384
27.70403,284328
27.71337,281967
27.7227,281695
27.73205,282034
27.74138,284894
27.75072,281093
27.76007,284667
27.7694,282023
27.77873,285360
27.78808,285492
27.79742,284958
27.80677,291288
27.8161,290387
27.82543,289272
27.83478,290413
27.84412,291397
27.85345,290190
27.8628,290863
27.87213,301895
27.88147,297891
27.89082,297236
27.90015,301683
27.90948,298616
27.91883,299444
27.92817,304306
27.9375,304820
27.94685,306865
27.95618,302444
27.96552,302438
27.97487,306011
27.9842,304660
27.99355,304733
28.00288,307113
28.01222,306295
28.02157,306245
28.0309,310648
28.04023,312234
28.04958,312944
28.05892,310353
28.06825,317084
28.0776,316674
28.08693,319956
28.09627,318910
28.10562,322352
28.11495,321549
28.12428,331942
28.13363,336722
28.14297,337550
28.1523,336953
28.16165,333661
28.17098,337146
28.18033,337396
28.18967,339294
28.199,340960
28.20835,337090
28.21768,340105
28.22702,343153
28.23637,345485
28.2457,344626
28.25503,351739
28.26438,348268
28.27372,346759
28.28305,347070
28.2924,352016
28.30173,349181
28.31107,348094
28.32042,349151
28.32975,359089
28.33908,356534
28.34843,360337
28.35777,360277
28.36712,359985
28.37645,365849
28.38578,367997
28.39513,371411
28.40447,363755
28.4138,369276
28.42315,372749
28.43248,374707
28.44182,376316
28.45117,381075
28.4605,374553
28.46983,386357
28.47918,381509
28.48852,391388
28.49785,389906
28.5072,388138
28.51653,391077
28.52588,396950
28.53522,396882
28.54455,395522
28.5539,399076
28.56323,401107
28.57257,402567
28.58192,407449
28.59125,410015
28.60058,418075
28.60993,418162
28.61927,420748
28.6286,416366
28.63795,420453
28.64728,423009
28.65662,418503
28.66597,434487
28.6753,467821
28.68463,538880
28.69398,586575
28.70332,562489
28.71267,498691
28.722,457787
28.73133,441213
28.74068,441949
28.75002,443042
28.75935,446880
28.7687,446758
28.77803,449698
28.78737,443281
28.79672,453269
28.80605,461908
28.81538,461291
28.82473,460334
28.83407,470864
28.8434,468683
28.85275,472929
28.86208,484816
28.87142,486186
28.88077,498132
28.8901,501765
28.89945,506635
28.90878,505566
28.91812,513570
28.92747,504849
28.9368,510790
28.94613,504810
28.95548,511382
28.96482,512193
28.97415,510496
28.9835,521529
28.99283,511039
29.00217,511634
29.01152,497252
29.02085,500720
29.03018,505902
29.03953,504627
29.04887,507581
29.0582,504080
29.06755,504919
29.07688,493838
29.08623,495247
29.09557,498345
29.1049,496871
29.11425,486356
29.12358,498628
29.13292,493774
29.14227,489379
29.1516,489516
29.16093,481102
29.17028,486575
29.17962,477767
29.18895,479153
29.1983,481378
29.20763,494440
29.21697,500953
29.22632,496043
29.23565,481058
29.24498,477923
29.25433,476623
29.26367,469631
29.27302,476373
29.28235,469793
29.29168,472492
29.30103,474811
29.31037,468244
29.3197,471576
29.32905,472244
29.33838,470181
29.34772,471609
29.35707,470294
29.3664,467753
29.37573,473443
29.38508,472641
29.39442,460225
29.40375,471668
29.4131,462497
29.42243,475154
29.43178,468511
29.44112,473937
29.45045,476678
29.4598,468019
29.46913,486057
29.47847,492251
29.48782,489689
29.49715,483790
29.50648,471872
29.51583,469806
29.52517,463102
29.5345,459665
29.54385,464866
29.55318,470208
29.56252,461316
29.57187,459345
29.5812,466783
29.59053,466435
29.59988,463357
29.60922,467957
29.61857,469912
29.6279,464588
29.63723,458042
29.64658,465788
29.65592,464791
29.66525,463155
29.6746,463702
29.68393,474821
29.69327,465189
29.70262,469846
29.71195,466344
29.72128,472520
29.73063,469851
29.73997,468964
29.7493,481045
29.75865,471696
29.76798,470419
29.77732,475634
29.78667,474422
29.796,473570
29.80535,464563
29.81468,468378
29.82402,466297
29.83337,465154
29.8427,466417
29.85203,462114
29.86138,467373
29.87072,467027
29.88005,468375
29.8894,468659
29.89873,467027
29.90807,471231
29.91742,472940
29.92675,473791
29.93608,467167
29.94543,469950
29.95477,475574
29.9641,484660
29.97345,474488
29.98278,475609
29.99213,472772
30.00147,477648
30.0108,476988
30.02015,478340
30.02948,469028
30.03882,470533
30.04817,468915
30.0575,474810
30.06683,475982
30.07618,475882
30.08552,474873
30.09485,473579
30.1042,477124
30.11353,476434
30.12287,474105
30.13222,476005
30.14155,483289
30.1509,483817
30.16023,487364
30.16957,496393
30.17892,497321
30.18825,508332
30.19758,512633
30.20693,510224
30.21627,510984
30.2256,515313
30.23495,521862
30.24428,501486
30.25362,501819
30.26297,505171
30.2723,499539
30.28163,496755
30.29098,491677
30.30032,493755
30.30965,483567
30.319,491699
30.32833,489177
30.33768,484912
30.34702,487839
30.35635,477309
30.3657,486496
30.37503,482717
30.38437,485019
30.39372,491019
30.40305,510153
30.41238,529634
30.42173,531894
30.43107,533275
30.4404,518182
30.44975,490183
30.45908,489656
30.46842,487708
30.47777,480994
30.4871,484482
30.49643,487704
30.50578,494480
30.51512,488321
30.52447,491088
30.5338,480893
30.54313,478679
30.55248,482856
30.56182,475570
30.57115,479583
30.5805,483433
30.58983,482884
30.59917,492368
30.60852,486015
30.61785,490637
30.62718,482911
30.63653,489192
30.64587,498579
30.6552,507207
30.66455,511287
30.67388,514747
30.68322,509467
30.69257,504027
30.7019,501237
30.71125,493744
30.72058,493862
30.72992,480678
30.73927,484288
30.7486,483615
30.75793,488075
30.76728,479768
30.77662,477644
30.78595,484164
30.7953,488143
30.80463,495710
30.81397,495891
30.82332,492576
30.83265,490917
30.84198,491964
30.85133,488558
30.86067,491567
30.87,489004
30.87935,491789
30.88868,493301
30.89803,490693
30.90737,490085
30.9167,499250
30.92605,500201
30.93538,491069
30.94472,490824
30.95407,497078
30.9634,498111
30.97273,487288
30.98208,487203
30.99142,492378
31.00075,487958
31.0101,495938
31.01943,498173
31.02877,488433
31.03812,495742
31.04745,489994
31.05678,487932
31.06613,489572
31.07547,488051
31.08482,490014
31.09415,494184
31.10348,483824
31.11283,490445
31.12217,491072
31.1315,486824
31.14085,487365
31.15018,488264
31.15952,488688
31.16887,489708
31.1782,487903
31.18753,489368
31.19688,485476
31.20622,492086
31.21555,486416
31.2249,489222
31.23423,489491
31.24358,486026
31.25292,491556
31.26225,484143
31.2716,485811
31.28093,490106
31.29027,487831
31.29962,490941
31.30895,486145
31.31828,488505
31.32763,490226
31.33697,493448
31.3463,492233
31.35565,492840
31.36498,491507
