D:\数据\20211118\ZS1E-Z-000006.D Fri Nov 19 03:16:50 2021
Start of data points
0.09745,43154
0.10678,42862
0.11612,43094
0.12547,42086
0.13480,43116
0.14413,42377
0.15348,41224
0.16282,40801
0.17215,42352
0.18150,41682
0.19083,38953
0.20017,41845
0.20952,41392
0.21885,41135
0.22820,39725
0.23753,38550
0.24687,40585
0.25622,40014
0.26555,40827
0.27488,39396
0.28423,37959
0.29357,39480
0.30290,39526
0.31225,36754
0.32158,37442
0.33092,37218
0.34027,39119
0.34960,38139
0.35893,36667
0.36828,39080
0.37762,37509
0.38695,38495
0.39630,38551
0.40563,39644
0.41498,37173
0.42432,37974
0.43365,34742
0.44300,30413
0.45233,26510
0.46167,21693
0.47102,15929
0.48035,13161
0.48968,13571
0.49903,14112
0.50837,13828
0.51770,13358
0.52705,14267
0.53638,11786
0.54572,13360
0.55507,13501
0.56440,12515
0.57373,12329
0.58308,12644
0.59242,12957
0.60177,11439
0.61110,11923
0.62043,12141
0.62978,12061
0.63912,11714
0.64845,11766
0.65780,11432
0.66713,12028
0.67647,11553
0.68582,12786
0.69515,11149
0.70448,11237
0.71383,11089
0.72317,11847
0.73250,11187
0.74185,11330
0.75118,9706
0.76053,10818
0.76987,10875
0.77920,11118
0.78855,10181
0.79788,10352
0.80722,11716
0.81657,11479
0.82590,9752
0.83523,9882
0.84458,10309
0.85392,10235
0.86325,10640
0.87260,11286
0.88193,10336
0.89127,9400
0.90062,11043
0.90995,10698
0.91928,11054
0.92863,10282
0.93797,10840
0.94732,9903
0.95665,10299
0.96598,10995
0.97533,10808
0.98467,11400
0.99400,10521
1.00335,10909
1.01268,9937
1.02202,9700
1.03137,10325
1.04070,11413
1.05003,10645
1.05938,10940
1.06872,10293
1.07805,10883
1.08740,9939
1.09673,10296
1.10607,10180
1.11542,10585
1.12475,10196
1.13410,9672
1.14343,10632
1.15277,10869
1.16212,9949
1.17145,9389
1.18078,10389
1.19013,9841
1.19947,10199
1.20880,10467
1.21815,9328
1.22748,10072
1.23682,9874
1.24617,9213
1.25550,9033
1.26483,9336
1.27418,8581
1.28352,9823
1.29285,9546
1.30220,8700
1.31153,9974
1.32088,9344
1.33022,9127
1.33955,9780
1.34890,9558
1.35823,8485
1.36757,10797
1.37692,8526
1.38625,9657
1.39558,9564
1.40493,10638
1.41427,10024
1.42360,10188
1.43295,9083
1.44228,10000
1.45162,9802
1.46097,8849
1.47030,9316
1.47965,8639
1.48898,8860
1.49832,8870
1.50767,9824
1.51700,8565
1.52633,9168
1.53568,8439
1.54502,8316
1.55435,8459
1.56370,9043
1.57303,9229
1.58237,9508
1.59172,9923
1.60105,12912
1.61038,20220
1.61973,28222
1.62907,32930
1.63840,42766
1.64775,56362
1.65708,69344
1.66643,70612
1.67577,64706
1.68510,59429
1.69445,51057
1.70378,42149
1.71312,31015
1.72247,28498
1.73180,30623
1.74113,33791
1.75048,36023
1.75982,43618
1.76915,51715
1.77850,53800
1.78783,55316
1.79717,56207
1.80652,51716
1.81585,53396
1.82518,49387
1.83453,49378
1.84387,48207
1.85322,48254
1.86255,48880
1.87188,59766
1.88123,94113
1.89057,155797
1.89990,211489
1.90925,236183
1.91858,329576
1.92792,688817
1.93727,1523708
1.94660,2725767
1.95593,3521343
1.96528,3309694
1.97462,2574753
1.98395,1872052
1.99330,1390365
2.00263,1137268
2.01197,964275
2.02132,848121
2.03065,706837
2.04000,540756
2.04933,397299
2.05867,290395
2.06802,221368
2.07735,173141
2.08668,145565
2.09603,148820
2.10537,154617
2.11470,136830
2.12405,122148
2.13338,168438
2.14272,290644
2.15207,291672
2.16140,221318
2.17073,169793
2.18008,155035
2.18942,195106
2.19875,252603
2.20810,217847
2.21743,157316
2.22678,127984
2.23612,155824
2.24545,272016
2.25480,872145
2.26413,2495201
2.27347,3019195
2.28282,2278871
2.29215,1451627
2.30148,924031
2.31083,1427020
2.32017,3870913
2.32950,5021620
2.33885,3255496
2.34818,1516871
2.35752,682051
2.36687,363321
2.37620,254826
2.38555,246700
2.39488,235726
2.40422,211335
2.41357,188412
2.42290,178920
2.43223,192629
2.44158,188741
2.45092,154770
2.46025,136501
2.46960,153744
2.47893,183112
2.48827,170259
2.49762,144564
2.50695,122632
2.51628,107455
2.52563,102908
2.53497,101072
2.54430,101185
2.55365,111769
2.56298,140773
2.57233,281372
2.58167,405917
2.59100,350242
2.60035,258987
2.60968,202604
2.61902,202956
2.62837,379111
2.63770,452355
2.64703,373274
2.65638,289096
2.66572,224176
2.67505,170746
2.68440,135743
2.69373,109260
2.70307,98893
2.71242,95380
2.72175,109278
2.73108,141632
2.74043,181696
2.74977,209342
2.75912,222464
2.76845,215212
2.77778,226792
2.78713,278644
2.79647,327326
2.80580,307353
2.81515,269538
2.82448,242251
2.83382,217253
2.84317,184121
2.85250,152955
2.86183,149218
2.87118,194630
2.88052,252871
2.88985,230205
2.89920,177922
2.90853,135132
2.91787,115866
2.92722,107404
2.93655,101522
2.94590,92173
2.95523,83327
2.96457,83899
2.97392,79513
2.98325,76398
2.99258,76247
3.00193,85466
3.01127,108397
3.02060,127654
3.02995,128316
3.03928,147551
3.04862,203957
3.05797,208056
3.06730,191930
3.07663,200134
3.08598,193973
3.09532,157418
3.10467,117540
3.11400,91578
3.12333,80092
3.13268,77075
3.14202,76573
3.15135,80501
3.16070,85613
3.17003,96226
3.17937,111972
3.18872,104270
3.19805,93228
3.20738,88301
3.21673,82355
3.22607,78727
3.23540,74189
3.24475,69221
3.25408,73036
3.26342,74243
3.27277,77384
3.28210,71117
3.29145,71336
3.30078,72157
3.31012,80536
3.31947,79450
3.32880,76740
3.33813,74638
3.34748,73003
3.35682,71773
3.36615,72437
3.37550,69616
3.38483,65427
3.39417,63888
3.40352,63944
3.41285,72112
3.42218,82853
3.43153,90023
3.44087,89845
3.45020,99493
3.45955,108787
3.46888,104722
3.47823,93697
3.48757,86858
3.49690,83910
3.50625,78197
3.51558,74379
3.52492,72561
3.53427,69754
3.54360,65061
3.55293,83209
3.56228,167924
3.57162,398180
3.58095,609704
3.59030,543408
3.59963,333993
3.60897,214268
3.61832,255787
3.62765,209123
3.63698,165661
3.64633,135721
3.65567,117187
3.66502,105534
3.67435,110401
3.68368,121894
3.69303,121708
3.70237,103853
3.71170,88811
3.72105,84272
3.73038,92874
3.73972,107243
3.74907,104931
3.75840,90949
3.76773,79994
3.77708,72794
3.78642,67039
3.79575,65291
3.80510,77173
3.81443,165301
3.82377,469746
3.83312,833823
3.84245,810287
3.85180,520044
3.86113,296776
3.87047,166618
3.87982,111230
3.88915,94616
3.89848,98419
3.90783,111352
3.91717,116844
3.92650,113673
3.93585,109394
3.94518,117963
3.95452,157109
3.96387,168925
3.97320,144958
3.98253,110511
3.99188,87664
4.00122,73282
4.01055,102374
4.01990,108266
4.02923,105522
4.03858,105767
4.04792,125404
4.05725,154444
4.06660,168455
4.07593,170673
4.08527,186806
4.09462,196621
4.10395,190865
4.11328,176035
4.12263,145853
4.13197,116537
4.14130,93309
4.15065,84840
4.15998,82946
4.16932,82734
4.17867,74203
4.18800,72175
4.19735,70914
4.20668,72339
4.21602,77619
4.22537,80174
4.23470,74571
4.24403,70662
4.25338,70329
4.26272,69794
4.27205,74666
4.28140,101340
4.29073,109741
4.30007,100548
4.30942,89135
4.31875,82817
4.32808,83781
4.33743,92491
4.34677,97715
4.35610,93183
4.36545,83190
4.37478,71640
4.38413,70805
4.39347,75552
4.40280,77613
4.41215,70662
4.42148,66983
4.43082,63323
4.44017,63477
4.44950,64234
4.45883,60929
4.46818,65548
4.47752,73060
4.48685,91042
4.49620,108253
4.50553,104226
4.51487,84789
4.52422,71570
4.53355,69356
4.54288,70782
4.55223,70605
4.56157,70967
4.57092,71597
4.58025,72929
4.58958,72813
4.59893,68490
4.60827,69604
4.61760,63706
4.62695,63513
4.63628,60596
4.64562,67089
4.65497,74552
4.66430,79288
4.67363,80176
4.68298,78355
4.69232,75729
4.70165,75456
4.71100,76891
4.72033,71965
4.72967,74574
4.73902,98022
4.74835,100618
4.75770,93605
4.76703,83378
4.77637,74011
4.78572,73025
4.79505,75147
4.80438,77388
4.81373,77382
4.82307,76137
4.83240,77657
4.84175,81980
4.85108,83660
4.86042,84872
4.86977,110177
4.87910,189305
4.88843,279947
4.89778,273796
4.90712,199743
4.91647,138466
4.92580,108218
4.93513,93053
4.94448,85246
4.95382,80022
4.96315,74276
4.97250,66500
4.98183,63584
4.99117,65370
5.00052,66619
5.00985,68513
5.01918,72181
5.02853,75473
5.03787,75654
5.04720,76651
5.05655,74488
5.06588,69413
5.07522,70194
5.08457,74613
5.09390,74536
5.10325,73201
5.11258,69665
5.12192,68113
5.13127,62550
5.14060,74467
5.14993,94665
5.15928,117245
5.16862,110281
5.17795,96513
5.18730,101825
5.19663,126224
5.20597,124518
5.21532,102586
5.22465,84703
5.23398,74146
5.24333,77914
5.25267,78845
5.26200,76670
5.27135,96428
5.28068,200113
5.29003,456564
5.29937,682296
5.30870,605116
5.31805,373681
5.32738,230855
5.33672,178943
5.34607,142519
5.35540,105709
5.36473,82914
5.37408,74538
5.38342,82237
5.39275,108525
5.40210,130495
5.41143,127789
5.42077,110916
5.43012,95286
5.43945,81131
5.44878,66077
5.45813,58366
5.46747,58890
5.47682,58093
5.48615,60657
5.49548,62742
5.50483,64439
5.51417,71044
5.52350,79893
5.53285,105924
5.54218,129407
5.55152,124667
5.56087,102503
5.57020,82479
5.57953,70093
5.58888,66651
5.59822,64719
5.60755,65691
5.61690,61465
5.62623,60551
5.63557,58916
5.64492,58983
5.65425,62964
5.66360,72678
5.67293,100779
5.68227,116380
5.69162,102835
5.70095,86650
5.71028,82527
5.71963,84114
5.72897,82838
5.73830,77519
5.74765,89770
5.75698,110348
5.76632,136467
5.77567,150916
5.78500,126344
5.79433,90387
5.80368,70777
5.81302,63410
5.82237,87441
5.83170,187943
5.84103,287216
5.85038,255026
5.85972,170877
5.86905,117436
5.87840,92359
5.88773,79305
5.89707,76141
5.90642,84381
5.91575,145539
5.92508,286427
5.93443,395267
5.94377,351763
5.95310,259375
5.96245,188476
5.97178,129394
5.98112,83509
5.99047,56216
5.99980,46440
6.00915,43479
6.01848,40913
6.02782,38955
6.03717,38163
6.04650,38405
6.05583,38157
6.06518,40513
6.07452,42084
6.08385,41074
6.09320,37122
6.10253,34050
6.11187,34419
6.12122,35536
6.13055,46006
6.13988,62183
6.14923,65234
6.15857,54727
6.16790,42038
6.17725,36072
6.18658,35474
6.19593,34961
6.20527,34014
6.21460,33037
6.22395,33296
6.23328,41803
6.24262,48368
6.25197,46492
6.26130,44077
6.27063,56424
6.27998,89592
6.28932,95795
6.29865,75006
6.30800,50952
6.31733,37535
6.32667,32530
6.33602,32480
6.34535,32675
6.35468,35495
6.36403,35623
6.37337,43094
6.38272,58595
6.39205,121449
6.40138,430467
6.41073,1584095
6.42007,3141919
6.42940,3238872
6.43875,1918906
6.44808,716492
6.45742,229311
6.46677,95149
6.47610,61245
6.48543,51398
6.49478,41342
6.50412,40147
6.51345,38577
6.52280,40277
6.53213,37415
6.54148,37329
6.55082,36330
6.56015,33578
6.56950,32005
6.57883,34226
6.58817,35508
6.59752,38748
6.60685,46018
6.61618,45651
6.62553,45677
6.63487,43770
6.64420,43652
6.65355,43452
6.66288,44967
6.67222,42986
6.68157,40808
6.69090,40969
6.70023,56510
6.70958,61635
6.71892,58505
6.72827,50258
6.73760,44322
6.74693,37037
6.75628,35904
6.76562,35220
6.77495,32981
6.78430,38674
6.79363,43697
6.80297,49803
6.81232,53085
6.82165,47678
6.83098,38723
6.84033,36641
6.84967,37054
6.85900,40280
6.86835,38884
6.87768,34400
6.88702,33746
6.89637,33906
6.90570,35629
6.91505,42086
6.92438,41909
6.93372,39339
6.94307,36817
6.95240,36848
6.96173,38181
6.97108,39806
6.98042,43287
6.98975,41399
6.99910,40699
7.00843,36132
7.01777,32071
7.02712,33612
7.03645,30988
7.04578,28495
7.05513,25541
7.06447,27926
7.07380,28860
7.08315,29282
7.09248,33873
7.10183,37106
7.11117,42861
7.12050,51135
7.12985,49247
7.13918,39014
7.14852,34469
7.15787,30216
7.16720,29267
7.17653,28441
7.18588,28012
7.19522,31533
7.20455,31503
7.21390,32226
7.22323,38153
7.23257,57776
7.24192,109754
7.25125,151988
7.26058,139054
7.26993,94296
7.27927,67451
7.28862,61012
7.29795,55371
7.30728,49537
7.31663,39487
7.32597,34108
7.33530,32558
7.34465,31051
7.35398,29999
7.36332,30022
7.37267,30565
7.38200,27859
7.39133,43555
7.40068,97763
7.41002,212966
7.41935,310776
7.42870,290570
7.43803,192804
7.44737,101822
7.45672,55396
7.46605,38546
7.47540,35848
7.48473,42525
7.49407,49425
7.50342,50014
7.51275,39175
7.52208,35166
7.53143,31681
7.54077,28856
7.55010,29137
7.55945,32177
7.56878,35723
7.57812,40720
7.58747,41330
7.59680,42997
7.60613,43783
7.61548,44068
7.62482,45657
7.63417,45228
7.64350,44583
7.65283,39039
7.66218,35452
7.67152,37675
7.68085,37313
7.69020,39815
7.69953,41483
7.70887,55234
7.71822,64238
7.72755,55522
7.73688,46334
7.74623,43870
7.75557,49682
7.76490,52311
7.77425,50856
7.78358,49685
7.79292,52618
7.80227,50839
7.81160,40634
7.82095,34594
7.83028,34854
7.83962,33853
7.84897,39405
7.85830,57715
7.86763,110146
7.87698,169155
7.88632,184040
7.89565,136785
7.90500,93579
7.91433,97432
7.92367,142328
7.93302,170164
7.94235,148792
7.95168,130631
7.96103,134455
7.97037,135194
7.97970,165433
7.98905,257861
7.99838,293321
8.00773,212421
8.01707,121731
8.02640,77535
8.03575,65526
8.04508,74802
8.05442,90953
8.06377,81662
8.07310,60873
8.08243,53012
8.09178,69559
8.10112,106855
8.11045,126830
8.11980,105294
8.12913,75534
8.13847,58961
8.14782,55410
8.15715,55358
8.16648,50595
8.17583,47640
8.18517,45209
8.19452,46926
8.20385,45359
8.21318,44989
8.22253,47396
8.23187,49377
8.24120,54234
8.25055,58550
8.25988,62066
8.26922,61809
8.27857,53417
8.28790,47009
8.29723,41153
8.30658,42663
8.31592,43316
8.32525,42111
8.33460,40849
8.34393,42106
8.35328,39582
8.36262,37162
8.37195,38137
8.38130,43727
8.39063,54009
8.39997,56997
8.40932,57404
8.41865,60792
8.42798,63323
8.43733,60748
8.44667,55646
8.45600,51607
8.46535,49117
8.47468,50547
8.48402,48897
8.49337,47549
8.50270,46739
8.51203,45191
8.52138,42897
8.53072,43142
8.54007,43520
8.54940,54326
8.55873,70054
8.56808,73900
8.57742,73831
8.58675,61680
8.59610,56633
8.60543,54990
8.61477,54360
8.62412,53474
8.63345,52672
8.64278,47983
8.65213,45569
8.66147,45628
8.67080,47904
8.68015,49984
8.68948,49328
8.69882,48335
8.70817,52403
8.71750,50182
8.72685,48219
8.73618,43506
8.74552,56538
8.75487,90509
8.76420,119825
8.77353,111640
8.78288,77682
8.79222,63267
8.80155,64442
8.81090,76061
8.82023,89485
8.82957,89618
8.83892,66812
8.84825,49588
8.85758,44591
8.86693,48377
8.87627,54931
8.88560,65790
8.89495,65871
8.90428,60654
8.91363,56044
8.92297,57100
8.93230,60976
8.94165,64574
8.95098,63447
8.96032,52807
8.96967,51423
8.97900,54669
8.98833,53902
8.99768,50389
9.00702,52991
9.01635,55893
9.02570,53747
9.03503,50708
9.04437,52329
9.05372,59364
9.06305,65725
9.07238,74411
9.08173,90096
9.09107,108256
9.10042,118346
9.10975,108552
9.11908,78299
9.12843,60731
9.13777,56790
9.14710,59615
9.15645,55959
9.16578,49939
9.17512,48739
9.18447,49263
9.19380,50733
9.20313,52935
9.21248,68716
9.22182,105719
9.23115,197401
9.24050,284354
9.24983,276609
9.25918,188864
9.26852,111693
9.27785,75269
9.28720,64146
9.29653,60644
9.30587,55330
9.31522,60129
9.32455,80359
9.33388,133283
9.34323,181548
9.35257,154201
9.36190,133820
9.37125,225595
9.38058,361301
9.38992,387597
9.39927,285331
9.40860,178388
9.41793,120108
9.42728,108613
9.43662,105982
9.44597,87546
9.45530,64292
9.46463,50117
9.47398,42793
9.48332,44852
9.49265,54992
9.50200,76096
9.51133,93527
9.52067,85595
9.53002,76977
9.53935,74859
9.54868,80888
9.55803,107657
9.56737,173793
9.57670,240210
9.58605,240524
9.59538,195521
9.60472,162032
9.61407,147455
9.62340,117613
9.63275,87520
9.64208,78109
9.65142,69940
9.66077,61873
9.67010,59882
9.67943,59530
9.68878,62216
9.69812,64054
9.70745,57542
9.71680,53537
9.72613,108453
9.73547,477225
9.74482,1527789
9.75415,2647157
9.76348,2622830
9.77283,1522681
9.78217,643279
9.79150,302212
9.80085,196638
9.81018,153266
9.81953,135499
9.82887,148920
9.83820,190880
9.84755,238512
9.85688,277460
9.86622,245873
9.87557,171258
9.88490,140967
9.89423,159983
9.90358,194693
9.91292,285638
9.92225,593673
9.93160,786239
9.94093,604715
9.95027,303640
9.95962,138209
9.96895,88176
9.97830,117457
9.98763,287589
9.99697,522146
10.00632,576675
10.01565,362380
10.02498,175100
10.03433,95384
10.04367,76818
10.05300,72614
10.06235,78656
10.07168,95235
10.08102,116727
10.09037,129738
10.09970,131929
10.10903,215122
10.11838,1120202
10.12772,4691367
10.13705,9857543
10.14640,1.092125E+07
10.15573,7110011
10.16508,5390841
10.17442,7903175
10.18375,8800210
10.19310,4912907
10.20243,1321929
10.21177,247877
10.22112,109924
10.23045,101199
10.23978,121025
10.24913,169004
10.25847,180271
10.26780,139060
10.27715,99466
10.28648,78120
10.29582,71837
10.30517,71133
10.31450,70578
10.32383,73687
10.33318,74372
10.34252,72362
10.35187,66199
10.36120,63659
10.37053,62010
10.37988,61268
10.38922,54977
10.39855,50069
10.40790,50833
10.41723,55510
10.42657,59925
10.43592,59221
10.44525,55281
10.45458,58683
10.46393,67869
10.47327,85431
10.48260,86727
10.49195,71300
10.50128,55675
10.51062,50556
10.51997,49286
10.52930,47702
10.53865,51081
10.54798,53122
10.55732,57743
10.56667,63719
10.57600,69850
10.58533,73464
10.59468,71039
10.60402,61598
10.61335,55791
10.62270,54284
10.63203,63361
10.64137,84889
10.65072,101886
10.66005,84887
10.66938,62298
10.67873,64225
10.68807,68612
10.69740,72294
10.70675,64550
10.71608,63683
10.72543,81770
10.73477,87880
10.74410,78704
10.75345,83717
10.76278,130506
10.77212,207926
10.78147,210801
10.79080,157091
10.80013,128196
10.80948,149924
10.81882,172602
10.82815,152358
10.83750,101884
10.84683,75795
10.85617,63743
10.86552,60514
10.87485,63874
10.88418,71826
10.89353,80969
10.90287,80642
10.91222,72649
10.92155,65301
10.93088,71944
10.94023,82543
10.94957,79194
10.95890,67827
10.96825,60226
10.97758,59037
10.98692,55328
10.99627,52011
11.00560,50187
11.01493,52537
11.02428,47587
11.03362,48505
11.04295,47090
11.05230,48451
11.06163,46791
11.07098,47852
11.08032,46424
11.08965,50515
11.09900,53912
11.10833,61815
11.11767,73783
11.12702,83779
11.13635,71615
11.14568,61924
11.15503,62045
11.16437,59978
11.17370,54690
11.18305,50770
11.19238,50604
11.20172,47706
11.21107,50724
11.22040,53145
11.22973,56836
11.23908,57355
11.24842,55053
11.25777,53860
11.26710,56841
11.27643,68170
11.28578,63279
11.29512,55729
11.30445,52814
11.31380,54247
11.32313,50090
11.33247,55051
11.34182,74362
11.35115,108549
11.36048,146056
11.36983,153078
11.37917,124709
11.38850,97758
11.39785,78441
11.40718,89248
11.41652,95618
11.42587,90048
11.43520,70561
11.44455,56547
11.45388,56956
11.46322,63599
11.47257,93183
11.48190,123979
11.49123,117543
11.50058,81980
11.50992,61933
11.51925,54166
11.52860,52551
11.53793,52427
11.54727,55734
11.55662,67975
11.56595,98465
11.57528,168815
11.58463,255397
11.59397,270577
11.60330,208802
11.61265,150323
11.62198,119022
11.63133,114450
11.64067,114181
11.65000,112255
11.65935,113664
11.66868,120559
11.67802,112557
11.68737,92368
11.69670,76716
11.70603,70333
11.71538,66729
11.72472,67478
11.73405,66636
11.74340,66492
11.75273,66804
11.76207,67944
11.77142,69390
11.78075,72391
11.79010,79624
11.79943,90931
11.80877,81474
11.81812,66250
11.82745,63161
11.83678,68772
11.84613,73807
11.85547,77706
11.86480,76205
11.87415,73793
11.88348,80152
11.89282,84259
11.90217,81034
11.91150,81602
11.92083,79294
11.93018,72789
11.93952,74623
11.94885,94916
11.95820,114156
11.96753,105554
11.97688,86340
11.98622,73387
11.99555,69043
12.00490,75128
12.01423,96319
12.02357,134670
12.03292,145933
12.04225,121998
12.05158,95926
12.06093,82072
12.07027,71196
12.07960,65343
12.08895,65565
12.09828,66931
12.10762,70764
12.11697,71492
12.12630,68884
12.13563,67941
12.14498,67753
12.15432,70597
12.16367,79732
12.17300,130449
12.18233,259626
12.19168,340610
12.20102,277064
12.21035,141771
12.21970,83517
12.22903,84474
12.23837,112140
12.24772,125829
12.25705,107198
12.26638,98960
12.27573,168725
12.28507,322202
12.29440,406452
12.30375,311073
12.31308,164715
12.32242,93992
12.33177,84162
12.34110,92255
12.35045,106412
12.35978,101522
12.36912,84437
12.37847,74512
12.38780,88896
12.39713,124906
12.40648,176764
12.41582,185014
12.42515,145729
12.43450,118929
12.44383,100196
12.45317,88937
12.46252,93180
12.47185,101057
12.48118,107756
12.49053,108590
12.49987,107879
12.50920,109728
12.51855,105171
12.52788,108136
12.53723,109378
12.54657,108737
12.55590,98506
12.56525,97031
12.57458,127371
12.58392,174682
12.59327,212499
12.60260,205186
12.61193,151235
12.62128,104153
12.63062,91523
12.63995,97248
12.64930,116041
12.65863,124376
12.66797,116016
12.67732,102101
12.68665,89408
12.69600,75330
12.70533,69101
12.71467,73560
12.72402,85105
12.73335,95257
12.74268,92989
12.75203,97474
12.76137,111922
12.77070,119039
12.78005,100645
12.78938,81511
12.79872,69357
12.80807,73730
12.81740,73017
12.82673,75696
12.83608,79525
12.84542,82049
12.85475,80456
12.86410,75570
12.87343,75407
12.88278,74004
12.89212,71203
12.90145,77335
12.91080,80846
12.92013,74300
12.92947,64413
12.93882,66445
12.94815,75494
12.95748,85706
12.96683,86138
12.97617,75957
12.98550,65993
12.99485,58071
13.00418,56048
13.01352,57165
13.02287,60592
13.03220,74503
13.04153,93825
13.05088,103976
13.06022,95091
13.06957,96936
13.07890,125444
13.08823,140600
13.09758,117347
13.10692,89662
13.11625,76630
13.12560,74806
13.13493,73945
13.14427,87148
13.15362,98171
13.16295,109999
13.17228,135599
13.18163,176178
13.19097,289946
13.20030,1174116
13.20965,5036350
13.21898,1.237949E+07
13.22832,1.638584E+07
13.23767,1.185098E+07
13.24700,4504255
13.25635,1094256
13.26568,377171
13.27502,217229
13.28437,149923
13.29370,125458
13.30303,107181
13.31238,100544
13.32172,106400
13.33105,117988
13.34040,120198
13.34973,110454
13.35907,106715
13.36842,99650
13.37775,93470
13.38708,82996
13.39643,88395
13.40577,116978
13.41512,136179
13.42445,115207
13.43378,86251
13.44313,89261
13.45247,109522
13.46180,115313
13.47115,97694
13.48048,90688
13.48982,89699
13.49917,84026
13.50850,76072
13.51783,89769
13.52718,156846
13.53652,284099
13.54585,331176
13.55520,223865
13.56453,111573
13.57387,75031
13.58322,67553
13.59255,64284
13.60190,61404
13.61123,61793
13.62057,62967
13.62992,62227
13.63925,66123
13.64858,69168
13.65793,71232
13.66727,73118
13.67660,74313
13.68595,71396
13.69528,72997
13.70462,85243
13.71397,92073
13.72330,84765
13.73263,68755
13.74198,58339
13.75132,52505
13.76065,55934
13.77000,61413
13.77933,61139
13.78868,57743
13.79802,60563
13.80735,75554
13.81670,88218
13.82603,91686
13.83537,74581
13.84472,65054
13.85405,62377
13.86338,65637
13.87273,72899
13.88207,79131
13.89140,88138
13.90075,122715
13.91008,212021
13.91942,448084
13.92877,752036
13.93810,721880
13.94743,407587
13.95678,173007
13.96612,112203
13.97547,96386
13.98480,83176
13.99413,77196
14.00348,76752
14.01282,76478
14.02215,73558
14.03150,64804
14.04083,71393
14.05017,151270
14.05952,869423
14.06885,4119835
14.07818,1.061329E+07
14.08753,1.743445E+07
14.09687,1.635236E+07
14.10620,6929148
14.11555,1182712
14.12488,185180
14.13422,97770
14.14357,89523
14.15290,89550
14.16225,94263
14.17158,108164
14.18092,125695
14.19027,154601
14.19960,242991
14.20893,320561
14.21828,264292
14.22762,151916
14.23695,83539
14.24630,60555
14.25563,55258
14.26497,58502
14.27432,70373
14.28365,76688
14.29298,73842
14.30233,64019
14.31167,61367
14.32100,78367
14.33035,120653
14.33968,161424
14.34903,157197
14.35837,119804
14.36770,90722
14.37705,71318
14.38638,64759
14.39572,62299
14.40507,66591
14.41440,65388
14.42373,59025
14.43308,54871
14.44242,57227
14.45175,75672
14.46110,118273
14.47043,177550
14.47977,209295
14.48912,183640
14.49845,129254
14.50780,99864
14.51713,152769
14.52647,301518
14.53582,400244
14.54515,301991
14.55448,149832
14.56383,85330
14.57317,72767
14.58250,71709
14.59185,68298
14.60118,65224
14.61052,59257
14.61987,58263
14.62920,62049
14.63853,77839
14.64788,126077
14.65722,205849
14.66655,247267
14.67590,211496
14.68523,140288
14.69458,91639
14.70392,69871
14.71325,64101
14.72260,56127
14.73193,62053
14.74127,62263
14.75062,65389
14.75995,63522
14.76928,65351
14.77863,69535
14.78797,84748
14.79730,111922
14.80665,150206
14.81598,158982
14.82532,144651
14.83467,311451
14.84400,2296537
14.85333,1.206514E+07
14.86268,3.109028E+07
14.87202,4.649442E+07
14.88137,4.711589E+07
14.89070,2.813638E+07
14.90003,6786702
14.90938,812742
14.91872,152935
14.92805,90600
14.93740,81068
14.94673,82175
14.95607,87119
14.96542,94811
14.97475,109711
14.98408,121285
14.99343,112306
15.00277,93737
15.01210,95045
15.02145,109971
15.03078,108917
15.04012,90823
15.04947,90659
15.05880,102200
15.06815,110218
15.07748,114577
15.08682,118383
15.09617,95878
15.10550,73171
15.11483,65131
15.12418,71545
15.13352,93610
15.14285,121854
15.15220,122802
15.16153,96222
15.17087,70849
15.18022,62263
15.18955,66662
15.19888,80465
15.20823,115120
15.21757,174076
15.22692,258230
15.23625,313005
15.24558,277104
15.25493,220798
15.26427,145956
15.27360,93597
15.28295,76724
15.29228,75846
15.30162,70295
15.31097,71546
15.32030,65778
15.32963,68886
15.33898,83648
15.34832,91301
15.35765,88966
15.36700,87903
15.37633,99530
15.38567,115105
15.39502,109387
15.40435,79893
15.41370,64010
15.42303,65205
15.43237,71381
15.44172,81021
15.45105,75919
15.46038,66445
15.46973,63307
15.47907,67161
15.48840,67498
15.49775,73317
15.50708,84071
15.51642,127651
15.52577,199299
15.53510,244272
15.54443,197249
15.55378,124195
15.56312,77981
15.57245,61797
15.58180,58736
15.59113,58946
15.60048,62868
15.60982,65271
15.61915,74145
15.62850,81163
15.63783,96877
15.64717,107003
15.65652,111132
15.66585,113199
15.67518,124614
15.68453,112717
15.69387,86640
15.70320,90980
15.71255,124469
15.72188,144674
15.73122,124105
15.74057,85983
15.74990,82555
15.75923,104239
15.76858,126143
15.77792,124536
15.78727,106640
15.79660,84571
15.80593,78246
15.81528,100382
15.82462,176537
15.83395,322259
15.84330,507198
15.85263,612263
15.86197,540469
15.87132,314396
15.88065,154800
15.88998,128382
15.89933,147309
15.90867,167212
15.91800,162206
15.92735,129414
15.93668,103470
15.94602,80233
15.95537,71299
15.96470,70799
15.97405,76624
15.98338,102238
15.99272,141999
16.00207,189518
16.01140,185517
16.02073,135430
16.03008,87382
16.03942,70699
16.04875,80407
16.05810,97863
16.06743,93363
16.07677,87108
16.08612,77772
16.09545,71648
16.10478,69980
16.11413,73578
16.12347,88400
16.13280,101780
16.14215,97514
16.15148,84026
16.16083,73543
16.17017,74786
16.17950,71499
16.18885,77105
16.19818,96634
16.20752,125732
16.21687,149749
16.22620,150006
16.23553,134285
16.24488,114052
16.25422,98887
16.26355,91344
16.27290,161217
16.28223,749578
16.29157,3656528
16.30092,1.057882E+07
16.31025,1.732572E+07
16.31960,1.595393E+07
16.32893,8018248
16.33827,2149428
16.34762,387253
16.35695,107131
16.36628,76248
16.37563,76390
16.38497,88884
16.39430,92637
16.40365,82285
16.41298,72563
16.42232,69055
16.43167,71058
16.44100,69627
16.45033,71536
16.45968,86457
16.46902,107151
16.47835,106745
16.48770,91476
16.49703,80734
16.50638,74735
16.51572,77372
16.52505,84405
16.53440,82775
16.54373,81914
16.55307,79329
16.56242,67840
16.57175,66182
16.58108,65221
16.59043,75650
16.59977,79582
16.60910,76122
16.61845,66489
16.62778,75754
16.63712,96225
16.64647,104214
16.65580,103283
16.66513,90500
16.67448,79379
16.68382,72384
16.69317,78540
16.70250,97060
16.71183,109388
16.72118,97081
16.73052,80216
16.73985,73106
16.74920,115753
16.75853,207834
16.76787,251852
16.77722,190474
16.78655,107985
16.79588,73937
16.80523,66435
16.81457,68769
16.82390,77867
16.83325,87330
16.84258,100819
16.85192,103568
16.86127,98745
16.87060,80660
16.87995,70024
16.88928,65554
16.89862,64637
16.90797,71985
16.91730,93665
16.92663,123848
16.93598,126949
16.94532,102778
16.95465,95261
16.96400,106463
16.97333,114511
16.98267,112101
16.99202,98914
17.00135,81712
17.01068,69298
17.02003,68336
17.02937,88084
17.03872,138370
17.04805,184785
17.05738,166341
17.06673,116669
17.07607,94481
17.08540,87176
17.09475,84465
17.10408,83799
17.11342,75958
17.12277,66726
17.13210,63802
17.14143,73549
17.15078,83058
17.16012,79596
17.16945,67248
17.17880,63338
17.18813,65685
17.19747,70238
17.20682,68296
17.21615,62224
17.22550,58466
17.23483,57441
17.24417,59622
17.25352,60882
17.26285,65502
17.27218,68391
17.28153,76623
17.29087,84473
17.30020,92498
17.30955,84597
17.31888,82265
17.32822,88702
17.33757,94573
17.34690,88596
17.35623,79272
17.36558,72717
17.37492,85626
17.38425,162806
17.39360,346998
17.40293,451661
17.41228,349531
17.42162,206281
17.43095,152695
17.44030,132826
17.44963,118528
17.45897,110788
17.46832,96966
17.47765,85838
17.48698,105677
17.49633,312871
17.50567,1303285
17.51500,3718487
17.52435,6200262
17.53368,6239213
17.54302,3372079
17.55237,1127509
17.56170,530050
17.57103,341487
17.58038,191353
17.58972,125609
17.59907,113891
17.60840,102185
17.61773,84879
17.62708,80406
17.63642,82989
17.64575,81200
17.65510,81166
17.66443,92153
17.67377,113102
17.68312,130568
17.69245,182510
17.70178,737618
17.71113,4924624
17.72047,1.951232E+07
17.72980,4.079651E+07
17.73915,5.902471E+07
17.74848,7.182937E+07
17.75782,7.94334E+07
17.76717,7.760558E+07
17.77650,4.574682E+07
17.78585,5853162
17.79518,424702
17.80452,240714
17.81387,218956
17.82320,161756
17.83253,109763
17.84188,93047
17.85122,98842
17.86055,107159
17.86990,128119
17.87923,140559
17.88857,124578
17.89792,113753
17.90725,110237
17.91658,99934
17.92593,88925
17.93527,86831
17.94462,89900
17.95395,88501
17.96328,82273
17.97263,77196
17.98197,75482
17.99130,72897
18.00065,69044
18.00998,69508
18.01932,75776
18.02867,76832
18.03800,79230
18.04733,81360
18.05668,81957
18.06602,83586
18.07535,84350
18.08470,77104
18.09403,70330
18.10337,72683
18.11272,87998
18.12205,104169
18.13140,115271
18.14073,107668
18.15007,97447
18.15942,97819
18.16875,96797
18.17808,92311
18.18743,88830
18.19677,79978
18.20610,78128
18.21545,76380
18.22478,77940
18.23412,79624
18.24347,84395
18.25280,79240
18.26213,71273
18.27148,67411
18.28082,77562
18.29015,87843
18.29950,101412
18.30883,110920
18.31818,119713
18.32752,118165
18.33685,111939
18.34620,108891
18.35553,121082
18.36487,137620
18.37422,146740
18.38355,137463
18.39288,124767
18.40223,143440
18.41157,205436
18.42090,248296
18.43025,207810
18.43958,132643
18.44892,104396
18.45827,108508
18.46760,113129
18.47693,98056
18.48628,89872
18.49562,101212
18.50497,126566
18.51430,174155
18.52363,209680
18.53298,193555
18.54232,144788
18.55165,112424
18.56100,118584
18.57033,118971
18.57967,111247
18.58902,89038
18.59835,79239
18.60768,81288
18.61703,98626
18.62637,124100
18.63570,134543
18.64505,124739
18.65438,110024
18.66373,99139
18.67307,99520
18.68240,103180
18.69175,104972
18.70108,101984
18.71042,106699
18.71977,121247
18.72910,125541
18.73843,119581
18.74778,107807
18.75712,99166
18.76645,97528
18.77580,94164
18.78513,85514
18.79447,80133
18.80382,75966
18.81315,75113
18.82248,77491
18.83183,77420
18.84117,78603
18.85052,79733
18.85985,76242
18.86918,76253
18.87853,78352
18.88787,79668
18.89720,77935
18.90655,75143
18.91588,96376
18.92522,128364
18.93457,140582
18.94390,127010
18.95323,115115
18.96258,128309
18.97192,146430
18.98125,154373
18.99060,137240
18.99993,108182
19.00927,93124
19.01862,89502
19.02795,90212
19.03730,95558
19.04663,105956
19.05597,147670
19.06532,284183
19.07465,685706
19.08398,1648889
19.09333,2637738
19.10267,2498949
19.11200,1326878
19.12135,456548
19.13068,156869
19.14002,87228
19.14937,70446
19.15870,67558
19.16803,68331
19.17738,66015
19.18672,64322
19.19605,74253
19.20540,85151
19.21473,98113
19.22408,101363
19.23342,100613
19.24275,97548
19.25210,87931
19.26143,80489
19.27077,74448
19.28012,79277
19.28945,86294
19.29878,102498
19.30813,124558
19.31747,172688
19.32680,219163
19.33615,200305
19.34548,144433
19.35482,106015
19.36417,83303
19.37350,75740
19.38283,67308
19.39218,66967
19.40152,69214
19.41087,73698
19.42020,77749
19.42953,75459
19.43888,73632
19.44822,66907
19.45755,66945
19.46690,68976
19.47623,76841
19.48557,87865
19.49492,94541
19.50425,97417
19.51358,94376
19.52293,79885
19.53227,72442
19.54160,76978
19.55095,75925
19.56028,73896
19.56962,68959
19.57897,78475
19.58830,85256
19.59765,90149
19.60698,90792
19.61632,83473
19.62567,77467
19.63500,78029
19.64433,93364
19.65368,100428
19.66302,97522
19.67235,83034
19.68170,77979
19.69103,81840
19.70037,87318
19.70972,94031
19.71905,98201
19.72838,111736
19.73773,139916
19.74707,160420
19.75642,144389
19.76575,113031
19.77508,93006
19.78443,88592
19.79377,90704
19.80310,93084
19.81245,88614
19.82178,88849
19.83112,110945
19.84047,142065
19.84980,151746
19.85913,124955
19.86848,95161
19.87782,98847
19.88715,133059
19.89650,151350
19.90583,125715
19.91517,95155
19.92452,83983
19.93385,83786
19.94320,84496
19.95253,86692
19.96187,84784
19.97122,86278
19.98055,92876
19.98988,99844
19.99923,106235
20.00857,100368
20.01790,90374
20.02725,86644
20.03658,82341
20.04592,85521
20.05527,86893
20.06460,82313
20.07393,87454
20.08328,100143
20.09262,117007
20.10195,116297
20.11130,112005
20.12063,142262
20.12998,208708
20.13932,214611
20.14865,157037
20.15800,112834
20.16733,112909
20.17667,106655
20.18602,93513
20.19535,81644
20.20468,74389
20.21403,77848
20.22337,132745
20.23270,763689
20.24205,4874684
20.25138,1.72993E+07
20.26072,3.215773E+07
20.27007,3.607415E+07
20.27940,2.376236E+07
20.28873,7105011
20.29808,1101944
20.30742,202710
20.31677,117194
20.32610,98117
20.33543,80784
20.34478,74520
20.35412,69728
20.36345,74330
20.37280,79642
20.38213,86445
20.39147,89147
20.40082,86935
20.41015,79231
20.41948,72179
20.42883,69126
20.43817,72126
20.44750,72909
20.45685,75266
20.46618,88918
20.47553,147764
20.48487,222382
20.49420,233087
20.50355,166955
20.51288,106251
20.52222,96090
20.53157,93210
20.54090,83728
20.55023,77635
20.55958,78864
20.56892,119658
20.57825,269825
20.58760,512078
20.59693,571540
20.60627,390431
20.61562,179117
20.62495,97409
20.63428,93996
20.64363,129863
20.65297,191393
20.66232,223303
20.67165,178687
20.68098,125465
20.69033,94986
20.69967,86705
20.70900,82505
20.71835,82528
20.72768,84866
20.73702,79751
20.74637,77320
20.75570,78411
20.76503,75696
20.77438,69516
20.78372,71137
20.79305,73349
20.80240,78534
20.81173,87010
20.82107,89222
20.83042,93333
20.83975,91171
20.84910,83137
20.85843,73529
20.86777,69199
20.87712,67223
20.88645,65874
20.89578,68090
20.90513,74387
20.91447,81010
20.92380,78851
20.93315,74520
20.94248,70601
20.95182,68676
20.96117,64003
20.97050,64077
20.97983,61472
20.98918,61766
20.99852,62805
21.00785,64403
21.01720,68632
21.02653,70864
21.03588,67984
21.04522,68172
21.05455,66611
21.06390,70921
21.07323,70329
21.08257,70809
21.09192,69212
21.10125,67496
21.11058,72266
21.11993,77824
21.12927,77922
21.13860,82074
21.14795,85557
21.15728,84394
21.16662,82139
21.17597,84368
21.18530,85723
21.19463,92023
21.20398,94388
21.21332,83919
21.22267,77515
21.23200,69787
21.24133,72028
21.25068,69816
21.26002,70853
21.26935,77793
21.27870,91081
21.28803,129846
21.29737,173916
21.30672,185062
21.31605,141997
21.32538,98964
21.33473,75977
21.34407,72945
21.35340,73824
21.36275,74918
21.37208,75950
21.38142,77050
21.39077,80526
21.40010,83002
21.40945,83523
21.41878,86624
21.42812,82068
21.43747,83160
21.44680,82997
21.45613,79612
21.46548,73150
21.47482,70921
21.48415,76699
21.49350,80435
21.50283,84380
21.51217,80130
21.52152,76742
21.53085,78805
21.54018,74410
21.54953,73333
21.55887,86678
21.56822,133661
21.57755,231860
21.58688,296386
21.59623,257595
21.60557,160973
21.61490,104212
21.62425,83667
21.63358,86719
21.64292,90914
21.65227,87139
21.66160,78469
21.67093,75163
21.68028,85337
21.68962,97993
21.69895,110408
21.70830,111408
21.71763,106078
21.72697,102213
21.73632,96137
21.74565,90033
21.75500,84993
21.76433,76462
21.77367,74938
21.78302,69776
21.79235,75105
21.80168,75103
21.81103,81590
21.82037,89026
21.82970,95795
21.83905,91045
21.84838,88677
21.85772,81489
21.86707,75413
21.87640,76387
21.88573,82610
21.89508,97242
21.90442,109757
21.91375,103960
21.92310,94644
21.93243,81201
21.94178,75907
21.95112,77035
21.96045,77840
21.96980,85442
21.97913,96141
21.98847,109429
21.99782,125753
22.00715,129052
22.01648,118593
22.02583,96084
22.03517,81575
22.04450,89106
22.05385,96996
22.06318,99921
22.07252,99516
22.08187,92389
22.09120,86603
22.10053,86124
22.10988,81717
22.11922,78543
22.12857,75834
22.13790,74790
22.14723,74054
22.15658,81737
22.16592,103342
22.17525,125266
22.18460,149342
22.19393,136368
22.20327,113863
22.21262,94778
22.22195,93085
22.23128,98309
22.24063,100617
22.24997,102420
22.25930,92901
22.26865,85778
22.27798,101728
22.28733,123019
22.29667,145990
22.30600,147871
22.31535,131735
22.32468,108029
22.33402,93477
22.34337,87321
22.35270,94101
22.36203,103458
22.37138,116673
22.38072,124415
22.39005,128356
22.39940,120150
22.40873,105956
22.41807,95048
22.42742,90281
22.43675,101347
22.44608,113960
22.45543,119594
22.46477,119005
22.47412,109487
22.48345,109136
22.49278,162357
22.50213,585495
22.51147,2065187
22.52080,4186725
22.53015,4369008
22.53948,2508328
22.54882,822986
22.55817,224188
22.56750,115028
22.57683,109475
22.58618,114673
22.59552,119646
22.60485,121142
22.61420,118470
22.62353,114936
22.63287,112175
22.64222,109834
22.65155,101013
22.66090,92918
22.67023,86554
22.67957,85425
22.68892,96367
22.69825,109253
22.70758,118165
22.71693,114116
22.72627,101298
22.73560,100167
22.74495,113111
22.75428,119861
22.76362,119981
22.77297,116605
22.78230,111687
22.79163,103444
22.80098,106557
22.81032,117387
22.81965,127413
22.82900,117615
22.83833,108794
22.84768,102658
22.85702,98477
22.86635,93665
22.87570,96146
22.88503,100403
22.89437,96530
22.90372,96792
22.91305,96263
22.92238,100416
22.93173,109099
22.94107,107922
22.95040,109276
22.95975,99462
22.96908,107863
22.97842,120654
22.98777,120890
22.99710,105084
23.00643,95361
23.01578,85919
23.02512,77990
23.03447,82042
23.04380,80875
23.05313,81366
23.06248,83111
23.07182,80947
23.08115,83204
23.09050,82391
23.09983,80203
23.10917,77674
23.11852,78186
23.12785,78022
23.13718,79109
23.14653,81554
23.15587,79908
23.16520,81745
23.17455,80555
23.18388,81679
23.19323,84334
23.20257,78953
23.21190,80831
23.22125,78705
23.23058,78963
23.23992,83543
23.24927,87887
23.25860,98345
23.26793,100498
23.27728,98401
23.28662,90752
23.29595,84980
23.30530,80268
23.31463,82109
23.32397,81691
23.33332,97884
23.34265,124129
23.35198,141080
23.36133,125262
23.37067,98777
23.38002,90224
23.38935,86331
23.39868,88300
23.40803,89025
23.41737,89056
23.42670,85686
23.43605,84752
23.44538,83762
23.45472,84350
23.46407,85877
23.47340,86840
23.48273,85932
23.49208,85229
23.50142,80814
23.51075,79806
23.52010,80650
23.52943,80363
23.53877,81628
23.54812,82054
23.55745,78295
23.56680,79132
23.57613,79065
23.58547,83285
23.59482,86774
23.60415,89189
23.61348,83687
23.62283,82805
23.63217,79652
23.64150,76869
23.65085,76476
23.66018,77913
23.66952,78652
23.67887,79336
23.68820,81328
23.69753,87769
23.70688,89076
23.71622,93118
23.72555,99369
23.73490,113913
23.74423,127866
23.75358,117410
23.76292,100085
23.77225,87510
23.78160,83659
23.79093,81570
23.80027,79812
23.80962,78346
23.81895,81767
23.82828,80311
23.83763,78239
23.84697,77836
23.85630,78032
23.86565,77438
23.87498,82346
23.88432,78290
23.89367,81115
23.90300,86068
23.91235,83566
23.92168,84787
23.93102,83159
23.94037,82827
23.94970,81681
23.95903,82216
23.96838,81864
23.97772,79901
23.98705,76737
23.99640,77340
24.00573,80898
24.01507,81678
24.02442,83387
24.03375,85267
24.04308,85436
24.05243,80834
24.06177,76758
24.07110,76916
24.08045,80733
24.08978,85124
24.09913,88021
24.10847,85243
24.11780,85194
24.12715,82884
24.13648,79811
24.14582,82327
24.15517,82596
24.16450,82705
24.17383,82782
24.18318,83599
24.19252,84196
24.20185,80011
24.21120,78248
24.22053,80986
24.22987,83349
24.23922,84397
24.24855,83898
24.25788,84035
24.26723,85953
24.27657,82975
24.28592,81093
24.29525,79736
24.30458,85687
24.31393,88052
24.32327,93115
24.33260,99447
24.34195,100514
24.35128,97091
24.36062,88800
24.36997,89341
24.37930,86748
24.38863,86855
24.39798,90466
24.40732,89710
24.41665,91005
24.42600,86507
24.43533,84881
24.44467,87468
24.45402,85676
24.46335,86039
24.47270,86744
24.48203,83993
24.49137,84145
24.50072,92132
24.51005,88473
24.51938,88967
24.52873,89263
24.53807,95014
24.54740,146168
24.55675,321189
24.56608,572060
24.57542,670067
24.58477,461930
24.59410,218558
24.60343,119484
24.61278,98439
24.62212,100761
24.63145,105910
24.64080,99523
24.65013,92635
24.65948,93418
24.66882,95186
24.67815,102458
24.68750,102331
24.69683,99620
24.70617,96657
24.71552,98260
24.72485,98520
24.73418,97760
24.74353,94142
24.75287,87570
24.76220,88241
24.77155,90241
24.78088,88191
24.79022,85608
24.79957,88640
24.80890,89758
24.81823,87703
24.82758,93529
24.83692,90525
24.84627,87633
24.85560,90385
24.86493,89101
24.87428,89994
24.88362,91280
24.89295,91084
24.90230,92706
24.91163,91902
24.92097,95592
24.93032,90789
24.93965,93571
24.94898,92023
24.95833,96635
24.96767,101053
24.97700,101464
24.98635,104563
24.99568,96331
25.00503,94645
25.01437,94391
25.02370,92201
25.03305,92974
25.04238,90030
25.05172,89985
25.06107,93719
25.07040,94438
25.07973,92779
25.08908,95616
25.09842,96676
25.10775,97178
25.11710,97489
25.12643,96559
25.13577,97235
25.14512,102645
25.15445,108641
25.16378,112651
25.17313,105223
25.18247,103306
25.19182,97105
25.20115,99554
25.21048,100855
25.21983,101418
25.22917,98455
25.23850,96526
25.24785,97909
25.25718,98490
25.26652,98303
25.27587,98285
25.28520,99485
25.29453,99350
25.30388,101533
25.31322,100463
25.32255,106769
25.33190,121506
25.34123,148769
25.35057,152002
25.35992,136469
25.36925,124704
25.37860,117206
25.38793,113860
25.39727,112148
25.40662,105393
25.41595,112148
25.42528,104457
25.43463,108203
25.44397,107947
25.45330,105499
25.46265,105847
25.47198,108729
25.48132,115484
25.49067,133017
25.50000,141369
25.50933,138383
25.51868,130278
25.52802,124312
25.53735,123006
25.54670,118466
25.55603,118145
25.56538,115832
25.57472,118874
25.58405,115418
25.59340,112567
25.60273,113676
25.61207,114192
25.62142,114282
25.63075,110223
25.64008,115575
25.64943,115810
25.65877,123233
25.66810,127807
25.67745,132274
25.68678,122614
25.69612,118267
25.70547,116675
25.71480,115793
25.72415,116786
25.73348,114031
25.74282,120660
25.75217,119753
25.76150,122659
25.77083,118249
25.78018,117342
25.78952,118298
25.79885,115027
25.80820,123040
25.81753,127813
25.82687,128703
25.83622,130915
25.84555,135759
25.85488,131340
25.86423,130461
25.87357,126035
25.88290,122689
25.89225,125710
25.90158,125336
25.91093,122221
25.92027,121396
25.92960,119992
25.93895,124308
25.94828,124789
25.95762,130616
25.96697,138294
25.97630,137377
25.98563,130066
25.99498,122963
26.00432,124016
26.01365,123808
26.02300,125097
26.03233,128254
26.04167,136268
26.05102,138075
26.06035,137897
26.06968,138791
26.07903,141208
26.08837,135734
26.09772,135617
26.10705,131144
26.11638,129930
26.12573,130308
26.13507,132277
26.14440,139005
26.15375,146309
26.16308,147541
26.17242,146749
26.18177,143875
26.19110,137754
26.20043,138331
26.20978,132361
26.21912,127300
26.22845,127307
26.23780,130998
26.24713,129625
26.25647,128548
26.26582,130966
26.27515,131709
26.28450,130935
26.29383,134153
26.30317,135374
26.31252,134581
26.32185,139203
26.33118,143951
26.34053,138250
26.34987,141025
26.35920,140546
26.36855,139013
26.37788,137424
26.38722,138547
26.39657,136615
26.40590,138137
26.41523,147202
26.42458,175537
26.43392,210968
26.44325,224283
26.45260,197909
26.46193,169025
26.47128,158677
26.48062,155898
26.48995,155231
26.49930,157572
26.50863,159284
26.51797,162758
26.52732,167632
26.53665,172956
26.54598,180040
26.55533,185515
26.56467,182310
26.57400,170643
26.58335,172521
26.59268,169916
26.60202,177575
26.61137,173474
26.62070,177726
26.63003,174186
26.63938,165539
26.64872,161357
26.65807,161656
26.66740,164442
26.67673,169053
26.68608,168232
26.69542,165665
26.70475,160236
26.71410,156063
26.72343,155739
26.73277,153150
26.74212,155827
26.75145,157424
26.76078,156647
26.77013,159715
26.77947,164259
26.78880,170137
26.79815,169793
26.80748,168814
26.81683,167756
26.82617,164363
26.83550,168910
26.84485,169960
26.85418,167467
26.86352,168573
26.87287,171650
26.88220,169859
26.89153,168502
26.90088,168419
26.91022,165188
26.91955,167737
26.92890,163308
26.93823,164999
26.94757,166279
26.95692,163731
26.96625,166124
26.97558,165460
26.98493,166876
26.99427,166924
27.00362,170224
27.01295,171710
27.02228,176625
27.03163,174719
27.04097,169608
27.05030,171770
27.05965,171286
27.06898,175164
27.07832,177799
27.08767,179128
27.09700,175666
27.10633,176467
27.11568,176722
27.12502,175931
27.13435,176661
27.14370,186669
27.15303,187038
27.16237,186805
27.17172,182660
27.18105,182265
27.19040,179453
27.19973,176067
27.20907,175877
27.21842,180435
27.22775,179736
27.23708,176589
27.24643,182455
27.25577,189028
27.26510,198451
27.27445,199441
27.28378,193157
27.29312,189538
27.30247,181673
27.31180,180521
27.32113,180804
27.33048,184679
27.33982,181021
27.34915,182282
27.35850,182309
27.36783,182833
27.37718,183789
27.38652,184082
27.39585,183612
27.40520,187029
27.41453,187998
27.42387,191933
27.43322,201047
27.44255,205199
27.45188,202512
27.46123,195238
27.47057,198692
27.47990,194496
27.48925,197061
27.49858,201164
27.50792,203755
27.51727,209441
27.52660,208145
27.53595,212111
27.54528,217200
27.55462,211401
27.56397,211283
27.57330,211862
27.58263,206620
27.59198,209763
27.60132,207527
27.61065,203125
27.62000,205753
27.62933,201203
27.63867,200436
27.64802,203671
27.65735,204653
27.66668,212504
27.67603,214394
27.68537,221777
27.69470,225787
27.70405,220364
27.71338,218403
27.72273,217454
27.73207,214178
27.74140,212713
27.75075,210357
27.76008,211273
27.76942,209240
27.77877,216729
27.78810,219094
27.79743,219237
27.80678,218870
27.81612,220772
27.82545,220923
27.83480,216143
27.84413,221426
27.85347,218925
27.86282,221845
27.87215,221814
27.88148,225733
27.89083,224325
27.90017,223521
27.90952,222203
27.91885,219614
27.92818,223671
27.93753,232007
27.94687,227626
27.95620,225691
27.96555,227345
27.97488,227821
27.98422,231676
27.99357,231236
28.00290,233457
28.01223,229735
28.02158,230035
28.03092,232333
28.04025,234302
28.04960,235340
28.05893,237484
28.06827,237230
28.07762,239934
28.08695,234969
28.09630,239046
28.10563,245368
28.11497,245097
28.12432,251890
28.13365,266264
28.14298,268105
28.15233,266075
28.16167,265174
28.17100,262478
28.18035,256448
28.18968,259420
28.19902,256456
28.20837,256439
28.21770,253962
28.22703,259681
28.23638,261629
28.24572,260113
28.25505,262272
28.26440,261365
28.27373,262404
28.28308,260784
28.29242,264311
28.30175,265949
28.31110,261411
28.32043,265780
28.32977,266336
28.33912,261049
28.34845,264249
28.35778,266331
28.36713,265853
28.37647,264206
28.38580,267329
28.39515,271879
28.40448,272964
28.41382,268936
28.42317,270398
28.43250,273465
28.44183,270143
28.45118,274060
28.46052,277148
28.46987,273801
28.47920,273374
28.48853,281854
28.49788,276865
28.50722,281607
28.51655,277902
28.52590,284813
28.53523,288012
28.54457,291149
28.55392,294879
28.56325,304124
28.57258,303302
28.58193,309809
28.59127,327249
28.60060,339689
28.60995,344511
28.61928,351785
28.62863,353511
28.63797,353061
28.64730,349424
28.65665,356251
28.66598,358098
28.67532,394286
28.68467,458004
28.69400,505651
28.70333,476062
28.71268,400296
28.72202,356112
28.73135,331071
28.74070,321953
28.75003,317764
28.75937,314271
28.76872,320776
28.77805,319461
28.78738,317830
28.79673,318815
28.80607,315171
28.81542,321131
28.82475,316588
28.83408,319159
28.84343,326295
28.85277,323211
28.86210,320868
28.87145,325336
28.88078,322044
28.89012,322483
28.89947,326981
28.90880,331212
28.91813,336045
28.92748,338113
28.93682,334184
28.94615,338671
28.95550,335997
28.96483,341887
28.97417,343799
28.98352,354646
28.99285,345949
29.00220,350677
29.01153,349486
29.02087,351168
29.03022,351599
29.03955,361160
29.04888,364423
29.05823,364684
29.06757,356141
29.07690,344960
29.08625,344463
29.09558,348343
29.10492,341793
29.11427,345147
29.12360,347919
29.13293,346991
29.14228,353676
29.15162,346960
29.16095,346051
29.17030,350994
29.17963,349371
29.18898,348708
29.19832,357131
29.20765,363789
29.21700,391379
29.22633,381423
29.23567,364005
29.24502,362538
29.25435,351534
29.26368,360940
29.27303,359304
29.28237,363797
29.29170,357746
29.30105,355884
29.31038,359203
29.31972,359420
29.32907,361331
29.33840,359043
29.34775,359813
29.35708,360056
29.36642,356357
29.37577,362190
29.38510,363514
29.39443,355562
29.40378,359192
29.41312,360775
29.42245,355411
29.43180,356922
29.44113,360062
29.45047,362283
29.45982,366590
29.46915,370066
29.47848,376639
29.48783,380672
29.49717,371987
29.50650,366040
29.51585,359455
29.52518,362194
29.53453,361816
29.54387,359585
29.55320,361196
29.56255,356397
29.57188,356605
29.58122,351477
29.59057,363403
29.59990,353628
29.60923,364003
29.61858,361211
29.62792,363630
29.63725,357703
29.64660,359086
29.65593,360669
29.66527,361552
29.67462,360660
29.68395,363166
29.69328,368333
29.70263,363858
29.71197,366406
29.72132,368597
29.73065,373460
29.73998,374295
29.74933,385239
29.75867,376052
29.76800,373639
29.77735,372607
29.78668,365431
29.79602,367518
29.80537,367853
29.81470,370753
29.82403,362915
29.83338,366154
29.84272,369800
29.85205,362497
29.86140,362564
29.87073,362300
29.88007,371069
29.88942,369372
29.89875,366116
29.90810,369209
29.91743,364823
29.92677,366224
29.93612,367900
29.94545,372267
29.95478,373557
29.96413,372946
29.97347,370463
29.98280,375108
29.99215,381312
30.00148,380389
30.01082,380009
30.02017,376487
30.02950,370302
30.03883,373538
30.04818,373902
30.05752,370469
30.06685,369112
30.07620,369297
30.08553,371123
30.09488,366840
30.10422,362381
30.11355,364659
30.12290,371502
30.13223,369379
30.14157,370942
30.15092,374655
30.16025,380571
30.16958,382629
30.17893,377577
30.18827,381743
30.19760,382029
30.20695,383628
30.21628,385484
30.22562,384233
30.23497,384204
30.24430,382329
30.25365,374594
30.26298,375957
30.27232,381610
30.28167,378865
30.29100,368623
30.30033,365348
30.30968,375720
30.31902,376601
30.32835,375398
30.33770,371224
30.34703,372078
30.35637,376494
30.36572,373130
30.37505,375410
30.38438,368862
30.39373,387279
30.40307,413553
30.41240,436555
30.42175,448213
30.43108,432054
30.44043,408381
30.44977,389862
30.45910,382666
30.46845,382700
30.47778,380762
30.48712,383659
30.49647,386460
30.50580,382332
30.51513,385606
30.52448,380729
30.53382,383041
30.54315,375647
30.55250,374823
30.56183,379464
30.57117,383589
30.58052,381372
30.58985,376968
30.59918,381030
30.60853,381461
30.61787,386888
30.62722,385241
30.63655,390269
30.64588,400711
30.65523,402861
30.66457,412872
30.67390,411671
30.68325,403290
30.69258,391875
30.70192,389703
30.71127,386596
30.72060,378274
30.72993,381719
30.73928,382332
30.74862,379598
30.75795,379351
30.76730,386565
30.77663,377409
30.78597,386650
30.79532,398558
30.80465,398763
30.81400,403358
30.82333,400432
30.83267,396093
30.84202,392965
30.85135,393405
30.86068,383078
30.87003,386181
30.87937,389477
30.88870,383393
30.89805,387658
30.90738,385652
30.91672,386964
30.92607,390494
30.93540,388834
30.94473,387001
30.95408,386265
30.96342,387320
30.97275,392867
30.98210,396307
30.99143,389126
31.00078,385363
31.01012,386876
31.01945,385999
31.02880,387182
31.03813,383959
31.04747,385820
31.05682,382703
31.06615,381936
31.07548,388748
31.08483,380938
31.09417,374682
31.10350,381507
31.11285,377585
31.12218,379599
31.13152,381453
31.14087,381815
31.15020,380031
31.15955,386207
31.16888,380577
31.17822,386846
31.18757,386243
31.19690,383998
31.20623,387400
31.21558,383632
31.22492,390843
31.23425,387647
31.24360,383479
31.25293,387691
31.26227,384200
31.27162,385164
31.28095,382490
31.29028,381502
31.29963,379531
31.30897,381988
31.31830,386541
31.32765,388162
31.33698,385953
31.34633,381481
31.35567,386209
31.36500,382839
