D:\数据\20211216\ZS1E-TJ-000213.D Thu Dec 16 21:10:18 2021
Start of data points
0.09727,28299
0.10660,29536
0.11595,28657
0.12528,29507
0.13462,29284
0.14397,28943
0.15330,29479
0.16263,28086
0.17198,28962
0.18132,28518
0.19067,27429
0.20000,28536
0.20933,29032
0.21868,27180
0.22802,27966
0.23735,27776
0.24670,27652
0.25603,27877
0.26537,28263
0.27472,27576
0.28405,28412
0.29338,28981
0.30273,28835
0.31207,27247
0.32140,27018
0.33075,29176
0.34008,27578
0.34942,27765
0.35877,26888
0.36810,27590
0.37745,27660
0.38678,26723
0.39612,27175
0.40547,29035
0.41480,27417
0.42413,28007
0.43348,26599
0.44282,24046
0.45215,20452
0.46150,19401
0.47083,15114
0.48017,10177
0.48952,6350
0.49885,6135
0.50818,6493
0.51753,5758
0.52687,6297
0.53622,5275
0.54555,5149
0.55488,5488
0.56423,5862
0.57357,5579
0.58290,5132
0.59225,5797
0.60158,5284
0.61092,5618
0.62027,5713
0.62960,5083
0.63893,5190
0.64828,5285
0.65762,5309
0.66695,5459
0.67630,5042
0.68563,4583
0.69497,4866
0.70432,4945
0.71365,5218
0.72300,4943
0.73233,4674
0.74167,4966
0.75102,4702
0.76035,4711
0.76968,5603
0.77903,5507
0.78837,5020
0.79770,4487
0.80705,5588
0.81638,5446
0.82572,5204
0.83507,4862
0.84440,5427
0.85373,5373
0.86308,4576
0.87242,4819
0.88175,4601
0.89110,4263
0.90043,4712
0.90978,4802
0.91912,5077
0.92845,5034
0.93780,4871
0.94713,4345
0.95647,5205
0.96582,4931
0.97515,5333
0.98448,4724
0.99383,4627
1.00317,4875
1.01250,5139
1.02185,4754
1.03118,4773
1.04052,4572
1.04987,4514
1.05920,4777
1.06853,5045
1.07788,4594
1.08722,4623
1.09657,4623
1.10590,4508
1.11523,4034
1.12458,4775
1.13392,4809
1.14325,4754
1.15260,4422
1.16193,5215
1.17127,4565
1.18062,4859
1.18995,4556
1.19928,4900
1.20863,4565
1.21797,4942
1.22730,4930
1.23665,4608
1.24598,4471
1.25533,4801
1.26467,4594
1.27400,4576
1.28335,4927
1.29268,5240
1.30202,5122
1.31137,3774
1.32070,4466
1.33003,4596
1.33938,4826
1.34872,3966
1.35805,5073
1.36740,3891
1.37673,5401
1.38607,4219
1.39542,4637
1.40475,4624
1.41408,4101
1.42343,4463
1.43277,4863
1.44212,5031
1.45145,4145
1.46078,5088
1.47013,4516
1.47947,4786
1.48880,4315
1.49815,4368
1.50748,4725
1.51682,4132
1.52617,4157
1.53550,4475
1.54483,4354
1.55418,4368
1.56352,4816
1.57285,4763
1.58220,4082
1.59153,3966
1.60087,4344
1.61022,6827
1.61955,12051
1.62890,19605
1.63823,24414
1.64757,32272
1.65692,45367
1.66625,57378
1.67558,63728
1.68493,58473
1.69427,48470
1.70360,37283
1.71295,26950
1.72228,20694
1.73162,20654
1.74097,23498
1.75030,26041
1.75963,28568
1.76898,31524
1.77832,34171
1.78765,36446
1.79700,37450
1.80633,37536
1.81568,39005
1.82502,37644
1.83435,36767
1.84370,37314
1.85303,33545
1.86237,36214
1.87172,40993
1.88105,49986
1.89038,78291
1.89973,125005
1.90907,159733
1.91840,202783
1.92775,325331
1.93708,595670
1.94642,994412
1.95577,1313960
1.96510,1345409
1.97443,1147305
1.98378,862337
1.99312,654255
2.00247,521515
2.01180,466346
2.02113,446700
2.03048,411374
2.03982,327747
2.04915,225901
2.05850,164645
2.06783,124287
2.07717,96856
2.08652,83244
2.09585,72802
2.10518,68315
2.11453,65342
2.12387,69001
2.13320,72571
2.14255,83440
2.15188,103400
2.16123,106779
2.17057,98826
2.17990,99778
2.18925,172213
2.19858,320374
2.20792,304674
2.21727,189324
2.22660,125300
2.23593,129536
2.24528,195025
2.25462,632106
2.26395,2425851
2.27330,3105896
2.28263,2471161
2.29197,1602406
2.30132,1131578
2.31065,3272745
2.31998,1.260418E+07
2.32933,1.852996E+07
2.33867,1.385203E+07
2.34802,6870601
2.35735,2910640
2.36668,1269079
2.37603,650764
2.38537,452507
2.39470,345785
2.40405,262488
2.41338,210343
2.42272,181521
2.43207,179991
2.44140,170750
2.45073,144555
2.46008,124573
2.46942,135482
2.47875,173472
2.48810,172005
2.49743,137853
2.50677,108958
2.51612,94947
2.52545,86913
2.53480,81532
2.54413,80153
2.55347,88124
2.56282,99327
2.57215,193875
2.58148,413975
2.59083,379041
2.60017,303698
2.60950,244481
2.61885,249617
2.62818,285215
2.63752,260361
2.64687,199554
2.65620,159550
2.66553,142705
2.67488,128423
2.68422,107205
2.69355,90789
2.70290,74441
2.71223,74490
2.72158,105729
2.73092,164747
2.74025,184953
2.74960,188029
2.75893,197907
2.76827,212072
2.77762,201277
2.78695,202264
2.79628,210263
2.80563,184256
2.81497,155006
2.82430,136978
2.83365,131079
2.84298,123106
2.85232,140182
2.86167,188089
2.87100,212611
2.88035,264899
2.88968,231728
2.89902,178874
2.90837,130105
2.91770,107603
2.92703,95294
2.93638,83614
2.94572,73381
2.95505,67446
2.96440,61726
2.97373,60098
2.98307,59756
2.99242,60717
3.00175,68499
3.01108,79237
3.02043,81756
3.02977,74743
3.03910,87062
3.04845,156636
3.05778,189414
3.06713,200232
3.07647,187022
3.08580,154807
3.09515,115667
3.10448,82978
3.11382,66576
3.12317,58849
3.13250,62013
3.14183,63896
3.15118,71418
3.16052,80700
3.16985,92396
3.17920,86487
3.18853,79127
3.19787,67994
3.20722,62435
3.21655,60435
3.22588,60067
3.23523,59967
3.24457,55461
3.25392,54011
3.26325,53318
3.27258,51454
3.28193,51161
3.29127,49441
3.30060,54493
3.30995,57546
3.31928,56078
3.32862,54431
3.33797,53041
3.34730,54239
3.35663,54408
3.36598,54808
3.37532,53276
3.38465,49085
3.39400,47530
3.40333,49108
3.41267,56014
3.42202,70068
3.43135,72469
3.44070,70554
3.45003,71292
3.45937,78618
3.46872,79223
3.47805,70022
3.48738,64568
3.49673,62816
3.50607,60399
3.51540,54610
3.52475,53090
3.53408,50705
3.54342,54992
3.55277,89945
3.56210,217222
3.57143,416284
3.58078,483117
3.59012,352253
3.59945,214889
3.60880,147278
3.61813,117754
3.62748,111602
3.63682,114104
3.64615,102768
3.65550,88051
3.66483,75099
3.67417,67608
3.68352,68777
3.69285,63311
3.70218,59747
3.71153,62207
3.72087,83169
3.73020,105322
3.73955,104078
3.74888,81656
3.75822,63785
3.76757,56754
3.77690,49957
3.78625,49788
3.79558,47221
3.80492,49661
3.81427,56355
3.82360,64138
3.83293,69250
3.84228,64252
3.85162,60182
3.86095,60828
3.87030,60067
3.87963,59501
3.88897,64255
3.89832,75845
3.90765,83262
3.91698,81971
3.92633,76059
3.93567,74577
3.94500,84432
3.95435,113334
3.96368,130620
3.97303,111011
3.98237,83075
3.99170,78403
4.00105,102711
4.01038,95790
4.01972,89288
4.02907,91172
4.03840,144888
4.04773,274301
4.05708,358492
4.06642,301376
4.07575,200638
4.08510,163127
4.09443,172549
4.10377,165986
4.11312,136670
4.12245,103841
4.13178,79467
4.14113,66337
4.15047,61601
4.15982,59510
4.16915,58431
4.17848,55865
4.18783,51992
4.19717,48861
4.20650,50846
4.21585,51688
4.22518,54744
4.23452,52481
4.24387,52258
4.25320,50475
4.26253,49954
4.27188,50076
4.28122,54849
4.29055,63575
4.29990,66862
4.30923,84914
4.31857,166091
4.32792,309299
4.33725,345599
4.34660,245769
4.35593,137071
4.36527,81909
4.37462,61618
4.38395,57860
4.39328,63965
4.40263,65485
4.41197,60096
4.42130,53313
4.43065,48604
4.43998,48588
4.44932,47381
4.45867,50375
4.46800,67883
4.47733,106625
4.48668,135349
4.49602,123925
4.50537,90719
4.51470,63794
4.52403,52659
4.53338,51374
4.54272,51230
4.55205,53918
4.56140,53883
4.57073,52885
4.58007,52003
4.58942,50493
4.59875,49082
4.60808,50604
4.61743,50489
4.62677,46690
4.63610,47992
4.64545,52403
4.65478,56502
4.66412,60196
4.67347,63231
4.68280,69625
4.69215,110243
4.70148,213143
4.71082,280192
4.72017,228064
4.72950,135002
4.73883,77836
4.74818,62535
4.75752,60136
4.76685,57002
4.77620,56606
4.78553,57211
4.79487,52950
4.80422,52685
4.81355,53966
4.82288,52410
4.83223,54657
4.84157,57708
4.85090,60482
4.86025,58932
4.86958,62458
4.87893,80942
4.88827,94981
4.89760,83712
4.90695,69279
4.91628,58731
4.92562,50571
4.93497,51444
4.94430,57609
4.95363,58813
4.96298,55105
4.97232,50754
4.98165,47663
4.99100,47235
5.00033,50550
5.00967,48995
5.01902,53680
5.02835,56853
5.03768,62725
5.04703,62672
5.05637,58065
5.06572,53487
5.07505,52814
5.08438,55694
5.09373,60037
5.10307,54886
5.11240,51608
5.12175,50969
5.13108,48889
5.14042,51076
5.14977,54303
5.15910,61421
5.16843,61149
5.17778,57648
5.18712,56554
5.19645,69202
5.20580,83261
5.21513,78398
5.22447,63595
5.23382,54868
5.24315,57766
5.25250,59767
5.26183,61156
5.27117,79510
5.28052,191586
5.28985,433962
5.29918,628695
5.30853,529786
5.31787,286756
5.32720,137916
5.33655,83507
5.34588,64993
5.35522,58387
5.36457,55059
5.37390,58048
5.38323,65950
5.39258,74696
5.40192,79687
5.41125,72178
5.42060,62668
5.42993,54201
5.43928,49709
5.44862,47705
5.45795,44141
5.46730,47138
5.47663,43995
5.48597,46682
5.49532,48046
5.50465,47239
5.51398,50626
5.52333,55914
5.53267,64457
5.54200,72729
5.55135,67109
5.56068,60643
5.57002,55953
5.57937,52826
5.58870,51617
5.59805,46272
5.60738,45897
5.61672,47018
5.62607,44170
5.63540,43861
5.64473,44461
5.65408,44967
5.66342,48305
5.67275,51026
5.68210,58364
5.69143,74927
5.70077,72396
5.71012,64283
5.71945,61110
5.72878,57507
5.73813,55841
5.74747,55949
5.75680,63762
5.76615,68377
5.77548,63781
5.78483,67962
5.79417,71535
5.80350,67303
5.81285,56969
5.82218,53863
5.83152,58703
5.84087,70470
5.85020,71100
5.85953,59968
5.86888,51583
5.87822,43790
5.88755,38181
5.89690,36115
5.90623,37714
5.91557,60901
5.92492,132144
5.93425,188350
5.94358,170161
5.95293,120337
5.96227,99885
5.97162,88482
5.98095,66079
5.99028,55104
5.99963,43034
6.00897,38106
6.01830,33811
6.02765,26915
6.03698,25604
6.04632,23523
6.05567,22529
6.06500,28299
6.07433,30894
6.08368,28493
6.09302,27878
6.10235,26599
6.11170,24391
6.12103,27421
6.13037,37340
6.13972,51976
6.14905,59927
6.15840,47404
6.16773,31278
6.17707,25950
6.18642,21313
6.19575,22493
6.20508,21493
6.21443,21236
6.22377,22131
6.23310,23766
6.24245,25773
6.25178,24195
6.26112,23074
6.27047,23740
6.27980,37407
6.28913,55062
6.29848,51510
6.30782,36948
6.31717,27111
6.32650,20682
6.33583,19140
6.34518,18531
6.35452,18542
6.36385,20530
6.37320,19738
6.38253,27993
6.39187,47063
6.40122,147729
6.41055,527429
6.41988,1160033
6.42923,1311393
6.43857,820598
6.44790,322292
6.45725,106598
6.46658,48129
6.47592,35155
6.48527,28139
6.49460,25490
6.50395,23192
6.51328,22985
6.52262,24208
6.53197,22776
6.54130,22045
6.55063,20269
6.55998,19952
6.56932,19371
6.57865,19746
6.58800,20989
6.59733,21414
6.60667,25214
6.61602,25106
6.62535,25301
6.63468,24660
6.64403,26835
6.65337,26529
6.66270,26650
6.67205,30030
6.68138,28599
6.69073,26610
6.70007,23485
6.70940,27711
6.71875,35504
6.72808,34842
6.73742,31892
6.74677,26588
6.75610,25621
6.76543,23097
6.77478,21128
6.78412,23301
6.79345,28726
6.80280,34430
6.81213,38721
6.82147,32603
6.83082,27394
6.84015,24145
6.84948,22400
6.85883,24690
6.86817,26540
6.87752,24693
6.88685,22525
6.89618,21335
6.90553,20597
6.91487,23056
6.92420,22785
6.93355,23468
6.94288,22106
6.95222,23233
6.96157,21077
6.97090,23115
6.98023,22738
6.98958,25351
6.99892,22918
7.00825,22008
7.01760,21170
7.02693,21955
7.03627,18701
7.04562,17838
7.05495,15266
7.06430,16254
7.07363,15541
7.08297,16310
7.09232,16499
7.10165,20140
7.11098,23710
7.12033,27481
7.12967,25456
7.13900,24268
7.14835,22941
7.15768,17901
7.16702,19039
7.17637,18233
7.18570,19816
7.19503,18521
7.20438,19175
7.21372,21274
7.22307,24702
7.23240,40482
7.24173,87197
7.25108,132540
7.26042,120638
7.26975,72252
7.27910,44063
7.28843,35990
7.29777,30808
7.30712,29046
7.31645,23551
7.32578,20759
7.33513,20236
7.34447,19382
7.35380,17909
7.36315,19126
7.37248,17281
7.38182,19963
7.39117,30930
7.40050,66582
7.40985,144693
7.41918,215945
7.42852,206512
7.43787,139413
7.44720,73075
7.45653,39895
7.46588,25795
7.47522,21291
7.48455,21045
7.49390,27274
7.50323,34046
7.51257,30635
7.52192,25113
7.53125,21424
7.54058,18972
7.54993,18220
7.55927,19071
7.56860,21560
7.57795,22640
7.58728,23907
7.59663,24995
7.60597,25127
7.61530,23036
7.62465,27058
7.63398,28428
7.64332,27586
7.65267,25038
7.66200,23303
7.67133,21560
7.68068,21057
7.69002,22652
7.69935,22026
7.70870,25291
7.71803,29390
7.72737,27924
7.73672,24650
7.74605,26517
7.75538,27833
7.76473,31469
7.77407,31376
7.78342,29421
7.79275,30062
7.80208,31421
7.81143,28293
7.82077,24040
7.83010,22342
7.83945,21193
7.84878,25136
7.85812,34544
7.86747,62064
7.87680,94103
7.88613,96191
7.89548,73449
7.90482,53717
7.91415,63016
7.92350,104998
7.93283,126828
7.94218,98153
7.95152,59966
7.96085,60711
7.97020,76134
7.97953,68708
7.98887,63300
7.99822,55225
8.00755,47877
8.01688,36543
8.02623,32291
8.03557,34597
8.04490,43843
8.05425,53648
8.06358,49577
8.07292,37501
8.08227,27851
8.09160,35882
8.10093,60012
8.11028,69619
8.11962,57669
8.12897,42052
8.13830,33186
8.14763,28167
8.15698,27224
8.16632,26328
8.17565,23876
8.18500,23783
8.19433,23121
8.20367,25236
8.21302,25150
8.22235,25672
8.23168,22713
8.24103,26864
8.25037,29200
8.25970,30458
8.26905,28839
8.27838,28467
8.28772,24052
8.29707,22104
8.30640,22430
8.31575,23068
8.32508,22855
8.33442,23644
8.34377,23825
8.35310,22242
8.36243,21525
8.37178,22546
8.38112,22394
8.39045,22454
8.39980,26168
8.40913,31592
8.41847,32601
8.42782,33482
8.43715,33646
8.44648,31411
8.45583,28065
8.46517,27494
8.47450,28494
8.48385,27173
8.49318,26366
8.50253,25869
8.51187,25621
8.52120,22965
8.53055,21920
8.53988,23725
8.54922,23312
8.55857,26423
8.56790,27968
8.57723,28065
8.58658,30098
8.59592,32745
8.60525,36357
8.61460,36888
8.62393,34179
8.63327,32369
8.64262,30288
8.65195,27729
8.66128,26086
8.67063,28807
8.67997,28679
8.68932,28212
8.69865,27293
8.70798,26404
8.71733,27385
8.72667,26659
8.73600,24839
8.74535,29923
8.75468,40882
8.76402,49668
8.77337,45796
8.78270,35803
8.79203,31881
8.80138,42019
8.81072,68626
8.82005,96865
8.82940,83831
8.83873,54164
8.84808,33590
8.85742,27078
8.86675,26116
8.87610,28553
8.88543,32446
8.89477,31819
8.90412,31001
8.91345,29847
8.92278,28496
8.93213,30126
8.94147,31082
8.95080,28422
8.96015,26004
8.96948,23394
8.97882,26250
8.98817,26010
8.99750,26695
9.00683,28686
9.01618,31027
9.02552,31164
9.03487,29286
9.04420,28700
9.05353,28326
9.06288,29888
9.07222,34870
9.08155,39648
9.09090,47286
9.10023,48437
9.10957,40937
9.11892,36962
9.12825,38522
9.13758,47822
9.14693,54313
9.15627,48066
9.16560,36550
9.17495,30917
9.18428,29515
9.19362,28911
9.20297,31233
9.21230,39746
9.22165,69994
9.23098,113659
9.24032,133493
9.24967,111260
9.25900,71424
9.26833,47130
9.27768,39997
9.28702,36437
9.29635,33493
9.30570,32427
9.31503,34603
9.32437,41400
9.33372,62847
9.34305,75806
9.35238,64182
9.36173,62524
9.37107,119600
9.38040,210255
9.38975,233356
9.39908,174391
9.40843,110141
9.41777,74984
9.42710,61951
9.43645,57081
9.44578,48628
9.45512,37183
9.46447,30317
9.47380,27444
9.48313,27613
9.49248,28655
9.50182,35056
9.51115,36454
9.52050,31023
9.52983,30675
9.53917,34273
9.54852,42220
9.55785,54208
9.56720,79045
9.57653,89943
9.58587,68598
9.59522,50569
9.60455,52064
9.61388,58204
9.62323,49652
9.63257,38348
9.64190,35477
9.65125,37971
9.66058,46484
9.66992,52090
9.67927,46916
9.68860,38546
9.69793,30883
9.70728,27571
9.71662,30710
9.72595,64798
9.73530,235378
9.74463,688355
9.75398,1097821
9.76332,941027
9.77265,517394
9.78200,242074
9.79133,138109
9.80067,105745
9.81002,86194
9.81935,75115
9.82868,78759
9.83803,90529
9.84737,101358
9.85670,104207
9.86605,90123
9.87538,68155
9.88472,67448
9.89407,77239
9.90340,85149
9.91273,77972
9.92208,74157
9.93142,80646
9.94077,77822
9.95010,61444
9.95943,48414
9.96878,40620
9.97812,58152
9.98745,107911
9.99680,167303
10.00613,166256
10.01547,106004
10.02482,63030
10.03415,48611
10.04348,39523
10.05283,41005
10.06217,45475
10.07150,56760
10.08085,70309
10.09018,68365
10.09952,54846
10.10887,53259
10.11820,107493
10.12755,296046
10.13688,533024
10.14622,562070
10.15557,857270
10.16490,2186543
10.17423,3722560
10.18358,3177780
10.19292,1382569
10.20225,321980
10.21160,76963
10.22093,48047
10.23027,42940
10.23962,49724
10.24895,65271
10.25828,69312
10.26763,61935
10.27697,46817
10.28630,40206
10.29565,41189
10.30498,39184
10.31433,37843
10.32367,34917
10.33300,32329
10.34235,31839
10.35168,32626
10.36102,32496
10.37037,35814
10.37970,34110
10.38903,31419
10.39838,30341
10.40772,30073
10.41705,35791
10.42640,54755
10.43573,67073
10.44507,63600
10.45442,54967
10.46375,51393
10.47308,52331
10.48243,49238
10.49177,38462
10.50112,33496
10.51045,30811
10.51978,29906
10.52913,30009
10.53847,29774
10.54780,29859
10.55715,30992
10.56648,31182
10.57582,33187
10.58517,33684
10.59450,31789
10.60383,29427
10.61318,28340
10.62252,30464
10.63185,33329
10.64120,41866
10.65053,41973
10.65988,36724
10.66922,33477
10.67855,35850
10.68790,41029
10.69723,41019
10.70657,37591
10.71592,41491
10.72525,50427
10.73458,49791
10.74393,44698
10.75327,51526
10.76260,90807
10.77195,130246
10.78128,129493
10.79062,101715
10.79997,130442
10.80930,206405
10.81863,232085
10.82798,165352
10.83732,85020
10.84667,46866
10.85600,36827
10.86533,35893
10.87468,40220
10.88402,46966
10.89335,57844
10.90270,55192
10.91203,47001
10.92137,40179
10.93072,41140
10.94005,44643
10.94938,40556
10.95873,36602
10.96807,35293
10.97740,35715
10.98675,31599
10.99608,30723
11.00542,33004
11.01477,33843
11.02410,31151
11.03345,29517
11.04278,28779
11.05212,29463
11.06147,28766
11.07080,30509
11.08013,33367
11.08948,31189
11.09882,30988
11.10815,39307
11.11750,53509
11.12683,56762
11.13617,48274
11.14552,41168
11.15485,38562
11.16418,33148
11.17353,33006
11.18287,32403
11.19220,30920
11.20155,30605
11.21088,28737
11.22023,32779
11.22957,34437
11.23890,35581
11.24825,33256
11.25758,34328
11.26692,40544
11.27627,43692
11.28560,37532
11.29493,33996
11.30428,31051
11.31362,31073
11.32295,29680
11.33230,31249
11.34163,42205
11.35097,60046
11.36032,76025
11.36965,78807
11.37900,59851
11.38833,44760
11.39767,40010
11.40702,45653
11.41635,53251
11.42568,50678
11.43503,41553
11.44437,33811
11.45370,30722
11.46305,35869
11.47238,50162
11.48172,54616
11.49107,51383
11.50040,38009
11.50973,29542
11.51908,27447
11.52842,29807
11.53775,27309
11.54710,28522
11.55643,32570
11.56578,50232
11.57512,95216
11.58445,147610
11.59380,156892
11.60313,117961
11.61247,78671
11.62182,60127
11.63115,53078
11.64048,48640
11.64983,46930
11.65917,52291
11.66850,56193
11.67785,54117
11.68718,45415
11.69652,39259
11.70587,36808
11.71520,35244
11.72453,35339
11.73388,34194
11.74322,32714
11.75257,32511
11.76190,30613
11.77123,31777
11.78058,36660
11.78992,44373
11.79925,49175
11.80860,45669
11.81793,40053
11.82727,41321
11.83662,41470
11.84595,39926
11.85528,36690
11.86463,36527
11.87397,37549
11.88330,39383
11.89265,39957
11.90198,36363
11.91132,33581
11.92067,32456
11.93000,31479
11.93935,37975
11.94868,52162
11.95802,66148
11.96737,60484
11.97670,44313
11.98603,32093
11.99538,31956
12.00472,38132
12.01405,51705
12.02340,67023
12.03273,64636
12.04207,51538
12.05142,42648
12.06075,38402
12.07008,34769
12.07943,29391
12.08877,28566
12.09810,31721
12.10745,33297
12.11678,31448
12.12613,30410
12.13547,28200
12.14480,28829
12.15415,31955
12.16348,37112
12.17282,57609
12.18217,94677
12.19150,113358
12.20083,82865
12.21018,53648
12.21952,42975
12.22885,42730
12.23820,51096
12.24753,50476
12.25687,41375
12.26622,39341
12.27555,55441
12.28488,90118
12.29423,103231
12.30357,79796
12.31292,52551
12.32225,40288
12.33158,39809
12.34093,44346
12.35027,47807
12.35960,42173
12.36895,38665
12.37828,40185
12.38762,47073
12.39697,55364
12.40630,60437
12.41563,50126
12.42498,41483
12.43432,35516
12.44365,33848
12.45300,33020
12.46233,33882
12.47168,37394
12.48102,40432
12.49035,41769
12.49970,41366
12.50903,42097
12.51837,40281
12.52772,39060
12.53705,42010
12.54638,44293
12.55573,44281
12.56507,51566
12.57440,57924
12.58375,53584
12.59308,44240
12.60242,36553
12.61177,33694
12.62110,36425
12.63043,45209
12.63978,61528
12.64912,77444
12.65847,85945
12.66780,76809
12.67713,62772
12.68648,49137
12.69582,37524
12.70515,33383
12.71450,32916
12.72383,35473
12.73317,33597
12.74252,36984
12.75185,39584
12.76118,41247
12.77053,39997
12.77987,35426
12.78920,32677
12.79855,31738
12.80788,33714
12.81722,35514
12.82657,37037
12.83590,35390
12.84525,33361
12.85458,31441
12.86392,31402
12.87327,30682
12.88260,32685
12.89193,32311
12.90128,34157
12.91062,36754
12.91995,36111
12.92930,34169
12.93863,30870
12.94797,31967
12.95732,33344
12.96665,35161
12.97598,34609
12.98533,31646
12.99467,28607
13.00400,31536
13.01335,34587
13.02268,37946
13.03203,47596
13.04137,54826
13.05070,54012
13.06005,44202
13.06938,40145
13.07872,44286
13.08807,45857
13.09740,44817
13.10673,39763
13.11608,39114
13.12542,38256
13.13475,40510
13.14410,44890
13.15343,51964
13.16277,55038
13.17212,57439
13.18145,57657
13.19080,57356
13.20013,82521
13.20947,170427
13.21882,284119
13.22815,292543
13.23748,185178
13.24683,118139
13.25617,112243
13.26550,101321
13.27485,79049
13.28418,70054
13.29352,64094
13.30287,52849
13.31220,46741
13.32153,46732
13.33088,48232
13.34022,50029
13.34955,48932
13.35890,47843
13.36823,46870
13.37758,41073
13.38692,41724
13.39625,43510
13.40560,48854
13.41493,49830
13.42427,42430
13.43362,42022
13.44295,47850
13.45228,54225
13.46163,49502
13.47097,45371
13.48030,45853
13.48965,46980
13.49898,45638
13.50832,39900
13.51767,50313
13.52700,86757
13.53633,128824
13.54568,119834
13.55502,72587
13.56437,45472
13.57370,37189
13.58303,35282
13.59238,32927
13.60172,30731
13.61105,32697
13.62040,30565
13.62973,29737
13.63907,30909
13.64842,32562
13.65775,35495
13.66708,38734
13.67643,35660
13.68577,32782
13.69510,31127
13.70445,29710
13.71378,28278
13.72312,28274
13.73247,28727
13.74180,29015
13.75115,29823
13.76048,29502
13.76982,31774
13.77917,31814
13.78850,32813
13.79783,34480
13.80718,40846
13.81652,47596
13.82585,44095
13.83520,36760
13.84453,33771
13.85387,33636
13.86322,35142
13.87255,36449
13.88188,40403
13.89123,48784
13.90057,71301
13.90990,123810
13.91925,224072
13.92858,296667
13.93793,226379
13.94727,112814
13.95660,59830
13.96595,49724
13.97528,47224
13.98462,40719
13.99397,39259
14.00330,39856
14.01263,39361
14.02198,37609
14.03132,33783
14.04065,45877
14.05000,172513
14.05933,983915
14.06867,3570320
14.07802,6607483
14.08735,6705237
14.09670,3090913
14.10603,677726
14.11537,120634
14.12472,54639
14.13405,46486
14.14338,45510
14.15273,48253
14.16207,49457
14.17140,53065
14.18075,51415
14.19008,53127
14.19942,60155
14.20877,63649
14.21810,51149
14.22743,39280
14.23678,34387
14.24612,31746
14.25545,31198
14.26480,30999
14.27413,35878
14.28348,36933
14.29282,35575
14.30215,32931
14.31150,32786
14.32083,40599
14.33017,51861
14.33952,60795
14.34885,58957
14.35818,47977
14.36753,38453
14.37687,34622
14.38620,32665
14.39555,32976
14.40488,35072
14.41422,33004
14.42357,32644
14.43290,29337
14.44223,32042
14.45158,39318
14.46092,52241
14.47027,64332
14.47960,67442
14.48893,56073
14.49828,48237
14.50762,40435
14.51695,36049
14.52630,32246
14.53563,30318
14.54497,32105
14.55432,35655
14.56365,38573
14.57298,39959
14.58233,38472
14.59167,34635
14.60100,33233
14.61035,32399
14.61968,31173
14.62902,35576
14.63837,39335
14.64770,52654
14.65705,72024
14.66638,81599
14.67572,73154
14.68507,56968
14.69440,46719
14.70373,41543
14.71308,37992
14.72242,35466
14.73175,36346
14.74110,37225
14.75043,36136
14.75977,35750
14.76912,38645
14.77845,39552
14.78778,44641
14.79713,40538
14.80647,41497
14.81582,39576
14.82515,39688
14.83448,39193
14.84383,37109
14.85317,34782
14.86250,36829
14.87185,45111
14.88118,54487
14.89052,52346
14.89987,42986
14.90920,37516
14.91853,36490
14.92788,35201
14.93722,36030
14.94655,37575
14.95590,37744
14.96523,37973
14.97457,43819
14.98392,40612
14.99325,37128
15.00260,37504
15.01193,43235
15.02127,49320
15.03062,42593
15.03995,38631
15.04928,40650
15.05863,44109
15.06797,46034
15.07730,45090
15.08665,39941
15.09598,35262
15.10532,32877
15.11467,33853
15.12400,38758
15.13333,48778
15.14268,52777
15.15202,47656
15.16135,40392
15.17070,36572
15.18003,35311
15.18938,36902
15.19872,42116
15.20805,58309
15.21740,79740
15.22673,95239
15.23607,87016
15.24542,66509
15.25475,52935
15.26408,41998
15.27343,37944
15.28277,38640
15.29210,38167
15.30145,36804
15.31078,35723
15.32012,36521
15.32947,40546
15.33880,46638
15.34813,47809
15.35748,45636
15.36682,42592
15.37617,50390
15.38550,53035
15.39483,46174
15.40418,38344
15.41352,33899
15.42285,37579
15.43220,39906
15.44153,43001
15.45087,41094
15.46022,37545
15.46955,36475
15.47888,33745
15.48823,36579
15.49757,36660
15.50690,42528
15.51625,57226
15.52558,72983
15.53492,76285
15.54427,65225
15.55360,47770
15.56295,38607
15.57228,34028
15.58162,35319
15.59097,34648
15.60030,35316
15.60963,34829
15.61898,36865
15.62832,39792
15.63765,46163
15.64700,49013
15.65633,49221
15.66567,48885
15.67502,48363
15.68435,45588
15.69368,40707
15.70303,49545
15.71237,62071
15.72170,61481
15.73105,50445
15.74038,42379
15.74973,44556
15.75907,52386
15.76840,56182
15.77775,51474
15.78708,45920
15.79642,44166
15.80577,51437
15.81510,93958
15.82443,213021
15.83378,372501
15.84312,445254
15.85245,387208
15.86180,244770
15.87113,126449
15.88047,82487
15.88982,79957
15.89915,83183
15.90850,87702
15.91783,75366
15.92717,62787
15.93652,49356
15.94585,42310
15.95518,43318
15.96453,40636
15.97387,44194
15.98320,52812
15.99255,65139
16.00188,73076
16.01122,62496
16.02057,49704
16.02990,42763
16.03923,42534
16.04858,43559
16.05792,45728
16.06725,46440
16.07660,45151
16.08593,43635
16.09528,42193
16.10462,43165
16.11395,46722
16.12330,50182
16.13263,51511
16.14197,46043
16.15132,42773
16.16065,42769
16.16998,41870
16.17933,40069
16.18867,38635
16.19800,45752
16.20735,52768
16.21668,56255
16.22602,56562
16.23537,55189
16.24470,54848
16.25403,47706
16.26338,46310
16.27272,46651
16.28207,61042
16.29140,108275
16.30073,188695
16.31008,227144
16.31942,168605
16.32875,90834
16.33810,53760
16.34743,42214
16.35677,39689
16.36612,34846
16.37545,35248
16.38478,35863
16.39413,37073
16.40347,36863
16.41280,39776
16.42215,41022
16.43148,41318
16.44082,39999
16.45017,40441
16.45950,49543
16.46885,51325
16.47818,48187
16.48752,45787
16.49687,44239
16.50620,41846
16.51553,44744
16.52488,48101
16.53422,50251
16.54355,42707
16.55290,42913
16.56223,39297
16.57157,37801
16.58092,37762
16.59025,39956
16.59958,38595
16.60893,39097
16.61827,40048
16.62762,46417
16.63695,52245
16.64628,53523
16.65563,49096
16.66497,46223
16.67430,40784
16.68365,39904
16.69298,48101
16.70232,56680
16.71167,59659
16.72100,50548
16.73033,44440
16.73968,47649
16.74902,77389
16.75835,112194
16.76770,103043
16.77703,70385
16.78637,50645
16.79572,62915
16.80505,126269
16.81440,264932
16.82373,417621
16.83307,560096
16.84242,684771
16.85175,621475
16.86108,393200
16.87043,186595
16.87977,94550
16.88910,67446
16.89845,62279
16.90778,62226
16.91712,68945
16.92647,74115
16.93580,68246
16.94513,65850
16.95448,63621
16.96382,67894
16.97315,69000
16.98250,61981
16.99183,53388
17.00118,46565
17.01052,44470
17.01985,49494
17.02920,72109
17.03853,100102
17.04787,109100
17.05722,79532
17.06655,56636
17.07588,48695
17.08523,46747
17.09457,46359
17.10390,45570
17.11325,44172
17.12258,41297
17.13192,42661
17.14127,46903
17.15060,47782
17.15993,43417
17.16928,43097
17.17862,48753
17.18797,61679
17.19730,69923
17.20663,62853
17.21598,50448
17.22532,46090
17.23465,41691
17.24400,40590
17.25333,42947
17.26267,43373
17.27202,46284
17.28135,50110
17.29068,56546
17.30003,61533
17.30937,58846
17.31870,57536
17.32805,58588
17.33738,56526
17.34672,49141
17.35607,45830
17.36540,48616
17.37475,60546
17.38408,104304
17.39342,170903
17.40277,171097
17.41210,112551
17.42143,75135
17.43078,59570
17.44012,54457
17.44945,49854
17.45880,52749
17.46813,49053
17.47747,47966
17.48682,57298
17.49615,167424
17.50548,716433
17.51483,1874940
17.52417,2454267
17.53352,1695800
17.54285,605788
17.55218,141000
17.56153,63674
17.57087,60690
17.58020,84032
17.58955,139454
17.59888,204208
17.60822,214169
17.61757,154555
17.62690,95242
17.63623,71375
17.64558,62497
17.65492,60564
17.66425,83540
17.67360,144334
17.68293,235715
17.69227,289742
17.70162,256223
17.71095,175936
17.72030,136620
17.72963,153540
17.73897,226428
17.74832,299869
17.75765,280426
17.76698,200948
17.77633,139656
17.78567,105111
17.79500,91479
17.80435,78022
17.81368,74677
17.82302,64819
17.83237,58726
17.84170,56805
17.85103,59208
17.86038,66725
17.86972,77464
17.87905,76444
17.88840,68970
17.89773,61828
17.90708,55209
17.91642,50843
17.92575,50622
17.93510,51417
17.94443,50412
17.95377,49503
17.96312,49366
17.97245,49665
17.98178,50050
17.99113,47149
18.00047,47131
18.00980,45469
18.01915,45606
18.02848,45171
18.03782,47278
18.04717,58250
18.05650,75630
18.06583,90228
18.07518,83250
18.08452,63070
18.09387,52536
18.10320,53717
18.11253,64455
18.12188,67544
18.13122,67441
18.14055,59266
18.14990,55916
18.15923,51924
18.16857,51281
18.17792,50718
18.18725,50017
18.19658,47646
18.20593,45752
18.21527,42596
18.22460,44712
18.23395,47596
18.24328,45977
18.25263,41460
18.26197,40213
18.27130,41957
18.28065,47030
18.28998,53179
18.29932,57136
18.30867,58303
18.31800,61262
18.32733,56334
18.33668,57507
18.34602,61487
18.35535,62692
18.36470,70615
18.37403,72840
18.38337,68095
18.39272,66779
18.40205,65715
18.41138,61536
18.42073,58389
18.43007,53852
18.43942,53617
18.44875,57615
18.45808,57621
18.46743,56032
18.47677,48508
18.48610,49938
18.49545,59049
18.50478,71439
18.51412,85163
18.52347,88403
18.53280,73648
18.54213,60429
18.55148,54442
18.56082,56400
18.57015,55619
18.57950,51843
18.58883,46339
18.59817,44179
18.60752,49883
18.61685,56997
18.62620,58428
18.63553,57833
18.64487,54494
18.65422,55701
18.66355,48871
18.67288,48526
18.68223,46870
18.69157,48662
18.70090,49266
18.71025,54538
18.71958,57153
18.72892,59991
18.73827,56522
18.74760,53816
18.75693,50573
18.76628,48319
18.77562,43787
18.78495,42224
18.79430,40486
18.80363,40705
18.81298,43275
18.82232,42386
18.83165,44208
18.84100,41773
18.85033,43465
18.85967,44325
18.86902,42825
18.87835,41220
18.88768,41277
18.89703,41556
18.90637,49932
18.91570,58752
18.92505,64918
18.93438,60727
18.94372,56791
18.95307,58825
18.96240,65368
18.97173,71524
18.98108,71295
18.99042,67412
18.99977,57088
19.00910,48685
19.01843,47780
19.02778,46420
19.03712,49630
19.04645,58870
19.05580,80448
19.06513,101737
19.07447,111787
19.08382,131721
19.09315,157437
19.10248,138446
19.11183,94832
19.12117,64102
19.13050,51184
19.13985,44130
19.14918,41722
19.15852,41348
19.16787,38221
19.17720,38022
19.18655,38868
19.19588,44627
19.20522,48332
19.21457,52752
19.22390,51362
19.23323,51671
19.24258,51562
19.25192,47292
19.26125,41797
19.27060,41298
19.27993,42853
19.28927,43524
19.29862,52107
19.30795,64138
19.31728,83939
19.32663,89825
19.33597,75438
19.34532,59953
19.35465,50840
19.36398,46078
19.37333,41044
19.38267,41181
19.39200,38131
19.40135,41797
19.41068,43488
19.42002,45520
19.42937,43352
19.43870,40405
19.44803,38781
19.45738,40375
19.46672,41001
19.47605,44434
19.48540,46316
19.49473,49653
19.50407,47710
19.51342,44476
19.52275,43013
19.53210,41057
19.54143,40283
19.55077,42230
19.56012,38281
19.56945,40462
19.57878,42822
19.58813,47156
19.59747,48219
19.60680,48650
19.61615,44979
19.62548,45633
19.63482,48281
19.64417,52944
19.65350,50820
19.66283,46551
19.67218,43371
19.68152,43530
19.69085,46712
19.70020,54490
19.70953,58860
19.71888,62266
19.72822,66651
19.73755,78371
19.74690,76504
19.75623,64867
19.76557,53679
19.77492,52440
19.78425,54766
19.79358,51611
19.80293,49872
19.81227,44724
19.82160,45386
19.83095,44193
19.84028,42954
19.84962,40129
19.85897,41306
19.86830,45863
19.87763,61892
19.88698,71866
19.89632,65878
19.90567,55642
19.91500,47218
19.92433,43393
19.93368,44769
19.94302,42036
19.95235,40160
19.96170,42935
19.97103,45234
19.98037,43448
19.98972,40871
19.99905,37843
20.00838,38509
20.01773,39709
20.02707,43546
20.03640,46661
20.04575,48272
20.05508,48975
20.06443,44227
20.07377,44875
20.08310,47861
20.09245,46314
20.10178,46789
20.11112,40943
20.12047,38649
20.12980,36871
20.13913,38226
20.14848,43879
20.15782,52612
20.16715,56186
20.17650,54278
20.18583,44751
20.19517,39303
20.20452,39761
20.21385,39290
20.22318,41293
20.23253,42142
20.24187,41203
20.25122,39329
20.26055,38420
20.26988,40155
20.27923,39694
20.28857,39239
20.29790,41301
20.30725,40912
20.31658,37380
20.32592,35665
20.33527,35929
20.34460,34688
20.35393,35077
20.36328,36966
20.37262,39413
20.38195,39403
20.39130,38359
20.40063,35711
20.40997,37082
20.41932,37486
20.42865,38352
20.43800,37797
20.44733,39727
20.45667,38887
20.46602,42447
20.47535,48369
20.48468,51232
20.49403,46659
20.50337,42106
20.51270,39211
20.52205,38576
20.53138,37256
20.54072,39044
20.55007,43454
20.55940,48689
20.56873,85780
20.57808,172230
20.58742,255516
20.59675,213547
20.60610,115674
20.61543,62282
20.62478,52005
20.63412,47454
20.64345,46278
20.65280,45850
20.66213,47029
20.67147,44833
20.68082,45737
20.69015,43389
20.69948,43582
20.70883,42667
20.71817,44924
20.72750,44080
20.73685,46296
20.74618,45466
20.75552,42326
20.76487,43478
20.77420,41950
20.78353,38844
20.79288,39826
20.80222,40704
20.81157,44051
20.82090,43226
20.83023,41851
20.83958,39023
20.84892,38779
20.85825,38091
20.86760,35997
20.87693,35524
20.88627,38443
20.89562,41521
20.90495,42907
20.91428,43043
20.92363,45355
20.93297,41961
20.94230,42511
20.95165,39177
20.96098,37878
20.97033,37760
20.97967,37669
20.98900,37968
20.99835,35849
21.00768,38953
21.01702,39365
21.02637,38643
21.03570,37845
21.04503,37993
21.05438,37686
21.06372,38898
21.07305,38406
21.08240,39337
21.09173,38243
21.10107,40160
21.11042,41979
21.11975,40093
21.12908,42588
21.13843,41830
21.14777,40321
21.15712,39923
21.16645,40113
21.17578,46620
21.18513,56567
21.19447,61497
21.20380,56322
21.21315,49198
21.22248,44959
21.23182,41063
21.24117,40754
21.25050,40172
21.25983,38727
21.26918,42210
21.27852,45721
21.28785,51642
21.29720,51854
21.30653,49820
21.31587,47610
21.32522,44925
21.33455,42218
21.34390,44386
21.35323,44151
21.36257,44165
21.37192,42152
21.38125,40592
21.39058,42070
21.39993,43533
21.40927,43760
21.41860,45602
21.42795,45943
21.43728,45700
21.44662,44110
21.45597,41804
21.46530,39908
21.47463,41694
21.48398,42785
21.49332,47241
21.50265,46613
21.51200,45505
21.52133,42864
21.53068,41822
21.54002,40973
21.54935,41456
21.55870,46666
21.56803,54905
21.57737,66826
21.58672,73089
21.59605,59786
21.60538,51329
21.61473,45072
21.62407,45227
21.63340,46648
21.64275,45787
21.65208,44694
21.66142,41943
21.67077,42749
21.68010,47909
21.68945,52403
21.69878,52555
21.70812,48889
21.71747,46909
21.72680,52074
21.73613,49883
21.74548,48036
21.75482,43260
21.76415,42045
21.77350,39509
21.78283,39276
21.79217,42021
21.80152,43309
21.81085,46991
21.82018,54262
21.82953,52996
21.83887,51494
21.84820,46875
21.85755,43344
21.86688,42298
21.87623,43963
21.88557,48581
21.89490,53703
21.90425,54769
21.91358,51999
21.92292,44360
21.93227,42074
21.94160,40313
21.95093,42668
21.96028,43836
21.96962,49282
21.97895,54229
21.98830,59308
21.99763,71072
22.00697,65233
22.01632,59342
22.02565,49687
22.03498,47711
22.04433,53210
22.05367,58101
22.06302,56344
22.07235,53605
22.08168,52426
22.09103,49211
22.10037,47051
22.10970,45898
22.11905,44739
22.12838,43720
22.13772,41807
22.14707,43912
22.15640,49226
22.16573,61835
22.17508,70484
22.18442,69236
22.19375,59029
22.20310,49261
22.21243,46404
22.22177,47508
22.23112,48978
22.24045,49405
22.24980,51331
22.25913,49869
22.26847,52072
22.27782,59427
22.28715,70759
22.29648,78346
22.30583,75055
22.31517,64455
22.32450,55154
22.33385,49923
22.34318,48992
22.35252,55020
22.36187,65413
22.37120,67418
22.38053,71080
22.38988,69578
22.39922,63366
22.40855,57096
22.41790,51219
22.42723,52488
22.43658,58071
22.44592,61463
22.45525,60527
22.46460,57175
22.47393,52823
22.48327,51143
22.49262,49405
22.50195,48784
22.51128,48367
22.52063,47688
22.52997,49023
22.53930,49078
22.54865,48240
22.55798,48748
22.56732,54916
22.57667,57705
22.58600,62196
22.59533,62301
22.60468,65010
22.61402,65954
22.62337,63898
22.63270,60177
22.64203,58820
22.65138,53358
22.66072,48293
22.67005,46199
22.67940,50321
22.68873,56138
22.69807,62108
22.70742,62491
22.71675,56112
22.72608,55842
22.73543,57093
22.74477,62607
22.75410,64165
22.76345,62364
22.77278,59763
22.78213,56943
22.79147,55521
22.80080,60025
22.81015,66177
22.81948,65043
22.82882,58111
22.83817,54663
22.84750,53287
22.85683,51122
22.86618,49943
22.87552,49609
22.88485,50954
22.89420,50629
22.90353,50955
22.91287,51160
22.92222,53404
22.93155,58956
22.94088,57881
22.95023,53825
22.95957,51954
22.96892,49297
22.97825,49150
22.98758,45123
22.99693,45705
23.00627,44172
23.01560,43137
23.02495,43307
23.03428,43146
23.04362,40369
23.05297,44031
23.06230,42814
23.07163,43108
23.08098,42044
23.09032,41336
23.09965,42945
23.10900,42577
23.11833,40257
23.12767,39998
23.13702,40986
23.14635,40789
23.15570,41764
23.16503,42753
23.17437,41490
23.18372,46090
23.19305,41739
23.20238,43731
23.21173,40143
23.22107,41682
23.23040,40492
23.23975,41728
23.24908,48774
23.25842,51535
23.26777,52846
23.27710,48275
23.28643,48580
23.29578,42246
23.30512,40426
23.31445,44142
23.32380,45568
23.33313,53269
23.34248,64693
23.35182,62695
23.36115,53347
23.37050,47558
23.37983,43938
23.38917,45333
23.39852,42959
23.40785,44071
23.41718,41989
23.42653,41504
23.43587,42829
23.44520,43525
23.45455,42155
23.46388,41475
23.47322,44639
23.48257,43554
23.49190,42331
23.50125,44807
23.51058,44129
23.51992,44006
23.52927,50989
23.53860,53686
23.54793,51578
23.55728,46471
23.56662,45026
23.57595,41723
23.58530,42434
23.59463,42172
23.60397,41231
23.61332,41672
23.62265,40366
23.63198,38187
23.64133,39315
23.65067,39052
23.66000,39891
23.66935,40388
23.67868,40293
23.68803,41366
23.69737,42394
23.70670,45044
23.71605,45391
23.72538,46464
23.73472,49043
23.74407,50421
23.75340,48090
23.76273,43554
23.77208,39655
23.78142,39305
23.79075,40327
23.80010,40396
23.80943,39927
23.81877,39098
23.82812,39282
23.83745,38058
23.84678,38088
23.85613,39455
23.86547,38097
23.87482,38848
23.88415,39981
23.89348,40885
23.90283,42483
23.91217,43343
23.92150,41826
23.93085,40894
23.94018,40100
23.94952,40697
23.95887,40093
23.96820,38334
23.97753,37214
23.98688,38780
23.99622,37050
24.00555,40206
24.01490,40048
24.02423,40859
24.03357,38156
24.04292,38981
24.05225,38251
24.06160,39033
24.07093,39301
24.08027,40125
24.08962,41015
24.09895,40227
24.10828,39406
24.11763,40216
24.12697,38381
24.13630,38704
24.14565,38609
24.15498,40352
24.16432,39625
24.17367,38559
24.18300,38440
24.19233,40075
24.20168,38632
24.21102,37757
24.22035,36864
24.22970,38955
24.23903,40127
24.24838,38812
24.25772,41045
24.26705,40123
24.27640,41276
24.28573,41681
24.29507,39426
24.30442,41371
24.31375,39166
24.32308,43218
24.33243,46011
24.34177,43794
24.35110,41309
24.36045,39401
24.36978,40345
24.37912,39740
24.38847,40864
24.39780,41012
24.40715,41151
24.41648,40951
24.42582,39868
24.43517,38594
24.44450,39948
24.45383,39676
24.46318,38449
24.47252,38668
24.48185,39901
24.49120,39356
24.50053,39172
24.50987,41283
24.51922,42119
24.52855,39830
24.53788,41054
24.54723,41308
24.55657,44193
24.56590,42799
24.57525,43663
24.58458,41779
24.59393,40738
24.60327,41203
24.61260,41271
24.62195,42575
24.63128,44509
24.64062,42650
24.64997,40847
24.65930,41818
24.66863,42432
24.67798,43025
24.68732,40046
24.69665,40388
24.70600,41301
24.71533,41532
24.72467,41589
24.73402,40913
24.74335,39348
24.75268,40226
24.76203,40643
24.77137,39193
24.78072,38614
24.79005,39824
24.79938,38711
24.80873,41578
24.81807,40330
24.82740,40519
24.83675,38997
24.84608,38815
24.85542,37967
24.86477,40416
24.87410,40004
24.88343,38861
24.89278,39468
24.90212,42685
24.91145,41418
24.92080,40505
24.93013,39921
24.93947,40139
24.94882,42124
24.95815,41597
24.96750,39350
24.97683,40989
24.98617,41344
24.99552,40421
25.00485,41829
25.01418,40499
25.02353,40672
25.03287,40295
25.04220,39891
25.05155,37698
25.06088,42213
25.07022,39876
25.07957,40048
25.08890,39865
25.09823,41243
25.10758,41868
25.11692,40822
25.12627,41892
25.13560,44510
25.14493,43619
25.15428,46953
25.16362,47469
25.17295,46826
25.18230,44669
25.19163,43553
25.20097,43777
25.21032,42266
25.21965,42911
25.22898,44107
25.23833,42843
25.24767,44102
25.25700,42090
25.26635,44095
25.27568,44008
25.28502,45993
25.29437,44271
25.30370,44951
25.31305,50898
25.32238,75115
25.33172,124136
25.34107,192231
25.35040,212549
25.35973,154840
25.36908,103904
25.37842,81932
25.38775,73237
25.39710,69065
25.40643,64300
25.41577,62172
25.42512,61877
25.43445,62607
25.44378,61456
25.45313,64915
25.46247,62564
25.47180,63370
25.48115,65424
25.49048,68005
25.49983,70054
25.50917,69022
25.51850,67706
25.52785,65765
25.53718,64525
25.54652,64920
25.55587,64402
25.56520,65023
25.57453,60284
25.58388,61138
25.59322,60037
25.60255,58282
25.61190,54963
25.62123,55956
25.63057,52637
25.63992,55532
25.64925,57083
25.65858,58579
25.66793,57343
25.67727,59223
25.68662,56504
25.69595,53730
25.70528,53877
25.71463,53991
25.72397,52516
25.73330,54626
25.74265,54057
25.75198,53785
25.76132,55443
25.77067,53930
25.78000,52524
25.78933,50960
25.79868,54365
25.80802,55455
25.81735,58512
25.82670,56284
25.83603,58126
25.84537,56019
25.85472,55184
25.86405,53131
25.87340,50917
25.88273,52753
25.89207,50940
25.90142,52215
25.91075,53921
25.92008,52016
25.92943,52233
25.93877,50109
25.94810,52063
25.95745,55308
25.96678,55832
25.97612,53702
25.98547,53628
25.99480,51309
26.00413,49119
26.01348,51975
26.02282,50811
26.03215,48934
26.04150,53600
26.05083,53704
26.06018,55337
26.06952,53743
26.07885,52186
26.08820,51917
26.09753,52502
26.10687,51007
26.11622,53286
26.12555,52568
26.13488,56072
26.14423,57198
26.15357,60122
26.16290,58724
26.17225,57862
26.18158,56437
26.19092,54582
26.20027,52651
26.20960,52786
26.21895,50014
26.22828,49659
26.23762,48603
26.24697,48769
26.25630,49446
26.26563,49010
26.27498,50085
26.28432,50382
26.29365,50102
26.30300,50131
26.31233,51926
26.32167,52728
26.33102,53445
26.34035,51223
26.34968,48226
26.35903,50138
26.36837,49183
26.37770,49644
26.38705,51608
26.39638,50226
26.40573,51836
26.41507,51357
26.42440,49315
26.43375,50553
26.44308,53149
26.45242,52985
26.46177,55982
26.47110,59048
26.48043,55655
26.48978,56547
26.49912,56262
26.50845,56281
26.51780,58246
26.52713,60445
26.53647,63727
26.54582,67208
26.55515,65153
26.56448,61087
26.57383,62160
26.58317,59991
26.59252,59493
26.60185,61164
26.61118,61948
26.62053,61583
26.62987,57677
26.63920,58655
26.64855,56507
26.65788,56552
26.66722,55677
26.67657,55628
26.68590,56594
26.69523,55426
26.70458,57520
26.71392,55815
26.72325,55234
26.73260,56558
26.74193,53518
26.75127,55314
26.76062,54124
26.76995,53944
26.77930,53058
26.78863,55523
26.79797,54117
26.80732,56443
26.81665,55118
26.82598,54061
26.83533,53642
26.84467,53358
26.85400,53613
26.86335,51949
26.87268,51973
26.88202,52090
26.89137,49878
26.90070,49779
26.91003,51219
26.91938,49140
26.92872,48739
26.93807,49085
26.94740,51849
26.95673,47641
26.96608,49881
26.97542,50063
26.98475,51632
26.99410,50400
27.00343,54556
27.01277,57539
27.02212,58112
27.03145,52422
27.04078,54653
27.05013,55026
27.05947,54985
27.06880,58099
27.07815,56627
27.08748,54611
27.09682,54469
27.10617,53570
27.11550,52450
27.12485,53441
27.13418,58928
27.14352,57114
27.15287,60380
27.16220,59410
27.17153,58288
27.18088,57250
27.19022,55225
27.19955,59990
27.20890,62339
27.21823,63709
27.22757,64954
27.23692,69825
27.24625,73559
27.25558,78616
27.26493,80301
27.27427,81318
27.28360,80628
27.29295,77921
27.30228,75259
27.31163,78358
27.32097,77015
27.33030,75155
27.33965,77390
27.34898,70659
27.35832,70965
27.36767,68461
27.37700,67655
27.38633,64869
27.39568,62536
27.40502,62788
27.41435,62953
27.42370,60401
27.43303,63632
27.44237,62286
27.45172,62435
27.46105,61101
27.47038,61435
27.47973,65332
27.48907,71199
27.49842,77118
27.50775,81183
27.51708,84928
27.52643,89377
27.53577,92728
27.54510,93326
27.55445,89192
27.56378,88302
27.57312,81551
27.58247,78205
27.59180,73516
27.60113,71327
27.61048,69208
27.61982,67333
27.62915,65889
27.63850,63955
27.64783,63531
27.65717,63244
27.66652,72836
27.67585,93266
27.68520,111612
27.69453,109592
27.70387,89420
27.71322,77071
27.72255,68201
27.73188,65391
27.74123,65220
27.75057,60385
27.75990,62579
27.76925,61815
27.77858,61041
27.78792,62629
27.79727,63646
27.80660,61788
27.81593,61351
27.82528,57401
27.83462,58630
27.84397,58775
27.85330,56817
27.86263,58803
27.87198,59472
27.88132,58107
27.89065,57373
27.90000,59378
27.90933,57871
27.91867,58274
27.92802,58694
27.93735,57691
27.94668,56424
27.95603,58862
27.96537,55366
27.97470,54708
27.98405,56830
27.99338,55387
28.00272,55242
28.01207,54461
28.02140,55968
28.03075,53146
28.04008,53278
28.04942,54236
28.05877,55715
28.06810,56498
28.07743,55580
28.08678,56148
28.09612,57002
28.10545,56839
28.11480,62976
28.12413,65697
28.13347,72764
28.14282,72764
28.15215,67360
28.16148,64757
28.17083,62620
28.18017,60885
28.18950,63002
28.19885,61563
28.20818,60975
28.21753,62515
28.22687,59058
28.23620,57413
28.24555,60941
28.25488,59221
28.26422,57818
28.27357,56788
28.28290,58077
28.29223,55718
28.30158,57660
28.31092,58522
28.32025,58228
28.32960,55173
28.33893,56455
28.34827,54806
28.35762,56006
28.36695,57141
28.37628,55413
28.38563,57414
28.39497,56929
28.40432,57935
28.41365,56438
28.42298,59169
28.43233,58027
28.44167,61631
28.45100,59603
28.46035,61050
28.46968,61342
28.47902,58899
28.48837,58999
28.49770,59260
28.50703,60702
28.51638,60042
28.52572,57548
28.53505,60771
28.54440,60053
28.55373,60666
28.56308,58257
28.57242,61701
28.58175,62271
28.59110,62445
28.60043,66098
28.60977,63909
28.61912,63960
28.62845,64788
28.63778,62884
28.64713,62574
28.65647,65993
28.66580,74634
28.67515,97792
28.68448,126086
28.69382,134109
28.70317,118673
28.71250,89622
28.72183,76290
28.73118,72160
28.74052,70353
28.74987,67676
28.75920,66982
28.76853,65059
28.77788,64393
28.78722,61671
28.79655,61930
28.80590,65459
28.81523,62099
28.82457,65191
28.83392,64783
28.84325,64992
28.85258,62828
28.86193,62128
28.87127,61911
28.88060,63467
28.88995,63647
28.89928,63069
28.90862,66095
28.91797,64947
28.92730,62074
28.93665,64824
28.94598,61731
28.95532,63964
28.96467,67505
28.97400,69807
28.98333,69679
28.99268,71237
29.00202,69324
29.01135,65278
29.02070,65477
29.03003,66572
29.03937,65962
29.04872,64520
29.05805,65528
29.06738,67908
29.07673,66623
29.08607,66787
29.09540,65049
29.10475,65369
29.11408,62630
29.12343,64278
29.13277,66389
29.14210,66768
29.15145,64896
29.16078,62896
29.17012,65104
29.17947,68392
29.18880,71650
29.19813,77779
29.20748,95627
29.21682,101590
29.22615,93487
29.23550,81190
29.24483,78180
29.25417,72702
29.26352,69369
29.27285,72647
29.28218,70582
29.29153,70267
29.30087,67032
29.31022,68546
29.31955,65808
29.32888,69304
29.33823,65759
29.34757,65103
29.35690,67269
29.36625,63773
29.37558,67854
29.38492,64823
29.39427,67759
29.40360,63387
29.41293,64384
29.42228,66617
29.43162,67674
29.44095,66925
29.45030,68751
29.45963,71694
29.46897,71022
29.47832,70588
29.48765,70080
29.49700,70204
29.50633,68360
29.51567,69187
29.52502,68160
29.53435,68262
29.54368,67171
29.55303,65438
29.56237,70357
29.57170,66741
29.58105,66367
29.59038,65297
29.59972,66809
29.60907,65675
29.61840,66351
29.62773,64730
29.63708,65900
29.64642,65804
29.65577,64901
29.66510,66233
29.67443,67506
29.68378,67523
29.69312,65998
29.70245,64717
29.71180,65368
29.72113,66479
29.73047,66933
29.73982,71796
29.74915,72806
29.75848,74433
29.76783,72468
29.77717,68108
29.78650,66916
29.79585,67066
29.80518,65335
29.81452,64758
29.82387,64541
29.83320,66844
29.84255,64119
29.85188,66255
29.86122,67437
29.87057,65769
29.87990,66857
29.88923,64805
29.89858,65124
29.90792,67704
29.91725,65814
29.92660,66996
29.93593,67726
29.94527,69749
29.95462,69794
29.96395,68976
29.97328,70985
29.98263,73573
29.99197,75048
30.00130,74898
30.01065,72278
30.01998,73622
30.02933,67822
30.03867,68139
30.04800,69966
30.05735,68008
30.06668,64529
30.07602,67524
30.08537,68267
30.09470,69685
30.10403,71845
30.11338,75432
30.12272,82155
30.13205,85738
30.14140,94054
30.15073,98593
30.16007,101535
30.16942,104548
30.17875,106400
30.18808,101850
30.19743,98436
30.20677,93814
30.21612,89880
30.22545,85388
30.23478,81215
30.24413,79642
30.25347,78725
30.26280,74636
30.27215,75745
30.28148,76227
30.29082,74348
30.30017,74924
30.30950,74578
30.31883,73732
30.32818,71799
30.33752,74384
30.34685,73634
30.35620,73843
30.36553,75911
30.37488,75339
30.38422,80537
30.39355,95044
30.40290,112213
30.41223,126363
30.42157,125112
30.43092,113293
30.44025,100908
30.44958,88405
30.45893,86560
30.46827,80766
30.47760,80910
30.48695,78473
30.49628,76087
30.50562,74429
30.51497,71044
30.52430,71468
30.53363,70744
30.54298,73132
30.55232,69810
30.56167,73172
30.57100,71934
30.58033,71556
30.58968,75048
30.59902,76028
30.60835,76041
30.61770,83220
30.62703,86577
30.63637,89341
30.64572,97133
30.65505,100298
30.66438,99161
30.67373,100721
30.68307,94460
30.69240,91461
30.70175,88320
30.71108,87554
30.72042,86956
30.72977,83591
30.73910,82871
30.74845,81009
30.75778,79745
30.76712,77269
30.77647,75812
30.78580,78065
30.79513,78909
30.80448,77544
30.81382,78741
30.82315,79068
30.83250,78904
30.84183,81094
30.85117,81086
30.86052,83063
30.86985,83678
30.87918,84672
30.88853,87221
30.89787,89139
30.90720,87570
30.91655,84961
30.92588,85897
30.93523,88944
30.94457,86262
30.95390,85018
30.96325,85428
30.97258,87668
30.98192,86342
30.99127,83378
31.00060,83130
31.00993,82406
31.01928,82695
31.02862,81676
31.03795,80113
31.04730,79012
31.05663,80662
31.06597,81672
31.07532,80450
31.08465,82001
31.09398,84501
31.10333,85871
31.11267,86471
31.12202,87690
31.13135,88229
31.14068,91005
31.15003,93152
31.15937,92654
31.16870,93837
31.17805,92497
31.18738,91337
31.19672,93530
31.20607,94072
31.21540,93569
31.22473,88753
31.23408,90798
31.24342,87704
31.25275,89089
31.26210,87260
31.27143,91596
31.28077,87208
31.29012,85137
31.29945,84301
31.30880,86890
31.31813,85249
31.32747,86238
31.33682,83427
31.34615,85357
31.35548,83782
31.36483,83450
