D:\数据\20211216\ZS1E-TJ-000235.D Thu Dec 16 19:36:41 2021
Start of data points
0.09765,27685
0.10700,29239
0.11633,28263
0.12568,27967
0.13502,27392
0.14435,27444
0.15370,28222
0.16303,27977
0.17237,28309
0.18172,27291
0.19105,27923
0.20038,27825
0.20973,26930
0.21907,27416
0.22840,28943
0.23775,26030
0.24708,27355
0.25642,26708
0.26577,27523
0.27510,27045
0.28443,27350
0.29378,26182
0.30312,26941
0.31247,28612
0.32180,27146
0.33113,26313
0.34048,27031
0.34982,27181
0.35915,25993
0.36850,26993
0.37783,28047
0.38717,27415
0.39652,25720
0.40585,27038
0.41518,26484
0.42453,26456
0.43387,25978
0.44320,25937
0.45255,21036
0.46188,18442
0.47123,16702
0.48057,10259
0.48990,6438
0.49925,5898
0.50858,5678
0.51792,5402
0.52727,5735
0.53660,5018
0.54593,5779
0.55528,5139
0.56462,5438
0.57395,4239
0.58330,4710
0.59263,5397
0.60197,5234
0.61132,4421
0.62065,5143
0.62998,5031
0.63933,5644
0.64867,4283
0.65802,4975
0.66735,4684
0.67668,4495
0.68603,5226
0.69537,5042
0.70470,4990
0.71405,4502
0.72338,4944
0.73272,4544
0.74207,4437
0.75140,4798
0.76073,4264
0.77008,4555
0.77942,5056
0.78875,4005
0.79810,4862
0.80743,4543
0.81677,4437
0.82612,4780
0.83545,4249
0.84480,4578
0.85413,4801
0.86347,5026
0.87282,4379
0.88215,4763
0.89148,4143
0.90083,4152
0.91017,5044
0.91950,4123
0.92885,4500
0.93818,4231
0.94752,4506
0.95687,4078
0.96620,3960
0.97553,4921
0.98488,3790
0.99422,4248
1.00355,4621
1.01290,4658
1.02223,4321
1.03158,4311
1.04092,4342
1.05025,4807
1.05960,4730
1.06893,4823
1.07827,4080
1.08762,3900
1.09695,3986
1.10628,3930
1.11563,4503
1.12497,4193
1.13430,4547
1.14365,3879
1.15298,3884
1.16232,4463
1.17167,4484
1.18100,4161
1.19033,4180
1.19968,3881
1.20902,4249
1.21837,4233
1.22770,4637
1.23703,4420
1.24638,4379
1.25572,4440
1.26505,4469
1.27440,4619
1.28373,4096
1.29307,4210
1.30242,4751
1.31175,4346
1.32108,4249
1.33043,4199
1.33977,4487
1.34910,4357
1.35845,3871
1.36778,4433
1.37713,4924
1.38647,4440
1.39580,3663
1.40515,4154
1.41448,3990
1.42382,4272
1.43317,4102
1.44250,4138
1.45183,4708
1.46118,4372
1.47052,4332
1.47985,4058
1.48920,4236
1.49853,3706
1.50787,4408
1.51722,4021
1.52655,3952
1.53588,4051
1.54523,4132
1.55457,4061
1.56392,3137
1.57325,4348
1.58258,3401
1.59193,4482
1.60127,3765
1.61060,5837
1.61995,9964
1.62928,19736
1.63862,23278
1.64797,29269
1.65730,40579
1.66663,53604
1.67598,57456
1.68532,55896
1.69465,49706
1.70400,38358
1.71333,26534
1.72267,20113
1.73202,21658
1.74135,22566
1.75070,26301
1.76003,29558
1.76937,34012
1.77872,36171
1.78805,39420
1.79738,38899
1.80673,38578
1.81607,40994
1.82540,38236
1.83475,37879
1.84408,35002
1.85342,37036
1.86277,36833
1.87210,39302
1.88143,52843
1.89078,84085
1.90012,129655
1.90945,170531
1.91880,209524
1.92813,342273
1.93748,656848
1.94682,1123877
1.95615,1474021
1.96550,1508546
1.97483,1270862
1.98417,958533
1.99352,704662
2.00285,568179
2.01218,508914
2.02153,487143
2.03087,444968
2.04020,346725
2.04955,245943
2.05888,177024
2.06822,134533
2.07757,103114
2.08690,86395
2.09625,78398
2.10558,71721
2.11492,65190
2.12427,67085
2.13360,69593
2.14293,82732
2.15228,103686
2.16162,106957
2.17095,97597
2.18030,101629
2.18963,203044
2.19897,342830
2.20832,291167
2.21765,173993
2.22698,122397
2.23633,139766
2.24567,213978
2.25500,637178
2.26435,2437686
2.27368,3080173
2.28303,2409347
2.29237,1517894
2.30170,998282
2.31105,1895444
2.32038,6081011
2.32972,8434011
2.33907,5739302
2.34840,2668035
2.35773,1148103
2.36708,542798
2.37642,368978
2.38575,367491
2.39510,318405
2.40443,240758
2.41377,191088
2.42312,166727
2.43245,166350
2.44178,163514
2.45113,132424
2.46047,115159
2.46982,128192
2.47915,178037
2.48848,180873
2.49783,148088
2.50717,113967
2.51650,92203
2.52585,85358
2.53518,78262
2.54452,76112
2.55387,80400
2.56320,88000
2.57253,121619
2.58188,308376
2.59122,307372
2.60055,253274
2.60990,223456
2.61923,237479
2.62857,274043
2.63792,250336
2.64725,190684
2.65660,156103
2.66593,144597
2.67527,133321
2.68462,106070
2.69395,85364
2.70328,71416
2.71263,74143
2.72197,110161
2.73130,169389
2.74065,189067
2.74998,185549
2.75932,203958
2.76867,240992
2.77800,307576
2.78733,359930
2.79668,304801
2.80602,240782
2.81535,192465
2.82470,178392
2.83403,166959
2.84338,148214
2.85272,157788
2.86205,211982
2.87140,263780
2.88073,350559
2.89007,291030
2.89942,213355
2.90875,159866
2.91808,132052
2.92743,114615
2.93677,96494
2.94610,85019
2.95545,74240
2.96478,67140
2.97412,63752
2.98347,62704
2.99280,62541
3.00213,65511
3.01148,73377
3.02082,72229
3.03017,71401
3.03950,141642
3.04883,280792
3.05818,302252
3.06752,317840
3.07685,320831
3.08620,269774
3.09553,183735
3.10487,118158
3.11422,83141
3.12355,67255
3.13288,65170
3.14223,69535
3.15157,76557
3.16090,89646
3.17025,98593
3.17958,89004
3.18893,79777
3.19827,68617
3.20760,65895
3.21695,66310
3.22628,66956
3.23562,61610
3.24497,60586
3.25430,60744
3.26363,63903
3.27298,62625
3.28232,56652
3.29165,53167
3.30100,55582
3.31033,57381
3.31967,60195
3.32902,53568
3.33835,51405
3.34768,50704
3.35703,53271
3.36637,52682
3.37572,50419
3.38505,48955
3.39438,45951
3.40373,49347
3.41307,63173
3.42240,77628
3.43175,84916
3.44108,76670
3.45042,79226
3.45977,82857
3.46910,82016
3.47843,70670
3.48778,65130
3.49712,66068
3.50645,62579
3.51580,58829
3.52513,54261
3.53447,50751
3.54382,52994
3.55315,84137
3.56250,214969
3.57183,426233
3.58117,497775
3.59052,362013
3.59985,221869
3.60918,160020
3.61853,134608
3.62787,170870
3.63720,148099
3.64655,127956
3.65588,105125
3.66522,86599
3.67457,88190
3.68390,92267
3.69323,88905
3.70258,74143
3.71192,71182
3.72125,87093
3.73060,111584
3.73993,114030
3.74928,87315
3.75862,68731
3.76795,62490
3.77730,54327
3.78663,50488
3.79597,48785
3.80532,52236
3.81465,68277
3.82398,95063
3.83333,98937
3.84267,82387
3.85200,70103
3.86135,65794
3.87068,60839
3.88002,62419
3.88937,69207
3.89870,80204
3.90805,90079
3.91738,85413
3.92672,78846
3.93607,78582
3.94540,88199
3.95473,130096
3.96408,160719
3.97342,136122
3.98275,98549
3.99210,75100
4.00143,103325
4.01077,97588
4.02012,88723
4.02945,84329
4.03878,81573
4.04813,86352
4.05747,87780
4.06680,85160
4.07615,103951
4.08548,150359
4.09483,191506
4.10417,191445
4.11350,150030
4.12285,109766
4.13218,79410
4.14152,66265
4.15087,62708
4.16020,58911
4.16953,58123
4.17888,56952
4.18822,51601
4.19755,53045
4.20690,52130
4.21623,56082
4.22557,54967
4.23492,54474
4.24425,54254
4.25358,52212
4.26293,52981
4.27227,53458
4.28162,55880
4.29095,73568
4.30028,73676
4.30963,71162
4.31897,67787
4.32830,70054
4.33765,70293
4.34698,70935
4.35632,65367
4.36567,59887
4.37500,54994
4.38433,56559
4.39368,78410
4.40302,85685
4.41235,75906
4.42170,63730
4.43103,55481
4.44037,50640
4.44972,46728
4.45905,49530
4.46840,55828
4.47773,74730
4.48707,103728
4.49642,107091
4.50575,87547
4.51508,65168
4.52443,55505
4.53377,52832
4.54310,53474
4.55245,60199
4.56178,62270
4.57112,57672
4.58047,55582
4.58980,52438
4.59913,52418
4.60848,51266
4.61782,51492
4.62715,48111
4.63650,49330
4.64583,52265
4.65518,61782
4.66452,69657
4.67385,67869
4.68320,63586
4.69253,58642
4.70187,55273
4.71122,52195
4.72055,48061
4.72988,46807
4.73923,44389
4.74857,44788
4.75790,48050
4.76725,52875
4.77658,52713
4.78592,54574
4.79527,53244
4.80460,50492
4.81395,49952
4.82328,50572
4.83262,51407
4.84197,59624
4.85130,63001
4.86063,58431
4.86998,61209
4.87932,64614
4.88865,71162
4.89800,65587
4.90733,57275
4.91667,51625
4.92602,50010
4.93535,50992
4.94468,55373
4.95403,60426
4.96337,55781
4.97270,50565
4.98205,46934
4.99138,46301
5.00073,47511
5.01007,49412
5.01940,51903
5.02875,58609
5.03808,68217
5.04742,66343
5.05677,64853
5.06610,57164
5.07543,54571
5.08478,55921
5.09412,60137
5.10345,58401
5.11280,52701
5.12213,50280
5.13147,47486
5.14082,53597
5.15015,55298
5.15948,62976
5.16883,63441
5.17817,58860
5.18752,63533
5.19685,94278
5.20618,113280
5.21553,97643
5.22487,78078
5.23420,63080
5.24355,61842
5.25288,65802
5.26222,64761
5.27157,92951
5.28090,251674
5.29023,611153
5.29958,910559
5.30892,761549
5.31825,409521
5.32760,171744
5.33693,92691
5.34627,70664
5.35562,61227
5.36495,62859
5.37430,68526
5.38363,79679
5.39297,88215
5.40232,84154
5.41165,73143
5.42098,62788
5.43033,57811
5.43967,52769
5.44900,51113
5.45835,47921
5.46768,48169
5.47702,46446
5.48637,52106
5.49570,54241
5.50503,56847
5.51438,57811
5.52372,59461
5.53307,65085
5.54240,64872
5.55173,63083
5.56108,60824
5.57042,60108
5.57975,60793
5.58910,56703
5.59843,50962
5.60777,48283
5.61712,49635
5.62645,46349
5.63578,45876
5.64513,45903
5.65447,48746
5.66380,51765
5.67315,55035
5.68248,54668
5.69182,56956
5.70117,61934
5.71050,66386
5.71985,66613
5.72918,66286
5.73852,61146
5.74787,64041
5.75720,73871
5.76653,80243
5.77588,83108
5.78522,102867
5.79455,97775
5.80390,76768
5.81323,63595
5.82257,57595
5.83192,58196
5.84125,69285
5.85058,69877
5.85993,63022
5.86927,53414
5.87860,52902
5.88795,51775
5.89728,48533
5.90663,45316
5.91597,62980
5.92530,112077
5.93465,157676
5.94398,147413
5.95332,128757
5.96267,126163
5.97200,108309
5.98133,82208
5.99068,66701
6.00002,56080
6.00935,52195
6.01870,50575
6.02803,45113
6.03737,41955
6.04672,39997
6.05605,35629
6.06538,32485
6.07473,30760
6.08407,29949
6.09342,28366
6.10275,24492
6.11208,23706
6.12143,28242
6.13077,39014
6.14010,56835
6.14945,63952
6.15878,50000
6.16812,34019
6.17747,24225
6.18680,24709
6.19613,24120
6.20548,23403
6.21482,22078
6.22415,22662
6.23350,26123
6.24283,31237
6.25217,31690
6.26152,28509
6.27085,34739
6.28020,71514
6.28953,104874
6.29887,84371
6.30822,54201
6.31755,35105
6.32688,24678
6.33623,20962
6.34557,21103
6.35490,21283
6.36425,21588
6.37358,21016
6.38292,27840
6.39227,46060
6.40160,119162
6.41093,421816
6.42028,915478
6.42962,1036629
6.43895,660644
6.44830,270034
6.45763,99300
6.46698,46318
6.47632,36104
6.48565,31616
6.49500,26872
6.50433,23524
6.51367,25757
6.52302,26326
6.53235,43442
6.54168,27050
6.55103,24015
6.56037,22982
6.56970,21075
6.57905,20383
6.58838,21015
6.59772,24318
6.60707,26729
6.61640,26432
6.62575,27072
6.63508,28102
6.64442,32633
6.65377,33699
6.66310,36322
6.67243,37396
6.68178,34384
6.69112,29988
6.70045,28935
6.70980,37819
6.71913,46450
6.72847,42049
6.73782,36023
6.74715,30633
6.75648,28527
6.76583,25896
6.77517,25025
6.78450,26636
6.79385,31481
6.80318,39067
6.81253,38871
6.82187,34212
6.83120,27994
6.84055,27480
6.84988,28050
6.85922,32477
6.86857,33838
6.87790,28512
6.88723,25724
6.89658,23782
6.90592,24722
6.91525,26909
6.92460,29452
6.93393,28874
6.94327,25952
6.95262,24956
6.96195,24311
6.97128,26563
6.98063,27660
6.98997,27889
6.99932,26707
7.00865,24893
7.01798,24398
7.02733,24539
7.03667,22634
7.04600,18593
7.05535,18563
7.06468,16006
7.07402,18209
7.08337,18620
7.09270,19184
7.10203,21863
7.11138,29217
7.12072,32301
7.13005,30053
7.13940,26822
7.14873,23018
7.15807,21050
7.16742,20437
7.17675,19819
7.18610,19866
7.19543,20721
7.20477,22023
7.21412,24276
7.22345,28616
7.23278,57801
7.24213,129438
7.25147,199603
7.26080,176907
7.27015,103337
7.27948,54174
7.28882,39532
7.29817,35640
7.30750,32418
7.31683,26610
7.32618,22230
7.33552,20626
7.34487,20194
7.35420,19328
7.36353,18134
7.37288,18951
7.38222,21283
7.39155,35365
7.40090,96151
7.41023,225143
7.41957,328625
7.42892,317212
7.43825,205989
7.44758,107063
7.45693,54631
7.46627,31481
7.47560,24627
7.48495,28430
7.49428,41536
7.50362,44087
7.51297,37734
7.52230,28939
7.53165,23596
7.54098,19594
7.55032,19022
7.55967,22132
7.56900,24260
7.57833,24323
7.58768,26762
7.59702,27899
7.60635,27657
7.61570,26709
7.62503,27603
7.63437,28375
7.64372,29582
7.65305,27258
7.66238,23724
7.67173,21387
7.68107,24269
7.69040,24552
7.69975,28967
7.70908,33025
7.71843,39940
7.72777,41815
7.73710,38563
7.74645,37117
7.75578,36722
7.76512,38176
7.77447,36168
7.78380,34258
7.79313,38393
7.80248,39611
7.81182,34395
7.82115,27617
7.83050,23443
7.83983,22777
7.84917,25501
7.85852,38493
7.86785,68290
7.87718,105736
7.88653,117046
7.89587,85089
7.90522,64141
7.91455,86242
7.92388,152381
7.93323,185219
7.94257,139404
7.95190,103225
7.96125,123278
7.97058,117633
7.97992,89395
7.98927,68279
7.99860,57279
8.00793,45246
8.01728,36402
8.02662,32844
8.03595,37201
8.04530,47854
8.05463,59100
8.06397,53313
8.07332,37784
8.08265,31234
8.09200,49992
8.10133,87582
8.11067,99398
8.12002,82526
8.12935,54306
8.13868,40465
8.14803,36571
8.15737,33191
8.16670,30493
8.17605,28670
8.18538,27367
8.19472,26566
8.20407,28096
8.21340,27414
8.22273,27081
8.23208,30427
8.24142,35396
8.25077,37949
8.26010,39916
8.26943,35024
8.27878,29952
8.28812,27892
8.29745,25252
8.30680,24087
8.31613,25596
8.32547,25808
8.33482,24954
8.34415,25925
8.35348,25522
8.36283,23442
8.37217,23956
8.38150,22504
8.39085,29260
8.40018,35666
8.40952,37590
8.41887,38591
8.42820,36917
8.43755,34715
8.44688,33488
8.45622,30757
8.46557,29759
8.47490,29529
8.48423,30041
8.49358,29676
8.50292,27886
8.51225,27369
8.52160,27429
8.53093,24495
8.54027,24544
8.54962,24909
8.55895,26384
8.56828,28481
8.57763,28860
8.58697,29442
8.59630,33325
8.60565,38496
8.61498,40744
8.62433,40340
8.63367,34729
8.64300,30338
8.65235,28451
8.66168,28582
8.67102,30946
8.68037,30132
8.68970,29967
8.69903,27921
8.70838,31251
8.71772,29854
8.72705,27467
8.73640,25238
8.74573,30736
8.75507,40181
8.76442,48122
8.77375,44165
8.78308,37709
8.79243,37613
8.80177,48041
8.81112,84647
8.82045,112212
8.82978,98832
8.83913,60631
8.84847,36931
8.85780,31962
8.86715,31385
8.87648,32402
8.88582,34366
8.89517,35777
8.90450,33763
8.91383,31650
8.92318,32219
8.93252,31891
8.94185,31065
8.95120,30295
8.96053,26197
8.96988,25003
8.97922,25688
8.98855,27789
8.99790,27990
9.00723,31368
9.01657,34782
9.02592,32718
9.03525,31745
9.04458,30376
9.05393,30431
9.06327,31021
9.07260,34140
9.08195,39562
9.09128,45304
9.10062,47878
9.10997,43121
9.11930,36068
9.12863,35789
9.13798,36364
9.14732,42877
9.15667,40302
9.16600,34958
9.17533,32751
9.18468,31271
9.19402,32351
9.20335,33528
9.21270,39364
9.22203,62966
9.23137,112714
9.24072,138430
9.25005,118861
9.25938,77988
9.26873,50852
9.27807,43263
9.28740,41701
9.29675,41775
9.30608,41735
9.31542,41139
9.32477,47433
9.33410,68698
9.34345,85418
9.35278,73370
9.36212,72342
9.37147,142767
9.38080,245726
9.39013,265253
9.39948,201089
9.40882,132822
9.41815,88675
9.42750,73926
9.43683,66790
9.44617,59052
9.45552,43583
9.46485,35432
9.47418,31315
9.48353,30952
9.49287,32988
9.50220,39285
9.51155,38506
9.52088,35115
9.53023,35694
9.53957,42156
9.54890,51168
9.55825,67620
9.56758,92446
9.57692,98648
9.58627,76318
9.59560,56187
9.60493,59092
9.61428,65093
9.62362,57435
9.63295,46991
9.64230,39718
9.65163,37804
9.66097,38180
9.67032,39412
9.67965,35302
9.68898,34376
9.69833,33766
9.70767,31299
9.71702,43363
9.72635,110540
9.73568,366597
9.74503,891888
9.75437,1264483
9.76370,1038718
9.77305,554388
9.78238,258484
9.79172,151474
9.80107,118041
9.81040,94731
9.81973,82042
9.82908,86002
9.83842,98620
9.84775,110625
9.85710,112269
9.86643,97084
9.87578,73383
9.88512,69148
9.89445,82213
9.90380,89221
9.91313,85029
9.92247,85574
9.93182,99673
9.94115,93995
9.95048,70805
9.95983,53614
9.96917,48134
9.97850,65340
9.98785,132447
9.99718,204653
10.00652,196171
10.01587,124523
10.02520,73570
10.03453,51268
10.04388,44752
10.05322,42912
10.06257,51881
10.07190,69363
10.08123,89500
10.09058,87812
10.09992,67481
10.10925,57149
10.11860,100294
10.12793,255029
10.13727,437236
10.14662,503680
10.15595,985929
10.16528,2857134
10.17463,4905421
10.18397,4166921
10.19330,1696474
10.20265,370589
10.21198,85612
10.22132,54730
10.23067,53037
10.24000,69408
10.24935,96930
10.25868,103728
10.26802,77922
10.27737,54584
10.28670,46556
10.29603,44963
10.30538,44570
10.31472,42286
10.32405,40298
10.33340,38905
10.34273,37188
10.35207,38334
10.36142,38856
10.37075,39811
10.38008,37226
10.38943,34082
10.39877,31868
10.40810,31855
10.41745,32165
10.42678,31792
10.43613,33236
10.44547,36661
10.45480,39701
10.46415,48307
10.47348,56677
10.48282,58843
10.49217,50680
10.50150,39344
10.51083,34837
10.52018,33239
10.52952,31615
10.53885,33612
10.54820,34245
10.55753,33993
10.56687,34492
10.57622,34409
10.58555,34642
10.59490,33456
10.60423,30867
10.61357,32005
10.62292,32166
10.63225,37102
10.64158,44385
10.65093,44206
10.66027,39367
10.66960,38645
10.67895,42903
10.68828,48596
10.69762,50301
10.70697,44702
10.71630,45284
10.72563,53496
10.73498,54097
10.74432,52264
10.75365,76161
10.76300,161109
10.77233,241124
10.78168,207015
10.79102,146464
10.80035,151480
10.80970,214861
10.81903,233539
10.82837,158668
10.83772,81759
10.84705,52146
10.85638,41166
10.86573,42058
10.87507,47431
10.88440,61602
10.89375,73407
10.90308,69591
10.91242,53860
10.92177,48178
10.93110,49003
10.94043,50289
10.94978,44787
10.95912,42619
10.96847,40473
10.97780,43894
10.98713,38535
10.99648,34664
11.00582,33160
11.01515,32414
11.02450,33158
11.03383,32273
11.04317,31452
11.05252,33399
11.06185,32493
11.07118,35170
11.08053,34838
11.08987,33600
11.09920,34709
11.10855,43910
11.11788,58691
11.12722,64037
11.13657,55384
11.14590,44144
11.15525,39422
11.16458,39724
11.17392,36108
11.18327,34313
11.19260,33071
11.20193,32225
11.21128,31555
11.22062,33528
11.22995,37641
11.23930,39446
11.24863,35253
11.25797,37513
11.26732,48685
11.27665,49770
11.28598,43403
11.29533,36922
11.30467,33575
11.31400,35012
11.32335,32852
11.33268,37189
11.34203,49747
11.35137,65871
11.36070,79425
11.37005,80556
11.37938,66053
11.38872,53096
11.39807,48236
11.40740,56014
11.41673,61688
11.42608,55389
11.43542,42643
11.44475,34871
11.45410,34936
11.46343,40970
11.47277,56676
11.48212,66071
11.49145,58364
11.50078,40158
11.51013,33319
11.51947,33242
11.52882,30813
11.53815,31103
11.54748,30370
11.55683,38278
11.56617,56684
11.57550,104626
11.58485,152351
11.59418,158244
11.60352,124228
11.61287,87135
11.62220,69940
11.63153,62330
11.64088,55848
11.65022,49969
11.65955,51455
11.66890,54271
11.67823,54695
11.68758,48969
11.69692,42633
11.70625,40158
11.71560,42522
11.72493,39736
11.73427,39581
11.74362,38085
11.75295,37449
11.76228,38584
11.77163,37132
11.78097,44342
11.79030,55306
11.79965,60236
11.80898,53242
11.81832,48232
11.82767,50726
11.83700,52630
11.84633,49581
11.85568,44669
11.86502,42363
11.87437,43123
11.88370,45609
11.89303,45084
11.90238,40770
11.91172,40312
11.92105,35559
11.93040,36616
11.93973,47718
11.94907,68602
11.95842,85675
11.96775,74987
11.97708,50523
11.98643,39848
11.99577,39938
12.00510,45236
12.01445,65110
12.02378,81537
12.03312,76576
12.04247,63694
12.05180,51891
12.06115,47357
12.07048,39662
12.07982,37075
12.08917,36576
12.09850,38433
12.10783,37849
12.11718,35873
12.12652,35045
12.13585,33738
12.14520,36795
12.15453,41089
12.16387,49058
12.17322,79837
12.18255,136212
12.19188,148592
12.20123,98482
12.21057,54610
12.21990,42682
12.22925,44658
12.23858,54235
12.24793,51178
12.25727,46557
12.26660,51267
12.27595,91757
12.28528,162480
12.29462,180169
12.30397,120788
12.31330,68536
12.32263,50201
12.33198,48507
12.34132,50490
12.35065,51436
12.36000,47221
12.36933,44600
12.37867,46875
12.38802,56282
12.39735,60601
12.40670,62558
12.41603,53917
12.42537,44918
12.43472,43829
12.44405,38989
12.45338,40594
12.46273,39951
12.47207,43876
12.48140,46945
12.49075,46506
12.50008,47709
12.50942,49860
12.51877,47374
12.52810,46604
12.53743,47229
12.54678,49392
12.55612,53022
12.56545,63561
12.57480,71870
12.58413,65446
12.59348,50248
12.60282,41826
12.61215,40012
12.62150,45086
12.63083,57620
12.64017,82508
12.64952,107650
12.65885,108577
12.66818,96272
12.67753,72824
12.68687,57007
12.69620,42816
12.70555,36446
12.71488,39444
12.72422,43743
12.73357,44440
12.74290,44136
12.75223,48817
12.76158,50594
12.77092,46308
12.78027,39028
12.78960,36309
12.79893,36908
12.80828,39702
12.81762,41858
12.82695,40927
12.83630,40933
12.84563,39502
12.85497,36237
12.86432,34845
12.87365,35196
12.88298,34517
12.89233,37012
12.90167,43347
12.91100,44275
12.92035,40140
12.92968,37472
12.93902,37264
12.94837,37359
12.95770,39616
12.96705,41850
12.97638,40171
12.98572,36467
12.99507,33517
13.00440,34567
13.01373,38052
13.02308,45145
13.03242,56177
13.04175,61887
13.05110,60632
13.06043,48170
13.06977,45249
13.07912,51151
13.08845,52070
13.09778,50595
13.10713,46515
13.11647,43555
13.12580,43244
13.13515,47047
13.14448,54125
13.15383,60577
13.16317,63765
13.17250,67261
13.18185,63444
13.19118,61977
13.20052,95523
13.20987,217700
13.21920,355115
13.22853,342285
13.23788,217363
13.24722,139545
13.25655,137698
13.26590,123320
13.27523,94464
13.28457,80754
13.29392,76894
13.30325,68920
13.31260,59646
13.32193,58260
13.33127,61632
13.34062,60240
13.34995,59014
13.35928,57253
13.36863,53951
13.37797,47198
13.38730,44968
13.39665,52876
13.40598,58117
13.41532,60835
13.42467,50232
13.43400,49354
13.44333,56657
13.45268,60881
13.46202,58359
13.47135,55560
13.48070,55700
13.49003,58157
13.49938,51967
13.50872,48724
13.51805,63271
13.52740,108780
13.53673,155512
13.54607,135613
13.55542,86053
13.56475,54246
13.57408,46075
13.58343,40696
13.59277,38842
13.60210,34965
13.61145,35769
13.62078,34318
13.63012,37739
13.63947,40347
13.64880,41815
13.65813,46900
13.66748,46943
13.67682,44549
13.68617,39949
13.69550,35615
13.70483,35747
13.71418,33667
13.72352,34279
13.73285,33953
13.74220,32848
13.75153,33538
13.76087,36555
13.77022,38149
13.77955,36526
13.78888,35528
13.79823,38824
13.80757,46194
13.81690,54186
13.82625,48607
13.83558,41079
13.84492,37268
13.85427,37283
13.86360,38162
13.87295,43209
13.88228,46514
13.89162,59043
13.90097,88282
13.91030,161793
13.91963,306347
13.92898,405256
13.93832,295322
13.94765,135965
13.95700,72652
13.96633,61857
13.97567,56080
13.98502,48246
13.99435,45114
14.00368,47596
14.01303,47613
14.02237,42994
14.03170,41530
14.04105,53464
14.05038,214980
14.05973,1297870
14.06907,4598419
14.07840,8704110
14.08775,8924429
14.09708,4398412
14.10642,954529
14.11577,154171
14.12510,70585
14.13443,57303
14.14378,56080
14.15312,56679
14.16245,62433
14.17180,63976
14.18113,65785
14.19047,79165
14.19982,105392
14.20915,114627
14.21850,85072
14.22783,54259
14.23717,39926
14.24652,36621
14.25585,34848
14.26518,37896
14.27453,39960
14.28387,41193
14.29320,37280
14.30255,38824
14.31188,40207
14.32122,48707
14.33057,61721
14.33990,70989
14.34923,66186
14.35858,54558
14.36792,45762
14.37725,37843
14.38660,36373
14.39593,37231
14.40528,40618
14.41462,37959
14.42395,35941
14.43330,33995
14.44263,36326
14.45197,44006
14.46132,60437
14.47065,75363
14.47998,79662
14.48933,65081
14.49867,55255
14.50800,48791
14.51735,44138
14.52668,37665
14.53602,36136
14.54537,36775
14.55470,39122
14.56403,43445
14.57338,44841
14.58272,41400
14.59207,39915
14.60140,37711
14.61073,37215
14.62008,38657
14.62942,39421
14.63875,45055
14.64810,58486
14.65743,76417
14.66677,89773
14.67612,76889
14.68545,60227
14.69478,51915
14.70413,48182
14.71347,43692
14.72280,41337
14.73215,40616
14.74148,41166
14.75082,41830
14.76017,42868
14.76950,43050
14.77885,44717
14.78818,48478
14.79752,48873
14.80687,47504
14.81620,44160
14.82553,43993
14.83488,43435
14.84422,42568
14.85355,37955
14.86290,42706
14.87223,54555
14.88157,63683
14.89092,58736
14.90025,47986
14.90958,41034
14.91893,40866
14.92827,41077
14.93760,43871
14.94695,42964
14.95628,43020
14.96563,45909
14.97497,48963
14.98430,49094
14.99365,45358
15.00298,44104
15.01232,50231
15.02167,53614
15.03100,51758
15.04033,46500
15.04968,47995
15.05902,53853
15.06835,54546
15.07770,53854
15.08703,48553
15.09637,43722
15.10572,40304
15.11505,40469
15.12440,46678
15.13373,54873
15.14307,60019
15.15242,56175
15.16175,46576
15.17108,41451
15.18043,39840
15.18977,44019
15.19910,52814
15.20845,73045
15.21778,101546
15.22712,118698
15.23647,104281
15.24580,76935
15.25513,59698
15.26448,49799
15.27382,43633
15.28315,44565
15.29250,43857
15.30183,43369
15.31118,43643
15.32052,40025
15.32985,47275
15.33920,52601
15.34853,55126
15.35787,49995
15.36722,52735
15.37655,60744
15.38588,63078
15.39523,52853
15.40457,42221
15.41390,39144
15.42325,41110
15.43258,45172
15.44192,44634
15.45127,43421
15.46060,39805
15.46993,39079
15.47928,37590
15.48862,41483
15.49797,43352
15.50730,49715
15.51663,65598
15.52598,83918
15.53532,84216
15.54465,66589
15.55400,52448
15.56333,42124
15.57267,39237
15.58202,37902
15.59135,38750
15.60068,41335
15.61003,42817
15.61937,43799
15.62870,46299
15.63805,50972
15.64738,56884
15.65672,56878
15.66607,55966
15.67540,55828
15.68475,55998
15.69408,57531
15.70342,69248
15.71277,81177
15.72210,78379
15.73143,61557
15.74078,49637
15.75012,51456
15.75945,59913
15.76880,64222
15.77813,60926
15.78747,54392
15.79682,49307
15.80615,53288
15.81548,80140
15.82483,158188
15.83417,273488
15.84352,364053
15.85285,366139
15.86218,250164
15.87153,132175
15.88087,82427
15.89020,78248
15.89955,85428
15.90888,87454
15.91822,83437
15.92757,65624
15.93690,52819
15.94623,47694
15.95558,45354
15.96492,43795
15.97425,48384
15.98360,61456
15.99293,79380
16.00227,95861
16.01162,85215
16.02095,64914
16.03030,51748
16.03963,47651
16.04897,51388
16.05832,55432
16.06765,54826
16.07698,55061
16.08633,51191
16.09567,46353
16.10500,48019
16.11435,51234
16.12368,56673
16.13302,57439
16.14237,56242
16.15170,48750
16.16103,47147
16.17038,47113
16.17972,43870
16.18905,46339
16.19840,50458
16.20773,60292
16.21708,64397
16.22642,66460
16.23575,66626
16.24510,66963
16.25443,58306
16.26377,56647
16.27312,56733
16.28245,70179
16.29178,122212
16.30113,208927
16.31047,258019
16.31980,188680
16.32915,99569
16.33848,61147
16.34782,49356
16.35717,42175
16.36650,40359
16.37583,40916
16.38518,39440
16.39452,41499
16.40387,44354
16.41320,44287
16.42253,46312
16.43188,47061
16.44122,45545
16.45055,46299
16.45990,56751
16.46923,57163
16.47857,55177
16.48792,49111
16.49725,50248
16.50658,47058
16.51593,48549
16.52527,52915
16.53460,51006
16.54395,49209
16.55328,44523
16.56262,42111
16.57197,40302
16.58130,44074
16.59065,46187
16.59998,46769
16.60932,45493
16.61867,44817
16.62800,50106
16.63733,57475
16.64668,61011
16.65602,57471
16.66535,53055
16.67470,47134
16.68403,46326
16.69337,54811
16.70272,63859
16.71205,64631
16.72138,55144
16.73073,49153
16.74007,57115
16.74940,89786
16.75875,132119
16.76808,123979
16.77743,80050
16.78677,53503
16.79610,44035
16.80545,43218
16.81478,47981
16.82412,54112
16.83347,63023
16.84280,76592
16.85213,93132
16.86148,104323
16.87082,99996
16.88015,82233
16.88950,65432
16.89883,62519
16.90817,63219
16.91752,73286
16.92685,80668
16.93620,74649
16.94553,67889
16.95487,69952
16.96422,75060
16.97355,78369
16.98288,71521
16.99223,60638
17.00157,52444
17.01090,47852
17.02025,51770
17.02958,72503
17.03892,106030
17.04827,112917
17.05760,83269
17.06693,62694
17.07628,54811
17.08562,51033
17.09495,48710
17.10430,51088
17.11363,48986
17.12298,47094
17.13232,49324
17.14165,52680
17.15100,53933
17.16033,49232
17.16967,52345
17.17902,71027
17.18835,116207
17.19768,137832
17.20703,119548
17.21637,82723
17.22570,62745
17.23505,56388
17.24438,52278
17.25372,48719
17.26307,53320
17.27240,56064
17.28173,58907
17.29108,63870
17.30042,69275
17.30977,63003
17.31910,63524
17.32843,62619
17.33778,59521
17.34712,52938
17.35645,49331
17.36580,51739
17.37513,65610
17.38447,126325
17.39382,204484
17.40315,204357
17.41248,132616
17.42183,81290
17.43117,62881
17.44050,54560
17.44985,53757
17.45918,55166
17.46852,53449
17.47787,51309
17.48720,67164
17.49655,215454
17.50588,912622
17.51522,2318036
17.52457,3062736
17.53390,2144940
17.54323,760162
17.55258,173790
17.56192,72300
17.57125,61274
17.58060,63819
17.58993,69272
17.59927,67207
17.60862,61159
17.61795,51516
17.62728,52809
17.63663,51258
17.64597,52217
17.65532,51363
17.66465,56401
17.67398,65850
17.68333,72325
17.69267,79050
17.70200,84783
17.71135,74556
17.72068,67518
17.73002,58296
17.73937,52499
17.74870,53058
17.75803,60982
17.76738,66992
17.77672,67604
17.78605,67499
17.79540,63380
17.80473,60314
17.81407,57242
17.82342,51396
17.83275,50568
17.84210,49730
17.85143,51952
17.86077,62004
17.87012,74123
17.87945,76965
17.88878,67333
17.89813,58771
17.90747,54111
17.91680,47472
17.92615,49203
17.93548,49750
17.94482,50724
17.95417,49316
17.96350,51227
17.97283,54026
17.98218,51840
17.99152,47865
18.00085,48350
18.01020,45540
18.01953,47615
18.02888,46398
18.03822,45542
18.04755,48999
18.05690,55676
18.06623,61485
18.07557,58017
18.08492,47888
18.09425,45131
18.10358,47777
18.11293,52986
18.12227,55906
18.13160,56852
18.14095,53113
18.15028,54527
18.15962,53443
18.16897,54109
18.17830,57762
18.18763,55537
18.19698,50552
18.20632,47180
18.21567,46995
18.22500,46371
18.23433,46957
18.24368,47908
18.25302,42436
18.26235,42779
18.27170,44167
18.28103,51565
18.29037,57061
18.29972,58466
18.30905,66202
18.31838,64750
18.32773,61416
18.33707,60967
18.34640,66615
18.35575,72510
18.36508,76625
18.37442,77094
18.38377,72426
18.39310,69833
18.40245,71686
18.41178,81853
18.42112,78313
18.43047,65272
18.43980,59143
18.44913,64508
18.45848,64773
18.46782,61018
18.47715,55519
18.48650,56114
18.49583,63855
18.50517,84394
18.51452,92923
18.52385,97857
18.53318,81340
18.54253,65771
18.55187,61016
18.56122,60738
18.57055,59043
18.57988,54447
18.58923,48843
18.59857,49567
18.60790,53554
18.61725,63603
18.62658,65561
18.63592,62804
18.64527,63205
18.65460,59581
18.66393,55177
18.67328,55467
18.68262,54072
18.69195,53354
18.70130,53300
18.71063,60190
18.71997,62181
18.72932,68387
18.73865,68911
18.74800,60037
18.75733,56868
18.76667,48962
18.77602,45626
18.78535,42294
18.79468,43072
18.80403,44507
18.81337,46749
18.82270,45594
18.83205,47688
18.84138,47937
18.85072,46009
18.86007,43708
18.86940,43572
18.87873,43562
18.88808,43009
18.89742,44292
18.90675,52171
18.91610,63796
18.92543,69013
18.93478,65840
18.94412,61665
18.95345,61233
18.96280,70015
18.97213,76386
18.98147,76565
18.99082,66946
19.00015,60181
19.00948,52981
19.01883,50966
19.02817,52926
19.03750,53595
19.04685,65557
19.05618,91604
19.06552,107489
19.07487,117581
19.08420,141495
19.09353,162974
19.10288,147699
19.11222,106467
19.12157,71212
19.13090,51358
19.14023,45357
19.14958,46292
19.15892,44267
19.16825,41816
19.17760,43467
19.18693,44320
19.19627,51273
19.20562,52919
19.21495,57039
19.22428,58936
19.23363,59145
19.24297,56493
19.25230,49168
19.26165,47554
19.27098,47661
19.28033,53537
19.28967,57164
19.29900,63853
19.30835,73672
19.31768,90609
19.32702,93929
19.33637,80044
19.34570,61602
19.35503,52093
19.36438,47984
19.37372,45007
19.38305,43586
19.39240,43647
19.40173,46822
19.41107,50150
19.42042,52824
19.42975,49686
19.43908,44043
19.44843,44907
19.45777,41853
19.46712,45117
19.47645,46200
19.48578,50590
19.49513,52682
19.50447,53070
19.51380,48726
19.52315,46682
19.53248,45349
19.54182,47483
19.55117,48044
19.56050,42976
19.56983,43995
19.57918,50244
19.58852,53989
19.59785,52471
19.60720,52843
19.61653,48583
19.62587,48374
19.63522,52332
19.64455,56904
19.65390,58171
19.66323,50801
19.67257,47059
19.68192,48760
19.69125,52939
19.70058,61805
19.70993,68060
19.71927,71061
19.72860,77790
19.73795,85735
19.74728,83988
19.75662,65523
19.76597,56358
19.77530,57098
19.78463,58028
19.79398,55997
19.80332,54851
19.81265,48815
19.82200,48049
19.83133,45862
19.84068,47887
19.85002,43666
19.85935,44681
19.86870,51167
19.87803,66683
19.88737,78048
19.89672,73631
19.90605,57481
19.91538,50274
19.92473,47441
19.93407,47682
19.94340,44782
19.95275,46537
19.96208,48589
19.97142,51088
19.98077,48869
19.99010,45985
19.99943,42533
20.00878,42371
20.01812,45122
20.02747,44750
20.03680,48832
20.04613,51510
20.05548,50799
20.06482,49335
20.07415,48125
20.08350,50076
20.09283,52372
20.10217,49623
20.11152,46984
20.12085,40178
20.13018,40012
20.13953,42171
20.14887,47858
20.15820,57288
20.16755,61812
20.17688,56391
20.18622,49144
20.19557,46510
20.20490,44874
20.21425,44024
20.22358,43136
20.23292,44477
20.24227,43686
20.25160,42460
20.26093,42328
20.27028,40611
20.27962,40199
20.28895,40910
20.29830,42482
20.30763,41595
20.31697,40216
20.32632,39915
20.33565,37167
20.34498,38264
20.35433,38481
20.36367,40363
20.37302,42518
20.38235,43121
20.39168,40219
20.40103,39271
20.41037,39640
20.41970,39139
20.42905,39655
20.43838,40331
20.44772,40272
20.45707,41016
20.46640,43642
20.47573,54134
20.48508,58419
20.49442,52556
20.50375,46565
20.51310,42364
20.52243,42291
20.53177,41576
20.54112,41750
20.55045,45089
20.55980,53588
20.56913,99049
20.57847,204534
20.58782,301083
20.59715,254434
20.60648,133149
20.61583,71404
20.62517,56266
20.63450,51061
20.64385,52399
20.65318,55368
20.66252,53673
20.67187,51361
20.68120,47101
20.69053,49777
20.69988,49558
20.70922,51988
20.71855,48232
20.72790,49569
20.73723,47840
20.74658,45723
20.75592,45949
20.76525,46663
20.77460,44168
20.78393,43191
20.79327,45919
20.80262,52866
20.81195,52584
20.82128,49636
20.83063,44237
20.83997,42318
20.84930,42233
20.85865,40496
20.86798,38204
20.87732,38556
20.88667,40463
20.89600,44923
20.90533,47337
20.91468,48438
20.92402,47254
20.93337,44370
20.94270,40737
20.95203,41155
20.96138,41898
20.97072,38211
20.98005,38275
20.98940,38472
20.99873,40983
21.00807,38755
21.01742,39230
21.02675,39667
21.03608,37911
21.04543,38306
21.05477,38080
21.06410,40413
21.07345,42948
21.08278,41440
21.09213,41316
21.10147,41756
21.11080,41479
21.12015,42153
21.12948,43433
21.13882,44111
21.14817,41709
21.15750,41834
21.16683,42385
21.17618,47019
21.18552,52721
21.19485,58420
21.20420,53182
21.21353,48799
21.22287,43195
21.23222,43683
21.24155,42241
21.25088,39420
21.26023,39868
21.26957,42594
21.27892,45481
21.28825,50895
21.29758,51663
21.30693,47726
21.31627,45489
21.32560,43577
21.33495,44102
21.34428,43876
21.35362,43835
21.36297,43992
21.37230,40032
21.38163,42620
21.39098,40656
21.40032,40667
21.40965,43937
21.41900,45871
21.42833,45552
21.43767,45265
21.44702,41980
21.45635,41347
21.46570,41426
21.47503,42957
21.48437,44129
21.49372,46541
21.50305,45547
21.51238,47937
21.52173,44736
21.53107,41953
21.54040,42946
21.54975,41932
21.55908,48722
21.56842,53441
21.57777,65935
21.58710,72663
21.59643,60157
21.60578,51292
21.61512,46951
21.62445,45688
21.63380,47341
21.64313,47509
21.65248,46085
21.66182,41603
21.67115,42400
21.68050,49638
21.68983,54815
21.69917,55028
21.70852,49263
21.71785,50804
21.72718,51250
21.73653,50378
21.74587,48399
21.75520,46208
21.76455,42365
21.77388,39657
21.78322,39804
21.79257,41619
21.80190,43649
21.81123,47721
21.82058,53175
21.82992,52278
21.83927,53212
21.84860,45675
21.85793,44616
21.86728,41212
21.87662,44858
21.88595,48434
21.89530,53169
21.90463,53631
21.91397,50464
21.92332,43894
21.93265,42361
21.94198,41434
21.95133,41354
21.96067,42883
21.97000,47496
21.97935,55289
21.98868,58953
21.99803,64798
22.00737,67414
22.01670,56750
22.02605,49503
22.03538,50436
22.04472,54119
22.05407,57284
22.06340,56805
22.07273,54139
22.08208,53318
22.09142,51209
22.10075,49392
22.11010,47557
22.11943,45816
22.12877,45091
22.13812,43162
22.14745,43928
22.15678,53596
22.16613,62410
22.17547,68192
22.18482,66134
22.19415,57830
22.20348,52299
22.21283,47713
22.22217,50176
22.23150,55199
22.24085,54933
22.25018,54245
22.25952,49953
22.26887,53743
22.27820,61807
22.28753,70548
22.29688,74824
22.30622,70384
22.31555,61089
22.32490,52791
22.33423,49441
22.34357,49515
22.35292,56255
22.36225,63137
22.37160,69880
22.38093,74362
22.39027,71093
22.39962,65466
22.40895,58319
22.41828,52351
22.42763,56583
22.43697,61255
22.44630,64745
22.45565,62813
22.46498,59994
22.47432,56979
22.48367,54276
22.49300,53519
22.50233,51690
22.51168,54008
22.52102,58214
22.53035,56942
22.53970,51732
22.54903,50470
22.55838,52849
22.56772,55687
22.57705,60890
22.58640,63315
22.59573,66937
22.60507,67289
22.61442,64809
22.62375,68547
22.63308,66272
22.64243,60311
22.65177,57077
22.66110,53795
22.67045,49439
22.67978,55839
22.68912,62860
22.69847,65426
22.70780,66071
22.71715,60182
22.72648,57422
22.73582,62357
22.74517,64707
22.75450,67361
22.76383,64589
22.77318,62153
22.78252,58298
22.79185,57362
22.80120,63417
22.81053,68453
22.81987,66103
22.82922,59813
22.83855,59241
22.84788,54633
22.85723,51910
22.86657,52443
22.87590,53338
22.88525,54583
22.89458,54268
22.90393,54331
22.91327,55905
22.92260,58385
22.93195,60059
22.94128,58187
22.95062,52891
22.95997,54203
22.96930,52607
22.97863,49530
22.98798,47326
22.99732,45699
23.00665,46676
23.01600,45031
23.02533,42215
23.03467,44629
23.04402,45346
23.05335,43070
23.06268,45377
23.07203,43698
23.08137,43870
23.09072,43423
23.10005,39881
23.10938,41250
23.11873,41069
23.12807,39649
23.13740,41438
23.14675,41907
23.15608,40826
23.16542,44100
23.17477,43369
23.18410,45119
23.19343,42778
23.20278,43292
23.21212,42600
23.22145,42088
23.23080,41905
23.24013,43857
23.24947,48174
23.25882,50455
23.26815,53799
23.27750,51973
23.28683,48185
23.29617,47090
23.30552,43925
23.31485,41598
23.32418,44892
23.33353,52509
23.34287,60218
23.35220,62708
23.36155,52446
23.37088,45760
23.38022,42920
23.38957,42291
23.39890,42832
23.40823,42559
23.41758,42966
23.42692,40570
23.43625,42046
23.44560,44058
23.45493,45704
23.46428,44253
23.47362,44461
23.48295,43857
23.49230,43923
23.50163,44617
23.51097,43914
23.52032,44264
23.52965,45546
23.53898,41561
23.54833,41988
23.55767,40923
23.56700,39533
23.57635,40743
23.58568,42971
23.59502,43137
23.60437,41711
23.61370,42587
23.62303,40518
23.63238,38692
23.64172,38416
23.65107,39420
23.66040,39710
23.66973,38247
23.67908,42396
23.68842,46256
23.69775,47054
23.70710,50147
23.71643,46181
23.72577,48706
23.73512,51084
23.74445,51367
23.75378,47380
23.76313,43161
23.77247,43022
23.78180,42757
23.79115,42431
23.80048,41747
23.80983,41745
23.81917,40801
23.82850,40376
23.83785,42737
23.84718,39214
23.85652,40012
23.86587,39825
23.87520,40954
23.88453,40839
23.89388,42022
23.90322,44317
23.91255,42436
23.92190,42865
23.93123,42530
23.94057,41763
23.94992,40049
23.95925,39596
23.96858,39425
23.97793,40047
23.98727,39672
23.99662,38014
24.00595,40369
24.01528,41455
24.02463,40881
24.03397,40794
24.04330,37477
24.05265,38666
24.06198,38550
24.07132,38125
24.08067,40341
24.09000,40942
24.09933,40706
24.10868,39412
24.11802,40077
24.12735,38293
24.13670,38228
24.14603,38250
24.15537,40279
24.16472,38127
24.17405,38556
24.18340,39562
24.19273,38846
24.20207,37043
24.21142,38341
24.22075,38821
24.23008,41470
24.23943,40849
24.24877,41393
24.25810,41161
24.26745,40555
24.27678,39804
24.28612,38985
24.29547,40089
24.30480,40449
24.31413,41209
24.32348,42580
24.33282,44351
24.34215,43750
24.35150,41470
24.36083,41119
24.37018,41240
24.37952,41607
24.38885,41046
24.39820,44032
24.40753,42562
24.41687,41910
24.42622,40246
24.43555,40618
24.44488,42202
24.45423,41019
24.46357,41217
24.47290,40574
24.48225,42315
24.49158,42274
24.50092,40326
24.51027,40544
24.51960,39001
24.52895,39371
24.53828,41731
24.54762,40537
24.55697,46937
24.56630,47417
24.57563,44460
24.58498,44099
24.59432,40805
24.60365,40046
24.61300,42946
24.62233,44594
24.63167,42287
24.64102,41392
24.65035,42854
24.65968,42512
24.66903,42934
24.67837,44877
24.68770,45063
24.69705,43540
24.70638,43662
24.71573,41189
24.72507,41772
24.73440,42778
24.74375,42660
24.75308,42026
24.76242,40675
24.77177,40255
24.78110,43376
24.79043,41233
24.79978,42754
24.80912,42028
24.81845,42416
24.82780,43989
24.83713,40559
24.84647,39697
24.85582,39985
24.86515,40435
24.87448,42555
24.88383,43294
24.89317,43725
24.90252,44210
24.91185,42209
24.92118,42719
24.93053,42254
24.93987,41931
24.94920,42342
24.95855,41735
24.96788,44090
24.97722,41810
24.98657,41529
24.99590,40474
25.00523,43139
25.01458,42139
25.02392,42642
25.03325,41004
25.04260,41441
25.05193,41813
25.06127,41431
25.07062,40357
25.07995,40246
25.08930,43051
25.09863,41772
25.10797,41540
25.11732,41736
25.12665,40752
25.13598,42449
25.14533,43728
25.15467,44739
25.16400,45129
25.17335,45805
25.18268,44335
25.19202,42765
25.20137,42792
25.21070,44889
25.22003,42059
25.22938,42528
25.23872,41806
25.24805,41531
25.25740,44744
25.26673,43383
25.27608,42984
25.28542,41458
25.29475,43189
25.30410,44682
25.31343,50477
25.32277,73859
25.33212,124685
25.34145,197605
25.35078,233816
25.36013,179258
25.36947,112079
25.37880,87644
25.38815,76527
25.39748,70472
25.40682,68079
25.41617,66713
25.42550,63933
25.43485,63241
25.44418,64977
25.45352,63140
25.46287,62104
25.47220,65307
25.48153,67948
25.49088,69849
25.50022,72397
25.50955,68753
25.51890,71203
25.52823,69660
25.53757,67631
25.54692,69839
25.55625,68228
25.56558,68363
25.57493,66237
25.58427,63833
25.59360,62133
25.60295,58746
25.61228,58736
25.62163,58290
25.63097,59392
25.64030,56392
25.64965,59666
25.65898,60296
25.66832,60767
25.67767,62253
25.68700,58088
25.69633,56968
25.70568,56344
25.71502,56605
25.72435,54904
25.73370,54181
25.74303,53872
25.75237,55327
25.76172,55254
25.77105,54310
25.78038,53754
25.78973,52084
25.79907,55041
25.80842,59694
25.81775,56905
25.82708,58478
25.83643,56774
25.84577,59071
25.85510,56348
25.86445,56411
25.87378,55226
25.88312,54957
25.89247,53886
25.90180,50939
25.91113,53276
25.92048,55355
25.92982,52789
25.93915,54498
25.94850,54121
25.95783,55969
25.96717,55389
25.97652,53318
25.98585,53755
25.99520,54968
26.00453,54245
26.01387,54120
26.02322,52898
26.03255,56761
26.04188,58309
26.05123,58080
26.06057,59744
26.06990,55339
26.07925,57130
26.08858,56491
26.09792,55607
26.10727,52640
26.11660,55054
26.12593,53979
26.13528,52822
26.14462,58365
26.15397,59505
26.16330,61522
26.17263,61603
26.18198,60534
26.19132,59498
26.20065,55318
26.21000,50672
26.21933,50811
26.22867,51047
26.23802,51700
26.24735,51736
26.25668,50110
26.26603,49623
26.27537,50672
26.28470,51459
26.29405,49750
26.30338,49994
26.31272,52811
26.32207,51359
26.33140,53798
26.34075,50511
26.35008,52562
26.35942,51838
26.36877,52082
26.37810,50482
26.38743,48353
26.39678,50232
26.40612,50203
26.41545,49423
26.42480,49636
26.43413,51941
26.44347,51128
26.45282,52142
26.46215,52713
26.47148,54206
26.48083,51394
26.49017,54154
26.49950,53169
26.50885,52586
26.51818,55194
26.52753,55878
26.53687,56757
26.54620,60021
26.55555,59762
26.56488,56401
26.57422,55904
26.58357,54670
26.59290,55322
26.60223,56667
26.61158,58244
26.62092,60038
26.63025,57164
26.63960,52105
26.64893,51299
26.65827,53304
26.66762,53993
26.67695,55447
26.68628,53527
26.69563,54197
26.70497,53080
26.71432,50362
26.72365,50508
26.73298,50165
26.74233,51362
26.75167,51407
26.76100,49833
26.77035,50847
26.77968,52188
26.78902,51812
26.79837,51625
26.80770,53578
26.81703,50622
26.82638,51046
26.83572,50836
26.84505,50833
26.85440,51906
26.86373,52414
26.87307,51295
26.88242,50203
26.89175,51532
26.90110,51813
26.91043,52746
26.91977,49795
26.92912,48994
26.93845,49669
26.94778,48015
26.95713,51804
26.96647,50157
26.97580,48608
26.98515,50023
26.99448,49909
27.00382,53571
27.01317,53079
27.02250,53266
27.03183,50897
27.04118,53421
27.05052,52491
27.05985,54845
27.06920,54898
27.07853,55226
27.08788,54760
27.09722,53203
27.10655,50848
27.11590,51039
27.12523,54175
27.13457,54716
27.14392,55249
27.15325,54850
27.16258,53577
27.17193,54414
27.18127,53167
27.19060,50305
27.19995,52093
27.20928,50747
27.21862,49190
27.22797,52668
27.23730,52786
27.24665,55348
27.25598,59473
27.26532,63679
27.27467,62493
27.28400,59471
27.29333,57016
27.30268,56039
27.31202,55709
27.32135,54215
27.33070,54224
27.34003,52633
27.34937,53285
27.35872,50534
27.36805,52962
27.37738,52107
27.38673,53391
27.39607,52881
27.40540,51758
27.41475,49983
27.42408,52321
27.43343,54920
27.44277,57609
27.45210,57756
27.46145,54910
27.47078,57593
27.48012,58746
27.48947,65579
27.49880,70928
27.50813,79010
27.51748,81279
27.52682,88479
27.53615,93223
27.54550,94132
27.55483,89935
27.56417,86060
27.57352,78771
27.58285,77210
27.59218,72425
27.60153,68428
27.61087,64244
27.62022,65321
27.62955,63863
27.63888,62768
27.64823,61211
27.65757,60598
27.66690,75865
27.67625,98280
27.68558,119302
27.69492,114265
27.70427,93768
27.71360,80902
27.72293,71743
27.73228,69117
27.74162,66401
27.75095,63904
27.76030,65537
27.76963,63629
27.77897,62071
27.78832,60849
27.79765,60630
27.80700,62463
27.81633,60853
27.82567,58606
27.83502,59077
27.84435,60073
27.85368,61641
27.86303,58181
27.87237,56997
27.88170,57762
27.89105,58829
27.90038,57907
27.90972,59307
27.91907,59086
27.92840,58922
27.93773,61739
27.94708,62134
27.95642,58662
27.96577,59161
27.97510,58587
27.98443,57921
27.99378,59185
28.00312,55466
28.01245,54892
28.02180,56973
28.03113,57221
28.04047,57111
28.04982,57685
28.05915,56968
28.06848,56094
28.07783,56772
28.08717,57651
28.09650,59208
28.10585,60239
28.11518,57989
28.12452,64562
28.13387,68461
28.14320,67384
28.15255,65361
28.16188,64529
28.17122,60209
28.18057,62635
28.18990,58828
28.19923,59701
28.20858,57044
28.21792,59468
28.22725,60815
28.23660,59894
28.24593,58154
28.25527,59096
28.26462,56916
28.27395,58505
28.28328,57728
28.29263,55627
28.30197,56508
28.31130,56290
28.32065,58404
28.32998,55962
28.33933,55394
28.34867,59673
28.35800,54506
28.36735,56436
28.37668,56850
28.38602,54847
28.39537,58183
28.40470,56634
28.41403,57595
28.42338,57416
28.43272,59927
28.44205,59690
28.45140,59818
28.46073,61026
28.47007,59106
28.47942,59930
28.48875,57229
28.49808,58054
28.50743,61101
28.51677,59672
28.52612,59798
28.53545,59709
28.54478,58827
28.55413,59755
28.56347,60485
28.57280,58915
28.58215,59810
28.59148,63818
28.60082,65574
28.61017,66348
28.61950,65326
28.62883,65173
28.63818,66054
28.64752,64608
28.65685,63158
28.66620,73850
28.67553,92263
28.68487,110195
28.69422,119314
28.70355,105195
28.71290,88427
28.72223,74368
28.73157,70078
28.74092,66378
28.75025,67456
28.75958,66123
28.76893,62479
28.77827,65771
28.78760,65757
28.79695,63691
28.80628,64563
28.81562,66396
28.82497,64033
28.83430,62920
28.84363,64640
28.85298,62508
28.86232,65903
28.87167,65180
28.88100,62998
28.89033,64584
28.89968,63705
28.90902,65795
28.91835,64181
28.92770,64375
28.93703,63278
28.94637,63146
28.95572,65165
28.96505,71134
28.97438,76025
28.98373,71819
28.99307,70807
29.00240,69884
29.01175,69538
29.02108,69509
29.03042,69033
29.03977,68590
29.04910,67531
29.05845,64830
29.06778,65122
29.07712,66301
29.08647,68490
29.09580,67239
29.10513,69711
29.11448,67299
29.12382,67852
29.13315,67825
29.14250,69013
29.15183,67389
29.16117,69280
29.17052,69183
29.17985,66644
29.18918,73068
29.19853,79269
29.20787,96975
29.21720,102414
29.22655,96576
29.23588,84213
29.24523,79092
29.25457,75842
29.26390,73863
29.27325,71428
29.28258,72661
29.29192,70690
29.30127,70835
29.31060,69537
29.31993,68099
29.32928,71738
29.33862,70545
29.34795,69451
29.35730,71772
29.36663,71714
29.37597,68532
29.38532,71385
29.39465,71625
29.40398,70217
29.41333,70183
29.42267,70206
29.43202,68550
29.44135,73006
29.45068,72843
29.46003,75031
29.46937,77977
29.47870,77976
29.48805,78255
29.49738,76331
29.50672,76440
29.51607,71162
29.52540,69958
29.53473,68837
29.54408,68979
29.55342,69077
29.56275,68746
29.57210,67062
29.58143,66379
29.59077,68369
29.60012,67219
29.60945,68229
29.61880,68045
29.62813,69402
29.63747,65819
29.64682,68511
29.65615,64769
29.66548,66937
29.67483,66677
29.68417,67970
29.69350,66513
29.70285,67423
29.71218,70208
29.72152,68764
29.73087,70354
29.74020,70413
29.74953,72358
29.75888,70008
29.76822,70918
29.77757,70833
29.78690,68584
29.79623,68320
29.80558,68171
29.81492,70199
29.82425,66299
29.83360,68208
29.84293,64926
29.85227,67525
29.86162,66893
29.87095,63905
29.88028,65794
29.88963,65081
29.89897,67424
29.90830,66594
29.91765,68219
29.92698,68646
29.93632,69199
29.94567,71030
29.95500,70865
29.96435,69838
29.97368,72996
29.98302,78755
29.99237,85101
30.00170,82827
30.01103,80124
30.02038,75147
30.02972,72193
30.03905,72594
30.04840,70370
30.05773,71542
30.06707,73538
30.07642,70088
30.08575,71966
30.09508,73054
30.10443,72755
30.11377,79663
30.12310,81657
30.13245,90517
30.14178,98443
30.15113,102208
30.16047,109869
30.16980,115169
30.17915,114923
30.18848,111119
30.19782,107419
30.20717,101914
30.21650,102815
30.22583,95082
30.23518,94794
30.24452,88195
30.25385,84773
30.26320,82598
30.27253,80840
30.28187,81403
30.29122,83298
30.30055,80761
30.30988,77517
30.31923,77037
30.32857,73648
30.33792,74842
30.34725,74540
30.35658,76021
30.36593,75954
30.37527,80060
30.38460,87950
30.39395,100240
30.40328,123403
30.41262,138712
30.42197,141209
30.43130,128932
30.44063,114151
30.44998,100721
30.45932,93588
30.46865,88575
30.47800,87240
30.48733,86328
30.49667,85462
30.50602,80769
30.51535,79466
30.52470,76481
30.53403,76458
30.54337,73363
30.55272,74804
30.56205,76005
30.57138,75405
30.58073,75176
30.59007,76122
30.59940,78267
30.60875,79487
30.61808,82370
30.62742,84100
30.63677,87578
30.64610,95708
30.65543,96427
30.66478,99749
30.67412,97523
30.68347,96524
30.69280,92135
30.70213,89884
30.71148,87477
30.72082,84868
30.73015,82914
30.73950,81714
30.74883,79879
30.75817,80238
30.76752,78581
30.77685,79040
30.78618,79017
30.79553,79912
30.80487,79790
30.81420,79700
30.82355,80485
30.83288,81192
30.84222,81812
30.85157,78405
30.86090,83702
30.87025,82771
30.87958,86924
30.88892,86283
30.89827,84068
30.90760,86027
30.91693,84998
30.92628,84310
30.93562,86416
30.94495,85791
30.95430,85875
30.96363,83458
30.97297,87788
30.98232,84666
30.99165,85544
31.00098,85074
31.01033,86249
31.01967,84056
31.02900,80793
31.03835,81849
31.04768,83211
31.05703,84751
31.06637,80662
31.07570,81077
31.08505,82346
31.09438,84713
31.10372,82060
31.11307,84419
31.12240,84332
31.13173,84285
31.14108,80092
31.15042,87245
31.15975,86347
31.16910,88125
31.17843,85926
31.18777,88292
31.19712,85279
31.20645,84941
31.21578,85016
31.22513,84885
31.23447,84078
31.24382,86446
31.25315,84679
31.26248,84733
31.27183,83982
31.28117,82561
31.29050,82587
31.29985,82096
31.30918,81539
31.31852,84422
31.32787,82129
31.33720,84413
31.34653,82948
31.35588,81034
31.36522,82823
