D:\数据\20211129\ZS1E-TJ-000029.D Mon Nov 29 16:02:13 2021
Start of data points
0.09727,32247
0.10660,33484
0.11593,33824
0.12528,35035
0.13462,33863
0.14395,33359
0.15330,32913
0.16263,33264
0.17198,36157
0.18132,33605
0.19065,32272
0.20000,32799
0.20933,33276
0.21867,31651
0.22802,33226
0.23735,32851
0.24668,31978
0.25603,31867
0.26537,32458
0.27470,31839
0.28405,32605
0.29338,32288
0.30272,33240
0.31207,32961
0.32140,34253
0.33073,31080
0.34008,32503
0.34942,32170
0.35877,33317
0.36810,31486
0.37743,32363
0.38678,31051
0.39612,33317
0.40545,32908
0.41480,33504
0.42413,31889
0.43347,31049
0.44282,30216
0.45215,28393
0.46148,24309
0.47083,17935
0.48017,12272
0.48950,8261
0.49885,8661
0.50818,8531
0.51752,8400
0.52687,7280
0.53620,7511
0.54555,8289
0.55488,7704
0.56422,8368
0.57357,7665
0.58290,7324
0.59223,7616
0.60158,6661
0.61092,7043
0.62025,7349
0.62960,7502
0.63893,6923
0.64827,7453
0.65762,6915
0.66695,6317
0.67628,6904
0.68563,6572
0.69497,6307
0.70432,6871
0.71365,6306
0.72298,7511
0.73233,6644
0.74167,6132
0.75100,6996
0.76035,6749
0.76968,7360
0.77902,7413
0.78837,7172
0.79770,6781
0.80703,6613
0.81638,6456
0.82572,6953
0.83505,5881
0.84440,6926
0.85373,5713
0.86307,6807
0.87242,6349
0.88175,6174
0.89110,6558
0.90043,6686
0.90977,6249
0.91912,6576
0.92845,6573
0.93778,6118
0.94713,6550
0.95647,5793
0.96580,6655
0.97515,5623
0.98448,5927
0.99382,5430
1.00317,5843
1.01250,6273
1.02183,6540
1.03118,6081
1.04052,5942
1.04985,6331
1.05920,5769
1.06853,6542
1.07788,6389
1.08722,6442
1.09655,6820
1.10590,5611
1.11523,6248
1.12457,5851
1.13392,6205
1.14325,6441
1.15258,5957
1.16193,5758
1.17127,5554
1.18060,6006
1.18995,6252
1.19928,6624
1.20862,5454
1.21797,6554
1.22730,6062
1.23663,6409
1.24598,6357
1.25532,5917
1.26467,5742
1.27400,5110
1.28333,5352
1.29268,5925
1.30202,5906
1.31135,6328
1.32070,4913
1.33003,5379
1.33937,5957
1.34872,5100
1.35805,5196
1.36738,5712
1.37673,5465
1.38607,6263
1.39540,6196
1.40475,6894
1.41408,5813
1.42343,5617
1.43277,5912
1.44210,5518
1.45145,5760
1.46078,6231
1.47012,5614
1.47947,5622
1.48880,5210
1.49813,6199
1.50748,5533
1.51682,6453
1.52615,5830
1.53550,6333
1.54483,5857
1.55417,6012
1.56352,5790
1.57285,5160
1.58218,5199
1.59153,5200
1.60087,6483
1.61022,10257
1.61955,17528
1.62888,24141
1.63823,31066
1.64757,39967
1.65690,55981
1.66625,66209
1.67558,68466
1.68492,59888
1.69427,52351
1.70360,41617
1.71293,30016
1.72228,23485
1.73162,25566
1.74095,27586
1.75030,31096
1.75963,33169
1.76897,35836
1.77832,40989
1.78765,42516
1.79700,42720
1.80633,44979
1.81567,43981
1.82502,45358
1.83435,42734
1.84368,42060
1.85303,42234
1.86237,42587
1.87170,49065
1.88105,75065
1.89038,123636
1.89972,182126
1.90907,217472
1.91840,291613
1.92773,538834
1.93708,1041818
1.94642,1614711
1.95575,1917755
1.96510,1801955
1.97443,1442646
1.98378,1062511
1.99312,814102
2.00245,690777
2.01180,640319
2.02113,621577
2.03047,546030
2.03982,402391
2.04915,282379
2.05848,199349
2.06783,157883
2.07717,122827
2.08650,104709
2.09585,88512
2.10518,81799
2.11452,81004
2.12387,86935
2.13320,104755
2.14253,161827
2.15188,172602
2.16122,144522
2.17057,126196
2.17990,124654
2.18923,154463
2.19858,173491
2.20792,141604
2.21725,109914
2.22660,121614
2.23593,265501
2.24527,426260
2.25462,1407251
2.26395,3268428
2.27328,3409253
2.28263,2455984
2.29197,1529470
2.30130,1084871
2.31065,2365157
2.31998,5983540
2.32932,6715858
2.33867,3959735
2.34800,1772546
2.35735,790567
2.36668,411194
2.37602,296139
2.38537,266586
2.39470,232138
2.40403,195620
2.41338,168281
2.42272,154899
2.43205,158414
2.44140,148093
2.45073,129311
2.46007,123287
2.46942,144592
2.47875,183368
2.48808,171621
2.49743,136099
2.50677,110132
2.51612,101311
2.52545,95536
2.53478,86544
2.54413,83778
2.55347,94107
2.56280,120029
2.57215,554200
2.58148,596530
2.59082,465018
2.60017,326340
2.60950,243125
2.61883,217571
2.62818,230206
2.63752,221732
2.64685,195757
2.65620,179708
2.66553,150769
2.67487,120442
2.68422,101384
2.69355,81343
2.70290,78716
2.71223,81232
2.72157,114911
2.73092,167824
2.74025,206665
2.74958,255683
2.75893,309519
2.76827,359354
2.77760,453730
2.78695,579406
2.79628,522515
2.80562,365094
2.81497,284919
2.82430,240618
2.83363,207040
2.84298,173020
2.85232,157819
2.86165,176094
2.87100,218351
2.88033,228276
2.88968,191698
2.89902,147273
2.90835,121874
2.91770,114148
2.92703,105730
2.93637,95242
2.94572,84063
2.95505,77321
2.96438,73579
2.97373,71323
2.98307,70621
2.99240,74681
3.00175,90740
3.01108,108068
3.02042,109537
3.02977,95336
3.03910,104951
3.04843,137055
3.05778,144069
3.06712,138972
3.07647,144432
3.08580,130190
3.09513,98990
3.10448,79281
3.11382,66331
3.12315,68307
3.13250,69137
3.14183,70341
3.15117,71497
3.16052,75806
3.16985,79390
3.17918,78599
3.18853,77000
3.19787,71585
3.20720,69532
3.21655,71574
3.22588,67701
3.23523,65492
3.24457,62037
3.25390,63642
3.26325,63649
3.27258,65311
3.28192,61488
3.29127,62041
3.30060,66994
3.30993,69783
3.31928,69890
3.32862,65839
3.33795,65158
3.34730,65086
3.35663,66251
3.36597,63982
3.37532,60242
3.38465,58050
3.39398,53700
3.40333,57220
3.41267,68141
3.42202,77147
3.43135,76532
3.44068,77712
3.45003,83625
3.45937,98948
3.46870,92600
3.47805,82851
3.48738,78675
3.49672,75209
3.50607,73256
3.51540,66716
3.52473,64883
3.53408,61104
3.54342,64417
3.55275,102116
3.56210,255525
3.57143,482085
3.58077,543840
3.59012,378024
3.59945,208518
3.60880,127328
3.61813,97074
3.62747,105775
3.63682,101107
3.64615,93154
3.65548,84979
3.66483,85735
3.67417,92714
3.68350,99962
3.69285,87488
3.70218,74946
3.71152,67408
3.72087,67830
3.73020,71888
3.73953,72119
3.74888,70327
3.75822,69464
3.76755,64689
3.77690,59265
3.78623,56652
3.79558,56739
3.80492,61134
3.81425,81975
3.82360,114001
3.83293,116579
3.84227,94059
3.85162,76168
3.86095,64385
3.87028,64576
3.87963,68154
3.88897,67837
3.89830,70854
3.90765,77980
3.91698,79872
3.92632,85982
3.93567,92855
3.94500,116492
3.95433,181349
3.96368,215938
3.97302,192059
3.98237,165475
3.99170,149576
4.00103,120856
4.01038,89520
4.01972,95640
4.02905,108648
4.03840,179855
4.04773,330382
4.05707,414009
4.06642,327294
4.07575,236418
4.08508,205343
4.09443,191442
4.10377,177137
4.11310,145042
4.12245,113500
4.13178,89681
4.14113,78623
4.15047,75646
4.15980,72012
4.16915,70094
4.17848,66624
4.18782,62467
4.19717,60377
4.20650,64233
4.21583,68312
4.22518,68747
4.23452,62979
4.24385,61478
4.25320,59137
4.26253,59092
4.27187,65310
4.28122,100406
4.29055,102501
4.29988,91601
4.30923,88370
4.31857,96109
4.32792,109662
4.33725,112197
4.34658,99020
4.35593,83115
4.36527,68951
4.37460,63591
4.38395,75828
4.39328,93285
4.40262,90481
4.41197,75203
4.42130,64417
4.43063,56376
4.43998,54709
4.44932,51855
4.45865,56149
4.46800,67414
4.47733,88615
4.48667,96527
4.49602,89116
4.50535,74613
4.51470,63955
4.52403,65375
4.53337,63101
4.54272,63554
4.55205,67541
4.56138,67164
4.57073,67618
4.58007,68338
4.58940,64528
4.59875,59349
4.60808,57472
4.61742,55844
4.62677,54484
4.63610,54315
4.64543,58847
4.65478,70692
4.66412,78068
4.67345,79674
4.68280,83569
4.69213,128037
4.70148,222045
4.71082,280347
4.72015,223510
4.72950,134400
4.73883,91813
4.74817,80703
4.75752,75680
4.76685,73839
4.77618,70985
4.78553,66437
4.79487,63577
4.80420,63551
4.81355,65684
4.82288,62776
4.83222,62699
4.84157,64334
4.85090,64249
4.86025,66133
4.86958,84903
4.87892,117612
4.88827,136658
4.89760,122472
4.90693,99911
4.91628,84323
4.92562,74591
4.93495,68971
4.94430,65787
4.95363,65298
4.96297,63054
4.97232,58025
4.98165,56375
4.99098,57326
5.00033,60909
5.00967,65660
5.01900,76204
5.02835,90147
5.03768,105039
5.04703,108036
5.05637,92199
5.06570,77853
5.07505,74949
5.08438,75562
5.09372,77796
5.10307,73335
5.11240,68072
5.12173,66297
5.13108,61665
5.14042,62432
5.14975,71408
5.15910,78045
5.16843,81901
5.17777,73563
5.18712,68729
5.19645,73748
5.20578,78158
5.21513,76231
5.22447,66467
5.23382,63346
5.24315,65182
5.25248,65728
5.26183,64455
5.27117,71672
5.28050,126158
5.28985,223242
5.29918,294766
5.30852,259078
5.31787,172218
5.32720,127542
5.33653,110419
5.34588,92967
5.35522,78518
5.36455,67363
5.37390,63135
5.38323,67856
5.39257,75871
5.40192,85453
5.41125,84317
5.42060,79904
5.42993,71093
5.43927,63383
5.44862,56979
5.45795,54702
5.46728,53906
5.47663,53353
5.48597,54612
5.49530,56157
5.50465,58177
5.51398,64856
5.52332,71981
5.53267,78391
5.54200,85387
5.55133,84895
5.56068,79429
5.57002,81883
5.57935,86160
5.58870,80364
5.59803,69236
5.60738,63881
5.61672,58838
5.62605,56231
5.63540,54281
5.64473,54286
5.65407,56721
5.66342,61451
5.67275,67027
5.68208,85531
5.69143,91588
5.70077,82083
5.71010,77456
5.71945,82064
5.72878,79303
5.73812,75399
5.74747,83320
5.75680,106478
5.76613,124476
5.77548,145010
5.78482,138593
5.79417,112310
5.80350,84517
5.81283,70831
5.82218,70670
5.83152,81371
5.84085,104707
5.85020,98755
5.85953,82094
5.86887,65078
5.87822,61682
5.88755,61673
5.89688,55452
5.90623,56459
5.91557,80224
5.92490,150209
5.93425,204496
5.94358,196089
5.95293,190564
5.96227,178653
5.97160,134182
5.98095,92173
5.99028,68557
5.99962,60537
6.00897,57172
6.01830,57133
6.02763,52416
6.03698,47971
6.04632,41502
6.05565,38494
6.06500,37852
6.07433,38980
6.08367,36949
6.09302,32145
6.10235,28399
6.11168,26899
6.12103,29753
6.13037,36234
6.13972,47595
6.14905,48047
6.15838,37604
6.16773,32346
6.17707,31676
6.18640,30856
6.19575,29848
6.20508,28993
6.21442,28568
6.22377,29929
6.23310,34647
6.24243,41313
6.25178,41094
6.26112,38623
6.27045,34152
6.27980,37374
6.28913,41945
6.29847,38959
6.30782,32084
6.31715,26623
6.32650,24573
6.33583,22323
6.34517,24308
6.35452,25043
6.36385,27266
6.37318,27460
6.38253,32366
6.39187,62525
6.40120,247838
6.41055,974876
6.41988,1994876
6.42922,2125035
6.43857,1247343
6.44790,448037
6.45723,140775
6.46658,63064
6.47592,48872
6.48525,45723
6.49460,40899
6.50393,37584
6.51328,34064
6.52262,33301
6.53195,32797
6.54130,28129
6.55063,26809
6.55997,26099
6.56932,26121
6.57865,25563
6.58798,27259
6.59733,30160
6.60667,35569
6.61600,36478
6.62535,37322
6.63468,41258
6.64402,40129
6.65337,41585
6.66270,40623
6.67205,40701
6.68138,38541
6.69072,34876
6.70007,51979
6.70940,64818
6.71873,70524
6.72808,70165
6.73742,55989
6.74675,44767
6.75610,35532
6.76543,36418
6.77477,33987
6.78412,35297
6.79345,38982
6.80278,42670
6.81213,45705
6.82147,40374
6.83080,35703
6.84015,35654
6.84948,37898
6.85883,42002
6.86817,38366
6.87750,35683
6.88685,32093
6.89618,29199
6.90552,31830
6.91487,39055
6.92420,49221
6.93353,54693
6.94288,45771
6.95222,40260
6.96155,37932
6.97090,35781
6.98023,37045
6.98957,37220
6.99892,35364
7.00825,30168
7.01758,28704
7.02693,27105
7.03627,26565
7.04562,25613
7.05495,23740
7.06428,25509
7.07363,24886
7.08297,25609
7.09230,29053
7.10165,33001
7.11098,36330
7.12032,36092
7.12967,33673
7.13900,33372
7.14833,28174
7.15768,25960
7.16702,24875
7.17635,24416
7.18570,25358
7.19503,28210
7.20437,28899
7.21372,27807
7.22305,31394
7.23240,50292
7.24173,95053
7.25107,129318
7.26042,115536
7.26975,66426
7.27908,41909
7.28843,34448
7.29777,33930
7.30710,33603
7.31645,27999
7.32578,25352
7.33512,24087
7.34447,24828
7.35380,24348
7.36313,24834
7.37248,23355
7.38182,25247
7.39115,36788
7.40050,87804
7.40983,180536
7.41918,248018
7.42852,226883
7.43785,147658
7.44720,78045
7.45653,43529
7.46587,30193
7.47522,26757
7.48455,29817
7.49388,35233
7.50323,37476
7.51257,32204
7.52190,26495
7.53125,24648
7.54058,23092
7.54992,23350
7.55927,23083
7.56860,28578
7.57793,33315
7.58728,35457
7.59662,37611
7.60597,42977
7.61530,43925
7.62463,44785
7.63398,45680
7.64332,43417
7.65265,36172
7.66200,31515
7.67133,30266
7.68067,31172
7.69002,34095
7.69935,35237
7.70868,33509
7.71803,34413
7.72737,31340
7.73670,32552
7.74605,33980
7.75538,42226
7.76473,47506
7.77407,45866
7.78340,45212
7.79275,41389
7.80208,37627
7.81142,34181
7.82077,30504
7.83010,27484
7.83943,28158
7.84878,31597
7.85812,48786
7.86745,90420
7.87680,134402
7.88613,139756
7.89547,99438
7.90482,65718
7.91415,64990
7.92348,92558
7.93283,107945
7.94217,87550
7.95152,64109
7.96085,79593
7.97018,93754
7.97953,99690
7.98887,120193
7.99820,116359
8.00755,84974
8.01688,56825
8.02622,45472
8.03557,47594
8.04490,55453
8.05423,61666
8.06358,58355
8.07292,46650
8.08225,44216
8.09160,68806
8.10093,118668
8.11027,136810
8.11962,102356
8.12895,66165
8.13830,46636
8.14763,38555
8.15697,36164
8.16632,36119
8.17565,34241
8.18498,32582
8.19433,32679
8.20367,30054
8.21300,32486
8.22235,30332
8.23168,29912
8.24102,32976
8.25037,38241
8.25970,39816
8.26903,37787
8.27838,33063
8.28772,32417
8.29707,30354
8.30640,31717
8.31573,32546
8.32508,32300
8.33442,32503
8.34375,33961
8.35310,32085
8.36243,31113
8.37177,28270
8.38112,34160
8.39045,47945
8.39978,55694
8.40913,53312
8.41847,51848
8.42780,50500
8.43715,49778
8.44648,43738
8.45582,39075
8.46517,37396
8.47450,40406
8.48385,37640
8.49318,36680
8.50252,33444
8.51187,35702
8.52120,32020
8.53053,31420
8.53988,32003
8.54922,32536
8.55855,40296
8.56790,56811
8.57723,58566
8.58657,50919
8.59592,46649
8.60525,46540
8.61458,45501
8.62393,41117
8.63327,39591
8.64260,38040
8.65195,35718
8.66128,35123
8.67063,35822
8.67997,37884
8.68930,34760
8.69865,33044
8.70798,34791
8.71732,32391
8.72667,30560
8.73600,31024
8.74533,36698
8.75468,49131
8.76402,61351
8.77335,54607
8.78270,43092
8.79203,37931
8.80137,47558
8.81072,67918
8.82005,87677
8.82938,77355
8.83873,55596
8.84807,40994
8.85742,35066
8.86675,37011
8.87608,39905
8.88543,44205
8.89477,41751
8.90410,39681
8.91345,38120
8.92278,37758
8.93212,41177
8.94147,39716
8.95080,36087
8.96013,33458
8.96948,36477
8.97882,40008
8.98815,44979
8.99750,42562
9.00683,43710
9.01617,46156
9.02552,44149
9.03485,41519
9.04420,39826
9.05353,37744
9.06287,38900
9.07222,44886
9.08155,52267
9.09088,61065
9.10023,63806
9.10957,57477
9.11890,50188
9.12825,46561
9.13758,52053
9.14692,56305
9.15627,50124
9.16560,41052
9.17493,35303
9.18428,36106
9.19362,35938
9.20295,36024
9.21230,43214
9.22163,71619
9.23098,125727
9.24032,156701
9.24965,141481
9.25900,102557
9.26833,72694
9.27767,57519
9.28702,53425
9.29635,54405
9.30568,50585
9.31503,46041
9.32437,49644
9.33370,67596
9.34305,82478
9.35238,73783
9.36172,85278
9.37107,170467
9.38040,300748
9.38975,327633
9.39908,234720
9.40842,136521
9.41777,83467
9.42710,64930
9.43643,58728
9.44578,55374
9.45512,44949
9.46445,41040
9.47380,36262
9.48313,34568
9.49247,37758
9.50182,44236
9.51115,43773
9.52048,42702
9.52983,42879
9.53917,47569
9.54850,53933
9.55785,65534
9.56718,92961
9.57653,109889
9.58587,101509
9.59520,81795
9.60455,69863
9.61388,69989
9.62322,62824
9.63257,61698
9.64190,58040
9.65123,55810
9.66058,51743
9.66992,45342
9.67925,44541
9.68860,40354
9.69793,37674
9.70727,34765
9.71662,39597
9.72595,88253
9.73528,366056
9.74463,1085489
9.75397,1720843
9.76332,1519421
9.77265,819877
9.78198,353880
9.79133,184790
9.80067,132436
9.81000,101672
9.81935,90390
9.82868,92833
9.83802,109224
9.84737,127749
9.85670,134931
9.86603,114114
9.87538,87129
9.88472,82787
9.89405,103672
9.90340,116373
9.91273,119857
9.92207,156375
9.93142,189191
9.94075,164870
9.95010,107368
9.95943,66250
9.96877,54443
9.97812,63042
9.98745,97383
9.99678,153555
10.00613,168482
10.01547,130729
10.02480,90027
10.03415,63045
10.04348,53046
10.05282,50386
10.06217,55616
10.07150,64814
10.08083,75115
10.09018,76455
10.09952,67477
10.10887,76775
10.11820,208024
10.12753,649671
10.13688,1190000
10.14622,1228515
10.15555,1074827
10.16490,1850889
10.17423,3016244
10.18357,2656688
10.19292,1148444
10.20225,284876
10.21158,77237
10.22093,56131
10.23027,61532
10.23960,89952
10.24895,141230
10.25828,146577
10.26762,107227
10.27697,68809
10.28630,51928
10.29565,46450
10.30498,46410
10.31432,45842
10.32367,47161
10.33300,44740
10.34233,44246
10.35168,42802
10.36102,42734
10.37035,45320
10.37970,42040
10.38903,39946
10.39837,37359
10.40772,34382
10.41705,36618
10.42638,37350
10.43573,36227
10.44507,37259
10.45440,40382
10.46375,47007
10.47308,59838
10.48243,63993
10.49177,57784
10.50110,45495
10.51045,38856
10.51978,37851
10.52912,38859
10.53847,37166
10.54780,37315
10.55713,39262
10.56648,41068
10.57582,38430
10.58515,38609
10.59450,36524
10.60383,36484
10.61317,35643
10.62252,34948
10.63185,37452
10.64118,40198
10.65053,42275
10.65987,37133
10.66922,37345
10.67855,41334
10.68788,46379
10.69723,49584
10.70657,45612
10.71590,50159
10.72525,57493
10.73458,57184
10.74392,52171
10.75327,60691
10.76260,100009
10.77193,142925
10.78128,145717
10.79062,152490
10.79995,329146
10.80930,649669
10.81863,770469
10.82797,496850
10.83732,204201
10.84665,79936
10.85600,51462
10.86533,45807
10.87467,48637
10.88402,59558
10.89335,66318
10.90268,61056
10.91203,51035
10.92137,42364
10.93070,43385
10.94005,46339
10.94938,43961
10.95872,40841
10.96807,41204
10.97740,41002
10.98673,39912
10.99608,39606
11.00542,39108
11.01477,41592
11.02410,37630
11.03343,36171
11.04278,36682
11.05212,34849
11.06145,36650
11.07080,35996
11.08013,34531
11.08947,36921
11.09882,37890
11.10815,50557
11.11748,69501
11.12683,78532
11.13617,64668
11.14550,56068
11.15485,54166
11.16418,48041
11.17352,43473
11.18287,41586
11.19220,38439
11.20155,38233
11.21088,35219
11.22022,34930
11.22957,37033
11.23890,37597
11.24823,38829
11.25758,39512
11.26692,46683
11.27625,50960
11.28560,46158
11.29493,38654
11.30427,36850
11.31362,37706
11.32295,36348
11.33228,41572
11.34163,53949
11.35097,64720
11.36030,75617
11.36965,79979
11.37898,75016
11.38833,66614
11.39767,54246
11.40700,51424
11.41635,54203
11.42568,49853
11.43502,45509
11.44437,41122
11.45370,39887
11.46303,42394
11.47238,48640
11.48172,54896
11.49105,54417
11.50040,45215
11.50973,39787
11.51907,39361
11.52842,36154
11.53775,36044
11.54708,38617
11.55643,47936
11.56577,71988
11.57512,131521
11.58445,192774
11.59378,194641
11.60313,146860
11.61247,101032
11.62180,80968
11.63115,74974
11.64048,76806
11.64982,79355
11.65917,94174
11.66850,99507
11.67783,89998
11.68718,70466
11.69652,54654
11.70585,51773
11.71520,50927
11.72453,50861
11.73388,45655
11.74322,40661
11.75255,42599
11.76190,41800
11.77123,44009
11.78057,49640
11.78992,55620
11.79925,55341
11.80858,51247
11.81793,46569
11.82727,43586
11.83660,47162
11.84595,49136
11.85528,52236
11.86462,50060
11.87397,50180
11.88330,49963
11.89263,48725
11.90198,48551
11.91132,44010
11.92067,44029
11.93000,42224
11.93933,52170
11.94868,61766
11.95802,70151
11.96735,63954
11.97670,50257
11.98603,41701
11.99537,41307
12.00472,46677
12.01405,61729
12.02338,80648
12.03273,80753
12.04207,70759
12.05140,64826
12.06075,55512
12.07008,46919
12.07942,42708
12.08877,38668
12.09810,41705
12.10745,43089
12.11678,41535
12.12612,41290
12.13547,42253
12.14480,43993
12.15413,45182
12.16348,48738
12.17282,64592
12.18215,99540
12.19150,110011
12.20083,84628
12.21017,55969
12.21952,47065
12.22885,50625
12.23818,54731
12.24753,52969
12.25687,50509
12.26620,62120
12.27555,120992
12.28488,240034
12.29423,284679
12.30357,192998
12.31290,93528
12.32225,59947
12.33158,51725
12.34092,54273
12.35027,54783
12.35960,54640
12.36893,48320
12.37828,48535
12.38762,50048
12.39695,62208
12.40630,71546
12.41563,69432
12.42497,58603
12.43432,52109
12.44365,48445
12.45298,47835
12.46233,47872
12.47167,51052
12.48102,51779
12.49035,53844
12.49968,57096
12.50903,57905
12.51837,57566
12.52770,57625
12.53705,53997
12.54638,53333
12.55572,50417
12.56507,54420
12.57440,59802
12.58373,64922
12.59308,62176
12.60242,62617
12.61175,59804
12.62110,53110
12.63043,53603
12.63977,63839
12.64912,74134
12.65845,73655
12.66780,65080
12.67713,60007
12.68647,50238
12.69582,43492
12.70515,40862
12.71448,42550
12.72383,49661
12.73317,47876
12.74250,48307
12.75185,52812
12.76118,59798
12.77052,57640
12.77987,53301
12.78920,46413
12.79853,44859
12.80788,45158
12.81722,47122
12.82657,48874
12.83590,49897
12.84523,49812
12.85458,44404
12.86392,42371
12.87325,43905
12.88260,41678
12.89193,41659
12.90127,43845
12.91062,44525
12.91995,43930
12.92928,42343
12.93863,40824
12.94797,42432
12.95730,43362
12.96665,45559
12.97598,43445
12.98532,40519
12.99467,41346
13.00400,44420
13.01335,45778
13.02268,49004
13.03202,52411
13.04137,59049
13.05070,61128
13.06003,55693
13.06938,61573
13.07872,71189
13.08805,72314
13.09740,57701
13.10673,49488
13.11607,46151
13.12542,48015
13.13475,50697
13.14408,57808
13.15343,58921
13.16277,59291
13.17210,67693
13.18145,71182
13.19078,79873
13.20013,171231
13.20947,499787
13.21880,966871
13.22815,1005708
13.23748,578838
13.24682,233518
13.25617,138980
13.26550,121976
13.27483,101860
13.28418,96782
13.29352,101190
13.30285,96025
13.31220,83325
13.32153,78546
13.33087,78409
13.34022,75066
13.34955,73562
13.35888,71766
13.36823,66449
13.37757,60186
13.38692,57540
13.39625,59696
13.40558,67116
13.41493,69001
13.42427,58522
13.43360,57762
13.44295,64178
13.45228,70826
13.46162,67338
13.47097,61158
13.48030,63170
13.48963,62502
13.49898,59999
13.50832,54651
13.51765,66604
13.52700,102590
13.53633,149945
13.54568,145163
13.55502,101565
13.56435,64514
13.57370,50067
13.58303,46337
13.59237,44273
13.60172,42056
13.61105,39252
13.62038,41103
13.62973,43394
13.63907,57327
13.64840,90695
13.65775,110520
13.66708,98944
13.67642,70490
13.68577,53836
13.69510,46554
13.70443,42492
13.71378,42758
13.72312,40630
13.73247,39971
13.74180,40443
13.75113,38468
13.76048,40081
13.76982,41775
13.77915,41369
13.78850,40682
13.79783,42193
13.80717,48866
13.81652,55871
13.82585,50911
13.83518,44018
13.84453,39202
13.85387,41688
13.86320,42553
13.87255,48893
13.88188,51920
13.89122,59603
13.90057,78732
13.90990,128815
13.91925,232095
13.92858,311250
13.93792,255669
13.94727,136661
13.95660,87042
13.96593,76296
13.97528,72545
13.98462,60379
13.99395,53178
14.00330,50942
14.01263,51501
14.02197,47479
14.03132,45218
14.04065,52628
14.04998,154395
14.05933,910729
14.06867,3316510
14.07800,6375858
14.08735,6556283
14.09668,3263323
14.10603,798205
14.11537,136487
14.12470,65794
14.13405,61301
14.14338,55196
14.15272,54968
14.16207,58953
14.17140,62710
14.18073,68050
14.19008,91788
14.19942,140286
14.20875,168138
14.21810,119888
14.22743,69539
14.23677,46179
14.24612,41002
14.25545,38284
14.26478,40332
14.27413,43224
14.28347,46035
14.29282,46732
14.30215,41635
14.31148,40053
14.32083,45814
14.33017,58590
14.33950,71336
14.34885,72137
14.35818,59551
14.36752,46993
14.37687,43667
14.38620,42588
14.39553,40972
14.40488,40670
14.41422,40915
14.42355,39778
14.43290,36849
14.44223,37685
14.45157,44951
14.46092,57379
14.47025,71432
14.47960,72133
14.48893,62002
14.49827,51623
14.50762,42474
14.51695,39485
14.52628,35357
14.53563,36671
14.54497,37630
14.55430,41245
14.56365,46363
14.57298,48258
14.58232,47842
14.59167,43499
14.60100,42702
14.61033,39871
14.61968,40845
14.62902,42411
14.63837,47148
14.64770,57282
14.65703,73385
14.66638,83310
14.67572,73975
14.68505,58229
14.69440,48040
14.70373,43497
14.71307,39585
14.72242,39407
14.73175,41455
14.74108,40965
14.75043,41879
14.75977,44481
14.76910,47665
14.77845,53470
14.78778,54854
14.79712,53359
14.80647,52016
14.81580,48287
14.82515,47594
14.83448,44213
14.84382,44281
14.85317,43934
14.86250,46724
14.87183,53809
14.88118,61070
14.89052,61842
14.89985,52058
14.90920,46673
14.91853,43525
14.92787,42960
14.93722,43349
14.94655,44596
14.95588,46864
14.96523,53262
14.97457,63942
14.98390,71937
14.99325,65495
15.00258,53043
15.01193,54150
15.02127,54363
15.03060,50554
15.03995,45493
15.04928,45489
15.05862,50126
15.06797,51683
15.07730,50333
15.08663,48938
15.09598,45034
15.10532,40353
15.11465,41708
15.12400,45899
15.13333,54121
15.14267,60755
15.15202,57144
15.16135,47644
15.17068,45674
15.18003,43804
15.18937,45567
15.19872,56120
15.20805,74210
15.21738,99105
15.22673,121774
15.23607,112129
15.24540,89198
15.25475,66803
15.26408,54308
15.27342,47373
15.28277,47237
15.29210,46431
15.30143,46434
15.31078,44125
15.32012,44238
15.32945,48114
15.33880,50423
15.34813,57555
15.35748,58562
15.36682,61574
15.37615,65105
15.38550,64604
15.39483,60832
15.40417,47126
15.41352,44004
15.42285,47321
15.43218,46894
15.44153,49120
15.45087,48259
15.46020,45628
15.46955,42890
15.47888,41583
15.48822,43581
15.49757,45437
15.50690,54636
15.51623,66762
15.52558,91709
15.53492,96359
15.54427,77095
15.55360,59179
15.56293,45777
15.57228,41076
15.58162,38249
15.59095,39966
15.60030,41472
15.60963,42850
15.61897,46002
15.62832,49402
15.63765,62095
15.64698,63963
15.65633,62640
15.66567,63498
15.67500,68622
15.68435,80473
15.69368,106169
15.70302,126351
15.71237,115069
15.72170,89548
15.73105,68020
15.74038,50930
15.74972,53956
15.75907,65658
15.76840,71718
15.77773,68990
15.78708,61078
15.79642,54090
15.80575,71083
15.81510,175189
15.82443,478342
15.83377,905126
15.84312,1050675
15.85245,822184
15.86178,475341
15.87113,217988
15.88047,116136
15.88980,95842
15.89915,99575
15.90848,102976
15.91783,95430
15.92717,77413
15.93650,63013
15.94585,55481
15.95518,50430
15.96452,50408
15.97387,54802
15.98320,68856
15.99253,90114
16.00188,107848
16.01122,100458
16.02055,73590
16.02990,54538
16.03923,48237
16.04857,50123
16.05792,51475
16.06725,53680
16.07658,51533
16.08593,51144
16.09527,48656
16.10462,49557
16.11395,50601
16.12328,58248
16.13263,59492
16.14197,56385
16.15130,51307
16.16065,48277
16.16998,52122
16.17932,49731
16.18867,51181
16.19800,63609
16.20733,77550
16.21668,87827
16.22602,91786
16.23535,91969
16.24470,85043
16.25403,70372
16.26338,63072
16.27272,60034
16.28205,97570
16.29140,238037
16.30073,484705
16.31007,646660
16.31942,599732
16.32875,474057
16.33808,336339
16.34743,168157
16.35677,76607
16.36610,50658
16.37545,42162
16.38478,40015
16.39412,42090
16.40347,40901
16.41280,44382
16.42213,45656
16.43148,44393
16.44082,45614
16.45017,46529
16.45950,55576
16.46883,63524
16.47818,61598
16.48752,63051
16.49685,69024
16.50620,62163
16.51553,59227
16.52487,64271
16.53422,66158
16.54355,63630
16.55288,56080
16.56223,47827
16.57157,44567
16.58090,45145
16.59025,50044
16.59958,51038
16.60892,48717
16.61827,47260
16.62760,51623
16.63695,58928
16.64628,65894
16.65562,61973
16.66497,54215
16.67430,48959
16.68363,47975
16.69298,52059
16.70232,65010
16.71165,67816
16.72100,62069
16.73033,49152
16.73967,48810
16.74902,74201
16.75835,112146
16.76768,114883
16.77703,80945
16.78637,57190
16.79570,46683
16.80505,50242
16.81438,52651
16.82373,63796
16.83307,66946
16.84240,78554
16.85175,86909
16.86108,82836
16.87042,69682
16.87977,55687
16.88910,49220
16.89843,52485
16.90778,56776
16.91712,65557
16.92645,78018
16.93580,71587
16.94513,61372
16.95447,62205
16.96382,69477
16.97315,71618
16.98250,67397
16.99183,63036
17.00117,58205
17.01052,51717
17.01985,49750
17.02918,62731
17.03853,88484
17.04787,103750
17.05720,87401
17.06655,69726
17.07588,62187
17.08522,58721
17.09457,57053
17.10390,53628
17.11323,50757
17.12258,47998
17.13192,46528
17.14125,53493
17.15060,56847
17.15993,49950
17.16928,46477
17.17862,44127
17.18795,47259
17.19730,45935
17.20663,45091
17.21597,42167
17.22532,42105
17.23465,41975
17.24398,46944
17.25333,51209
17.26267,50002
17.27200,51613
17.28135,53014
17.29068,57817
17.30002,55884
17.30937,54003
17.31870,53547
17.32803,57252
17.33738,57865
17.34672,55471
17.35607,49559
17.36540,47336
17.37473,60097
17.38408,108648
17.39342,192931
17.40275,218665
17.41210,161159
17.42143,108890
17.43077,83391
17.44012,65939
17.44945,58287
17.45878,59193
17.46813,55794
17.47747,55976
17.48680,63378
17.49615,161527
17.50548,706778
17.51482,2012382
17.52417,3071213
17.53350,2352027
17.54285,910680
17.55218,225630
17.56152,71798
17.57087,60827
17.58020,61586
17.58953,69724
17.59888,71850
17.60822,64236
17.61755,55543
17.62690,54020
17.63623,55195
17.64557,53619
17.65492,55340
17.66425,62144
17.67358,69241
17.68293,76181
17.69227,94995
17.70160,106403
17.71095,162561
17.72028,322131
17.72963,474044
17.73897,379685
17.74830,191207
17.75765,94120
17.76698,74338
17.77632,72803
17.78567,69176
17.79500,61730
17.80433,57975
17.81368,51606
17.82302,48516
17.83235,46792
17.84170,48117
17.85103,54077
17.86037,61278
17.86972,70517
17.87905,71176
17.88838,63004
17.89773,59350
17.90707,56299
17.91642,51390
17.92575,49317
17.93508,49873
17.94443,51410
17.95377,50607
17.96310,47735
17.97245,44559
17.98178,45728
17.99112,46675
18.00047,46289
18.00980,50036
18.01913,51476
18.02848,51475
18.03782,52867
18.04715,56229
18.05650,65201
18.06583,71282
18.07518,67754
18.08452,56526
18.09385,48874
18.10320,54492
18.11253,72862
18.12187,84233
18.13122,85759
18.14055,69454
18.14988,66720
18.15923,61246
18.16857,59966
18.17790,58433
18.18725,56887
18.19658,56483
18.20592,53336
18.21527,50045
18.22460,51522
18.23393,52739
18.24328,54004
18.25262,49012
18.26197,47449
18.27130,46604
18.28063,53972
18.28998,58841
18.29932,66344
18.30865,73586
18.31800,74284
18.32733,73327
18.33667,67250
18.34602,69031
18.35535,75244
18.36468,81670
18.37403,79802
18.38337,77593
18.39270,77924
18.40205,91050
18.41138,112357
18.42072,116658
18.43007,87059
18.43940,67926
18.44875,67192
18.45808,72301
18.46742,67363
18.47677,62532
18.48610,58302
18.49543,65687
18.50478,82707
18.51412,104095
18.52345,108926
18.53280,103348
18.54213,102354
18.55147,126827
18.56082,132736
18.57015,108632
18.57948,74224
18.58883,61752
18.59817,59135
18.60750,62687
18.61685,68001
18.62618,74477
18.63553,74013
18.64487,70191
18.65420,68413
18.66355,70605
18.67288,84359
18.68222,101743
18.69157,112997
18.70090,117090
18.71023,117077
18.71958,108736
18.72892,98465
18.73825,85046
18.74760,76372
18.75693,70178
18.76627,65326
18.77562,59202
18.78495,53567
18.79430,53649
18.80363,57979
18.81297,59803
18.82232,56454
18.83165,55251
18.84098,56586
18.85033,56288
18.85967,54668
18.86900,53666
18.87835,52973
18.88768,51890
18.89702,52462
18.90637,60222
18.91570,75695
18.92503,87399
18.93438,84090
18.94372,72241
18.95305,73964
18.96240,83111
18.97173,90662
18.98108,95404
18.99042,85263
18.99975,70353
19.00910,63308
19.01843,59816
19.02777,59352
19.03712,60185
19.04645,72205
19.05578,101736
19.06513,135860
19.07447,156491
19.08380,197377
19.09315,235932
19.10248,215135
19.11182,148724
19.12117,92982
19.13050,63419
19.13983,52203
19.14918,50015
19.15852,48560
19.16787,48040
19.17720,49425
19.18653,49145
19.19588,55237
19.20522,59014
19.21455,64504
19.22390,68060
19.23323,68421
19.24257,64979
19.25192,62917
19.26125,54366
19.27058,54874
19.27993,59048
19.28927,71436
19.29860,76271
19.30795,95644
19.31728,132998
19.32662,145414
19.33597,124905
19.34530,88927
19.35465,72259
19.36398,59948
19.37332,55513
19.38267,50729
19.39200,51187
19.40133,53134
19.41068,57006
19.42002,58399
19.42935,55095
19.43870,52433
19.44803,50607
19.45737,50019
19.46672,51526
19.47605,57932
19.48538,60150
19.49473,63983
19.50407,66938
19.51340,58970
19.52275,58332
19.53208,55385
19.54143,58206
19.55077,57778
19.56010,54522
19.56945,55205
19.57878,61621
19.58812,68336
19.59747,70463
19.60680,68957
19.61613,62932
19.62548,60055
19.63482,61327
19.64415,71056
19.65350,68572
19.66283,62844
19.67217,58758
19.68152,58814
19.69085,64617
19.70020,78940
19.70953,91008
19.71887,92268
19.72822,94731
19.73755,109036
19.74688,111690
19.75623,93427
19.76557,73457
19.77490,69104
19.78425,74260
19.79358,80063
19.80292,78811
19.81227,73633
19.82160,68317
19.83093,70038
19.84028,67233
19.84962,63000
19.85895,59429
19.86830,66946
19.87763,85987
19.88698,110593
19.89632,111023
19.90565,91296
19.91500,75423
19.92433,71593
19.93367,68848
19.94302,66871
19.95235,66173
19.96168,69398
19.97103,81152
19.98037,82443
19.98970,75080
19.99905,67382
20.00838,65910
20.01772,68155
20.02707,71626
20.03640,79769
20.04573,96837
20.05508,104622
20.06442,94088
20.07377,74725
20.08310,73045
20.09243,76362
20.10178,73605
20.11112,69474
20.12045,61846
20.12980,61937
20.13913,65525
20.14847,77574
20.15782,103879
20.16715,118669
20.17648,104984
20.18583,85792
20.19517,73150
20.20450,64981
20.21385,67173
20.22318,77784
20.23252,127547
20.24187,351511
20.25120,875593
20.26055,1310562
20.26988,980719
20.27922,419698
20.28857,149162
20.29790,94609
20.30723,86289
20.31658,79008
20.32592,69899
20.33525,63939
20.34460,65905
20.35393,64588
20.36327,63450
20.37262,71478
20.38195,77191
20.39128,76685
20.40063,72778
20.40997,68995
20.41932,67932
20.42865,66404
20.43798,69462
20.44733,72372
20.45667,75744
20.46600,85190
20.47535,95942
20.48468,108142
20.49402,99384
20.50337,82367
20.51270,73009
20.52203,70495
20.53138,72538
20.54072,74744
20.55005,74952
20.55940,88391
20.56873,138631
20.57807,271852
20.58742,419458
20.59675,396612
20.60610,233981
20.61543,119486
20.62477,98971
20.63412,116739
20.64345,186213
20.65278,266813
20.66213,266995
20.67147,192435
20.68080,136524
20.69015,118600
20.69948,113364
20.70882,107000
20.71817,110683
20.72750,107567
20.73683,102233
20.74618,87928
20.75552,83782
20.76485,87522
20.77420,88077
20.78353,84361
20.79288,87352
20.80222,98221
20.81155,108259
20.82090,104715
20.83023,94988
20.83957,85568
20.84892,75439
20.85825,72994
20.86758,68909
20.87693,64694
20.88627,66561
20.89560,72334
20.90495,79770
20.91428,78243
20.92362,75568
20.93297,71078
20.94230,67916
20.95163,65763
20.96098,70307
20.97032,73786
20.97967,72968
20.98900,65839
20.99833,66054
21.00768,70891
21.01702,74606
21.02635,71462
21.03570,67613
21.04503,61776
21.05437,64064
21.06372,67574
21.07305,69335
21.08238,73659
21.09173,72389
21.10107,75712
21.11040,75211
21.11975,76744
21.12908,74439
21.13842,73208
21.14777,78670
21.15710,79064
21.16645,75414
21.17578,77824
21.18512,88930
21.19447,100725
21.20380,94382
21.21313,83868
21.22248,82808
21.23182,92335
21.24115,91620
21.25050,89327
21.25983,83354
21.26917,92256
21.27852,119586
21.28785,154161
21.29718,176201
21.30653,166467
21.31587,129959
21.32520,101244
21.33455,94681
21.34388,87830
21.35323,82559
21.36257,76603
21.37190,75094
21.38125,74946
21.39058,77520
21.39992,82019
21.40927,84565
21.41860,91999
21.42793,89193
21.43728,85081
21.44662,80800
21.45595,76732
21.46530,70328
21.47463,73443
21.48397,83544
21.49332,94672
21.50265,94786
21.51200,83505
21.52133,79579
21.53067,77175
21.54002,71926
21.54935,72837
21.55868,78995
21.56803,95467
21.57737,120913
21.58670,135237
21.59605,123679
21.60538,107009
21.61472,89293
21.62407,82930
21.63340,80717
21.64273,77729
21.65208,77414
21.66142,74175
21.67075,74127
21.68010,84927
21.68943,100143
21.69878,110377
21.70812,106236
21.71745,93899
21.72680,90251
21.73613,86964
21.74547,82409
21.75482,76676
21.76415,72230
21.77348,68822
21.78283,68056
21.79217,73158
21.80150,76636
21.81085,83239
21.82018,89189
21.82952,94708
21.83887,91410
21.84820,83806
21.85753,74984
21.86688,75253
21.87622,74727
21.88557,85460
21.89490,91845
21.90423,96562
21.91358,89981
21.92292,77965
21.93225,71970
21.94160,72921
21.95093,72946
21.96027,76260
21.96962,83517
21.97895,90801
21.98828,105232
21.99763,121247
22.00697,119801
22.01630,104885
22.02565,85681
22.03498,77325
22.04432,81165
22.05367,89528
22.06300,95232
22.07235,93052
22.08168,90962
22.09102,93601
22.10037,89312
22.10970,87048
22.11903,84210
22.12838,78563
22.13772,73856
22.14705,75690
22.15640,81408
22.16573,102086
22.17507,126297
22.18442,138295
22.19375,124760
22.20308,99829
22.21243,84036
22.22177,84885
22.23112,89183
22.24045,90908
22.24978,88662
22.25913,81897
22.26847,83909
22.27780,95338
22.28715,116812
22.29648,136341
22.30582,131498
22.31517,112592
22.32450,93684
22.33383,82918
22.34318,79100
22.35252,86264
22.36185,97000
22.37120,113267
22.38053,113517
22.38987,112738
22.39922,106051
22.40855,92745
22.41790,80379
22.42723,79207
22.43657,87541
22.44592,95082
22.45525,94796
22.46458,91148
22.47393,89319
22.48327,86082
22.49260,84252
22.50195,113000
22.51128,216478
22.52062,351776
22.52997,341849
22.53930,208203
22.54863,116924
22.55798,78870
22.56732,80304
22.57665,88397
22.58600,101469
22.59533,104581
22.60468,106214
22.61402,102773
22.62335,98324
22.63270,97997
22.64203,92131
22.65137,83911
22.66072,81055
22.67005,70389
22.67938,74081
22.68873,84358
22.69807,99212
22.70740,98920
22.71675,90558
22.72608,85249
22.73542,88070
22.74477,97917
22.75410,100969
22.76343,98283
22.77278,97056
22.78212,93787
22.79147,87657
22.80080,94797
22.81013,105193
22.81948,109118
22.82882,99804
22.83815,89927
22.84750,82220
22.85683,82364
22.86617,79820
22.87552,80251
22.88485,81562
22.89418,82888
22.90353,81627
22.91287,79241
22.92220,85197
22.93155,92130
22.94088,91819
22.95022,87891
22.95957,81494
22.96890,76349
22.97825,75322
22.98758,69320
22.99692,65956
23.00627,66816
23.01560,64822
23.02493,63346
23.03428,62912
23.04362,64085
23.05295,66450
23.06230,65199
23.07163,66094
23.08097,64410
23.09032,65980
23.09965,62630
23.10898,60710
23.11833,61411
23.12767,60724
23.13702,61857
23.14635,61450
23.15568,62942
23.16503,63116
23.17437,62372
23.18370,66184
23.19305,66139
23.20238,66531
23.21172,63317
23.22107,60513
23.23040,60436
23.23973,65603
23.24908,68029
23.25842,74339
23.26775,79254
23.27710,74908
23.28643,73367
23.29577,64040
23.30512,61251
23.31445,61936
23.32380,65158
23.33313,75112
23.34247,86804
23.35182,95652
23.36115,81544
23.37048,69299
23.37983,63823
23.38917,65097
23.39850,63407
23.40785,63161
23.41718,62589
23.42652,65038
23.43587,61896
23.44520,63616
23.45453,61677
23.46388,64007
23.47322,64366
23.48255,60801
23.49190,59657
23.50123,58834
23.51058,60841
23.51992,59265
23.52925,61953
23.53860,60840
23.54793,61746
23.55727,60028
23.56662,57369
23.57595,58920
23.58528,58600
23.59463,62293
23.60397,63276
23.61330,61599
23.62265,58913
23.63198,55281
23.64132,56528
23.65067,54640
23.66000,57199
23.66933,55167
23.67868,56325
23.68802,59523
23.69737,63108
23.70670,69786
23.71603,74627
23.72538,70714
23.73472,70112
23.74405,71719
23.75340,64131
23.76273,61785
23.77207,56577
23.78142,56178
23.79075,54613
23.80008,55501
23.80943,54294
23.81877,54868
23.82810,53777
23.83745,53963
23.84678,52759
23.85613,51436
23.86547,54105
23.87480,55061
23.88415,55699
23.89348,57581
23.90282,58506
23.91217,60576
23.92150,57533
23.93083,55857
23.94018,53142
23.94952,55099
23.95885,52854
23.96820,53618
23.97753,52200
23.98687,52866
23.99622,50249
24.00555,52740
24.01488,55878
24.02423,57051
24.03357,54220
24.04292,54015
24.05225,51280
24.06158,51099
24.07093,52284
24.08027,54753
24.08960,54543
24.09895,57964
24.10828,53470
24.11762,53441
24.12697,52478
24.13630,52774
24.14563,54268
24.15498,51856
24.16432,53096
24.17365,53609
24.18300,51853
24.19233,50846
24.20167,51913
24.21102,50589
24.22035,50749
24.22970,51447
24.23903,53783
24.24837,54116
24.25772,54393
24.26705,54629
24.27638,55348
24.28573,54246
24.29507,54900
24.30440,51220
24.31375,52621
24.32308,57267
24.33242,56961
24.34177,58442
24.35110,57328
24.36043,55245
24.36978,52196
24.37912,55555
24.38845,57887
24.39780,60487
24.40713,58127
24.41648,57839
24.42582,56073
24.43515,55643
24.44450,54246
24.45383,54050
24.46317,56669
24.47252,52765
24.48185,54255
24.49118,53226
24.50053,53216
24.50987,54386
24.51920,55232
24.52855,56472
24.53788,54841
24.54722,58488
24.55657,74761
24.56590,84846
24.57523,92848
24.58458,80268
24.59392,64234
24.60327,56870
24.61260,58654
24.62193,59866
24.63128,57256
24.64062,58346
24.64995,55234
24.65930,58992
24.66863,60039
24.67797,66479
24.68732,66157
24.69665,60892
24.70598,59461
24.71533,58075
24.72467,57279
24.73400,55476
24.74335,55701
24.75268,54389
24.76202,54306
24.77137,56032
24.78070,54368
24.79005,53737
24.79938,53462
24.80872,49931
24.81807,52062
24.82740,51993
24.83673,55536
24.84608,53587
24.85542,54347
24.86475,54230
24.87410,56012
24.88343,58386
24.89277,59635
24.90212,55126
24.91145,55715
24.92078,56608
24.93013,57315
24.93947,57037
24.94882,55854
24.95815,56426
24.96748,57307
24.97683,60912
24.98617,58277
24.99550,55037
25.00485,55621
25.01418,55212
25.02352,53851
25.03287,54201
25.04220,56302
25.05153,52131
25.06088,52985
25.07022,51574
25.07955,53339
25.08890,54102
25.09823,54779
25.10757,55856
25.11692,53641
25.12625,55698
25.13560,57473
25.14493,57856
25.15427,62015
25.16362,64129
25.17295,60510
25.18228,56902
25.19163,55125
25.20097,56914
25.21030,58713
25.21965,56676
25.22898,54732
25.23832,54209
25.24767,55278
25.25700,55291
25.26633,53366
25.27568,56519
25.28502,56104
25.29435,58234
25.30370,56331
25.31303,59789
25.32238,65694
25.33172,81582
25.34105,98434
25.35040,93190
25.35973,79608
25.36907,72458
25.37842,68122
25.38775,66627
25.39708,63359
25.40643,60511
25.41577,61731
25.42510,64591
25.43445,62703
25.44378,64397
25.45312,63714
25.46247,64215
25.47180,65575
25.48113,68353
25.49048,77147
25.49982,76767
25.50917,73570
25.51850,72675
25.52783,73278
25.53718,74769
25.54652,74257
25.55585,72810
25.56520,75651
25.57453,70903
25.58387,68184
25.59322,67045
25.60255,69725
25.61188,71470
25.62123,74387
25.63057,72617
25.63990,73120
25.64925,71095
25.65858,68220
25.66793,74745
25.67727,70997
25.68660,70118
25.69595,69417
25.70528,67282
25.71462,65235
25.72397,64918
25.73330,66859
25.74263,67665
25.75198,66721
25.76132,68685
25.77065,66188
25.78000,66216
25.78933,69037
25.79867,68915
25.80802,69055
25.81735,73458
25.82668,69809
25.83603,74078
25.84537,70846
25.85472,71874
25.86405,71470
25.87338,67950
25.88273,67735
25.89207,67009
25.90140,66194
25.91075,66190
25.92008,69241
25.92942,66867
25.93877,66481
25.94810,71819
25.95743,78409
25.96678,80343
25.97612,76686
25.98545,72343
25.99480,70830
26.00413,70843
26.01347,70203
26.02282,69228
26.03215,71043
26.04150,75801
26.05083,79193
26.06017,80244
26.06952,80816
26.07885,76339
26.08818,77096
26.09753,72777
26.10687,70931
26.11620,75192
26.12555,71521
26.13488,74123
26.14422,79709
26.15357,87846
26.16290,88050
26.17223,85429
26.18158,85399
26.19092,82478
26.20025,77980
26.20960,69526
26.21893,69371
26.22828,67161
26.23762,64249
26.24695,68488
26.25630,68339
26.26563,67487
26.27497,67541
26.28432,69688
26.29365,66210
26.30298,67117
26.31233,68764
26.32167,71277
26.33100,72394
26.34035,68350
26.34968,69783
26.35902,69030
26.36837,68493
26.37770,68844
26.38703,69921
26.39638,69911
26.40572,68794
26.41507,68176
26.42440,70327
26.43373,74116
26.44308,76560
26.45242,79672
26.46175,80719
26.47110,83704
26.48043,80108
26.48977,83246
26.49912,81325
26.50845,83783
26.51778,85410
26.52713,88227
26.53647,93898
26.54580,97303
26.55515,98165
26.56448,95680
26.57383,91882
26.58317,88290
26.59250,85379
26.60185,86484
26.61118,91359
26.62052,92567
26.62987,90752
26.63920,83561
26.64853,82179
26.65788,78595
26.66722,81546
26.67655,82473
26.68590,81192
26.69523,79310
26.70457,77415
26.71392,76527
26.72325,75831
26.73258,75010
26.74193,77078
26.75127,77357
26.76062,76879
26.76995,77085
26.77928,79654
26.78863,78771
26.79797,80534
26.80730,79389
26.81665,77543
26.82598,77862
26.83532,79996
26.84467,82495
26.85400,85043
26.86333,82744
26.87268,81410
26.88202,79193
26.89135,79563
26.90070,79361
26.91003,76786
26.91937,77056
26.92872,78872
26.93805,79419
26.94740,77186
26.95673,77818
26.96607,76058
26.97542,80508
26.98475,78273
26.99408,77228
27.00343,79459
27.01277,81528
27.02210,81650
27.03145,82750
27.04078,81671
27.05012,83069
27.05947,88605
27.06880,90806
27.07813,87797
27.08748,84806
27.09682,81563
27.10615,82383
27.11550,82125
27.12483,85488
27.13418,86677
27.14352,85360
27.15285,88470
27.16220,88231
27.17153,87133
27.18087,84912
27.19022,81528
27.19955,80984
27.20888,80100
27.21823,78746
27.22757,79822
27.23690,80166
27.24625,92040
27.25558,105717
27.26492,115013
27.27427,114175
27.28360,100054
27.29295,89240
27.30228,84342
27.31162,80245
27.32097,84050
27.33030,79938
27.33963,80387
27.34898,81929
27.35832,81581
27.36765,80335
27.37700,83697
27.38633,81039
27.39567,80493
27.40502,80999
27.41435,81697
27.42368,85786
27.43303,83750
27.44237,85846
27.45170,88298
27.46105,83800
27.47038,84006
27.47973,85850
27.48907,84121
27.49840,84345
27.50775,87238
27.51708,84693
27.52642,85950
27.53577,84010
27.54510,84795
27.55443,85127
27.56378,83736
27.57312,83580
27.58245,82576
27.59180,82903
27.60113,86223
27.61047,85038
27.61982,83272
27.62915,83100
27.63848,83432
27.64783,83237
27.65717,86951
27.66652,91676
27.67585,99718
27.68518,108137
27.69453,106757
27.70387,102568
27.71320,98147
27.72255,94168
27.73188,91039
27.74122,88335
27.75057,89968
27.75990,89201
27.76923,90415
27.77858,91722
27.78792,92348
27.79725,94991
27.80660,92021
27.81593,91427
27.82527,92429
27.83462,92410
27.84395,91503
27.85330,95858
27.86263,94389
27.87197,94068
27.88132,92794
27.89065,94848
27.89998,95566
27.90933,94867
27.91867,94512
27.92800,95755
27.93735,96104
27.94668,96629
27.95602,92649
27.96537,92090
27.97470,92315
27.98403,92702
27.99338,94421
28.00272,92663
28.01205,92612
28.02140,92860
28.03073,91892
28.04008,91408
28.04942,91636
28.05875,91744
28.06810,94018
28.07743,94372
28.08677,95214
28.09612,96169
28.10545,93035
28.11478,96356
28.12413,106757
28.13347,111641
28.14280,115549
28.15215,111093
28.16148,108726
28.17082,105891
28.18017,106983
28.18950,102615
28.19883,100953
28.20818,99848
28.21752,101705
28.22687,104759
28.23620,102163
28.24553,103423
28.25488,102615
28.26422,97655
28.27355,101374
28.28290,97753
28.29223,101851
28.30157,100991
28.31092,101704
28.32025,100717
28.32958,101537
28.33893,101324
28.34827,102609
28.35760,97612
28.36695,99583
28.37628,98536
28.38563,102805
28.39497,102020
28.40430,102816
28.41365,102006
28.42298,102219
28.43232,101382
28.44167,100937
28.45100,104301
28.46033,108681
28.46968,106044
28.47902,107686
28.48835,107599
28.49770,110404
28.50703,112836
28.51637,114410
28.52572,120565
28.53505,128979
28.54438,134114
28.55373,140300
28.56307,153180
28.57242,172339
28.58175,184430
28.59108,204000
28.60043,228981
28.60977,242020
28.61910,258216
28.62845,273548
28.63778,285630
28.64712,288191
28.65647,285372
28.66580,281791
28.67513,289780
28.68448,324089
28.69382,345564
28.70315,299668
28.71250,233332
28.72183,189008
28.73117,171447
28.74052,152232
28.74985,146720
28.75920,143073
28.76853,137762
28.77787,134527
28.78722,133419
28.79655,130575
28.80588,132853
28.81523,128457
28.82457,128315
28.83390,128761
28.84325,127407
28.85258,129454
28.86192,127958
28.87127,128164
28.88060,126345
28.88993,126525
28.89928,126247
28.90862,123460
28.91795,122951
28.92730,125749
28.93663,125072
28.94598,124654
28.95532,129145
28.96465,129888
28.97400,129694
28.98333,131841
28.99267,130541
29.00202,128872
29.01135,127544
29.02068,130812
29.03003,130293
29.03937,131316
29.04870,132238
29.05805,131791
29.06738,132087
29.07672,128688
29.08607,128799
29.09540,125888
29.10475,129054
29.11408,129457
29.12342,126685
29.13277,125530
29.14210,124628
29.15143,127135
29.16078,126203
29.17012,126014
29.17945,127052
29.18880,127020
29.19813,131931
29.20747,140416
29.21682,148394
29.22615,149142
29.23548,142279
29.24483,136817
29.25417,132027
29.26350,130965
29.27285,133454
29.28218,134430
29.29153,128794
29.30087,132568
29.31020,130077
29.31955,129137
29.32888,131392
29.33822,130169
29.34757,130105
29.35690,128189
29.36623,127809
29.37558,130392
29.38492,127881
29.39425,130922
29.40360,131350
29.41293,127813
29.42227,130140
29.43162,132734
29.44095,132679
29.45028,137018
29.45963,147955
29.46897,162038
29.47832,175808
29.48765,176566
29.49698,164679
29.50633,144881
29.51567,138400
29.52500,132007
29.53435,130177
29.54368,130820
29.55302,129014
29.56237,129967
29.57170,132887
29.58103,129137
29.59038,128655
29.59972,126203
29.60905,131689
29.61840,133560
29.62773,129435
29.63707,131649
29.64642,132064
29.65575,131325
29.66510,133131
29.67443,129827
29.68377,132346
29.69312,131631
29.70245,133195
29.71178,130511
29.72113,131908
29.73047,133365
29.73980,136303
29.74915,135464
29.75848,135191
29.76782,134455
29.77717,136352
29.78650,131058
29.79583,130359
29.80518,131334
29.81452,128347
29.82385,128516
29.83320,126658
29.84253,129952
29.85188,127792
29.86122,124721
29.87055,127471
29.87990,127607
29.88923,130548
29.89857,128507
29.90792,132075
29.91725,131821
29.92658,128009
29.93593,133091
29.94527,137068
29.95460,135561
29.96395,137546
29.97328,143573
29.98262,157540
29.99197,166495
30.00130,177127
30.01063,168784
30.01998,157257
30.02932,148831
30.03867,146446
30.04800,145646
30.05733,143680
30.06668,142575
30.07602,144510
30.08535,141244
30.09470,141710
30.10403,138143
30.11337,138464
30.12272,143051
30.13205,136824
30.14138,140104
30.15073,134970
30.16007,139342
30.16940,136705
30.17875,137167
30.18808,141185
30.19743,136044
30.20677,138802
30.21610,137936
30.22545,134395
30.23478,138774
30.24412,139967
30.25347,139414
30.26280,138296
30.27213,136708
30.28148,141955
30.29082,137905
30.30015,140265
30.30950,142338
30.31883,135634
30.32817,141964
30.33752,142269
30.34685,145231
30.35618,159130
30.36553,182376
30.37487,209192
30.38422,222091
30.39355,223157
30.40288,215322
30.41223,208447
30.42157,204002
30.43090,193420
30.44025,180324
30.44958,168766
30.45892,163469
30.46827,165796
30.47760,171611
30.48693,167389
30.49628,170373
30.50562,164507
30.51495,164819
30.52430,161620
30.53363,156904
30.54297,157033
30.55232,154869
30.56165,155977
30.57100,155528
30.58033,154426
30.58967,152516
30.59902,153994
30.60835,155000
30.61768,157485
30.62703,159533
30.63637,163801
30.64570,170945
30.65505,177148
30.66438,186845
30.67372,185702
30.68307,181204
30.69240,172670
30.70173,165331
30.71108,162001
30.72042,156883
30.72975,157036
30.73910,154756
30.74843,153649
30.75778,153884
30.76712,148087
30.77645,151471
30.78580,151190
30.79513,153328
30.80447,155269
30.81382,157955
30.82315,155178
30.83248,156238
30.84183,152170
30.85117,154145
30.86050,154208
30.86985,156682
30.87918,154878
30.88852,152993
30.89787,153973
30.90720,155769
30.91655,155333
30.92588,151418
30.93522,157676
30.94457,154144
30.95390,161203
30.96323,159442
30.97258,158948
30.98192,162265
30.99125,158173
31.00060,160318
31.00993,153953
31.01927,159463
31.02862,158441
31.03795,154411
31.04728,155068
31.05663,149482
31.06597,151505
31.07530,153376
31.08465,153143
31.09398,152669
31.10333,151689
31.11267,150608
31.12200,147041
31.13135,149931
31.14068,148799
31.15002,149399
31.15937,147543
31.16870,148290
31.17803,148097
31.18738,154377
31.19672,150054
31.20605,150771
31.21540,152087
31.22473,154002
31.23407,151088
31.24342,150030
31.25275,151653
31.26208,151935
31.27143,151495
31.28077,149698
31.29012,151342
31.29945,149864
31.30878,149800
31.31813,147664
31.32747,145644
31.33680,146931
31.34615,148635
31.35548,147919
31.36482,151329
