D:\数据\20211216\ZS1E-TJ-000217.D Thu Dec 16 13:21:29 2021
Start of data points
0.09765,27368
0.10698,29950
0.11633,28800
0.12567,30100
0.13500,28863
0.14435,28212
0.15368,27062
0.16302,29006
0.17237,28372
0.18170,29053
0.19105,27796
0.20038,27127
0.20972,28486
0.21907,27810
0.22840,28687
0.23773,27428
0.24708,27081
0.25642,27225
0.26575,27701
0.27510,26494
0.28443,27521
0.29377,27469
0.30312,27155
0.31245,27636
0.32178,27922
0.33113,28221
0.34047,27126
0.34982,26967
0.35915,27010
0.36848,27049
0.37783,26521
0.38717,28181
0.39650,26921
0.40585,27246
0.41518,28062
0.42452,25657
0.43387,21046
0.44320,18886
0.45253,17364
0.46188,10131
0.47122,6933
0.48055,6199
0.48990,6144
0.49923,5723
0.50857,5821
0.51792,6438
0.52725,6007
0.53660,4633
0.54593,5142
0.55527,5269
0.56462,5717
0.57395,5277
0.58328,5195
0.59263,5411
0.60197,4828
0.61130,5523
0.62065,4320
0.62998,4849
0.63932,4939
0.64867,5149
0.65800,4994
0.66733,4888
0.67668,4809
0.68602,5105
0.69535,4744
0.70470,5209
0.71403,5339
0.72338,4552
0.73272,4974
0.74205,5477
0.75140,4773
0.76073,4833
0.77007,5314
0.77942,4949
0.78875,5032
0.79808,5047
0.80743,4466
0.81677,4160
0.82610,4542
0.83545,5285
0.84478,5080
0.85412,4754
0.86347,4312
0.87280,5139
0.88213,4617
0.89148,5012
0.90082,4202
0.91017,4391
0.91950,4313
0.92883,4572
0.93818,4283
0.94752,5142
0.95685,4108
0.96620,4652
0.97553,5351
0.98487,5167
0.99422,5842
1.00355,4791
1.01288,5023
1.02223,4770
1.03157,4488
1.04090,5045
1.05025,4794
1.05958,4856
1.06893,5047
1.07827,4842
1.08760,4788
1.09695,4322
1.10628,5247
1.11562,4333
1.12497,4840
1.13430,4640
1.14363,4465
1.15298,5229
1.16232,4936
1.17165,4608
1.18100,5081
1.19033,5023
1.19967,4800
1.20902,5193
1.21835,5006
1.22768,4986
1.23703,4423
1.24637,4696
1.25572,4379
1.26505,4837
1.27438,4936
1.28373,4188
1.29307,4344
1.30240,4572
1.31175,4786
1.32108,4793
1.33042,4282
1.33977,4136
1.34910,5165
1.35843,4135
1.36778,4358
1.37712,4820
1.38645,4816
1.39580,4267
1.40513,4174
1.41447,5178
1.42382,3984
1.43315,3717
1.44250,4116
1.45183,4448
1.46117,4243
1.47052,4124
1.47985,4367
1.48918,4252
1.49853,4489
1.50787,4703
1.51720,4127
1.52655,4258
1.53588,4190
1.54522,4816
1.55457,4774
1.56390,4372
1.57323,3970
1.58258,4246
1.59192,6814
1.60125,12741
1.61060,19278
1.61993,25682
1.62928,30871
1.63862,40824
1.64795,52072
1.65730,54544
1.66663,54961
1.67597,48906
1.68532,42240
1.69465,36719
1.70398,31749
1.71333,24988
1.72267,20472
1.73200,22091
1.74135,25991
1.75068,28077
1.76002,35667
1.76937,40979
1.77870,41148
1.78803,40844
1.79738,40846
1.80672,40872
1.81607,38395
1.82540,38147
1.83473,37774
1.84408,37437
1.85342,36736
1.86275,36860
1.87210,42117
1.88143,57728
1.89077,94668
1.90012,141327
1.90945,178542
1.91878,231597
1.92813,394943
1.93747,730253
1.94680,1188964
1.95615,1492674
1.96548,1467320
1.97483,1210805
1.98417,908350
1.99350,679248
2.00285,560458
2.01218,522464
2.02152,511387
2.03087,462697
2.04020,344891
2.04953,235490
2.05888,179937
2.06822,137492
2.07755,111201
2.08690,91238
2.09623,79807
2.10557,69724
2.11492,69223
2.12425,72851
2.13358,88578
2.14293,119454
2.15227,135425
2.16162,125194
2.17095,108823
2.18028,111742
2.18963,196507
2.19897,261936
2.20830,199514
2.21765,126287
2.22698,108727
2.23632,146123
2.24567,222612
2.25500,850283
2.26433,2571684
2.27368,2957261
2.28302,2219543
2.29235,1373434
2.30170,1009354
2.31103,2542722
2.32037,6915227
2.32972,7884315
2.33905,4750741
2.34840,2116744
2.35773,915387
2.36707,446114
2.37642,283592
2.38575,235567
2.39508,202593
2.40443,169171
2.41377,144369
2.42310,134158
2.43245,126327
2.44178,113047
2.45112,99108
2.46047,99250
2.46980,147218
2.47913,208296
2.48848,195928
2.49782,147383
2.50715,112436
2.51650,94989
2.52583,84329
2.53518,79314
2.54452,80392
2.55385,91737
2.56320,114045
2.57253,356814
2.58187,462482
2.59122,379127
2.60055,286268
2.60988,229431
2.61923,227784
2.62857,243754
2.63790,213178
2.64725,166059
2.65658,141428
2.66592,126473
2.67527,108439
2.68460,92088
2.69395,73845
2.70328,67579
2.71262,72569
2.72197,100299
2.73130,137911
2.74063,162610
2.74998,182324
2.75932,219691
2.76865,269948
2.77800,351189
2.78733,371449
2.79667,323656
2.80602,252255
2.81535,206498
2.82468,204550
2.83403,188197
2.84337,154947
2.85270,144728
2.86205,158732
2.87138,168013
2.88073,198976
2.89007,177408
2.89940,141703
2.90875,113419
2.91808,106615
2.92742,99108
2.93677,88510
2.94610,76170
2.95543,68592
2.96478,65026
2.97412,60687
2.98345,59070
2.99280,60685
3.00213,70007
3.01147,77445
3.02082,80086
3.03015,73622
3.03948,72930
3.04883,102427
3.05817,139502
3.06752,177728
3.07685,182816
3.08618,149920
3.09553,107156
3.10487,75560
3.11420,61792
3.12355,56471
3.13288,59001
3.14222,62810
3.15157,67228
3.16090,76435
3.17023,77262
3.17958,69593
3.18892,62281
3.19825,58176
3.20760,56106
3.21693,59271
3.22627,58395
3.23562,57170
3.24495,55668
3.25430,55171
3.26363,56438
3.27297,53684
3.28232,51919
3.29165,53633
3.30098,59656
3.31033,63529
3.31967,61481
3.32900,55031
3.33835,52167
3.34768,53776
3.35702,52646
3.36637,52029
3.37570,51080
3.38503,47036
3.39438,45539
3.40372,51103
3.41305,61730
3.42240,73732
3.43173,73341
3.44108,70331
3.45042,70894
3.45975,77695
3.46910,75431
3.47843,68491
3.48777,63175
3.49712,63533
3.50645,60982
3.51578,56708
3.52513,52150
3.53447,52325
3.54380,59379
3.55315,114885
3.56248,296968
3.57182,502591
3.58117,506837
3.59050,331897
3.59983,185117
3.60918,125511
3.61852,145190
3.62787,149839
3.63720,127893
3.64653,110691
3.65588,91522
3.66522,84494
3.67455,85689
3.68390,87463
3.69323,80377
3.70257,66533
3.71192,61598
3.72125,72624
3.73058,82799
3.73993,77163
3.74927,67867
3.75860,58280
3.76795,54585
3.77728,52799
3.78663,47063
3.79597,49976
3.80530,69547
3.81465,124766
3.82398,186652
3.83332,172477
3.84267,118838
3.85200,78378
3.86133,60988
3.87068,58263
3.88002,58208
3.88935,60906
3.89870,71671
3.90803,78982
3.91737,74147
3.92672,70592
3.93605,74872
3.94538,88161
3.95473,120136
3.96407,151677
3.97342,129930
3.98275,92149
3.99208,70046
4.00143,80961
4.01077,86474
4.02010,82816
4.02945,86438
4.03878,112659
4.04812,160938
4.05747,178175
4.06680,144659
4.07613,128631
4.08548,140920
4.09482,159461
4.10415,146639
4.11350,118055
4.12283,85610
4.13217,70117
4.14152,63108
4.15085,62816
4.16020,59966
4.16953,56853
4.17887,55043
4.18822,51318
4.19755,48185
4.20688,54025
4.21623,52963
4.22557,55019
4.23490,53039
4.24425,49642
4.25358,49481
4.26292,50823
4.27227,52950
4.28160,58849
4.29093,70800
4.30028,72706
4.30962,69538
4.31897,74257
4.32830,83775
4.33763,83812
4.34698,78085
4.35632,70033
4.36565,62381
4.37500,55207
4.38433,53301
4.39367,55832
4.40302,59960
4.41235,55938
4.42168,51928
4.43103,49340
4.44037,48776
4.44970,45127
4.45905,48418
4.46838,52972
4.47772,64527
4.48707,76429
4.49640,71095
4.50575,62893
4.51508,53620
4.52442,51145
4.53377,48125
4.54310,51625
4.55243,51948
4.56178,53966
4.57112,53106
4.58045,51541
4.58980,51995
4.59913,50027
4.60847,49979
4.61782,50618
4.62715,47757
4.63648,46823
4.64583,51409
4.65517,56106
4.66450,61171
4.67385,62887
4.68318,63422
4.69253,64041
4.70187,69233
4.71120,70178
4.72055,63015
4.72988,51318
4.73922,47727
4.74857,57155
4.75790,68047
4.76723,66187
4.77658,61231
4.78592,59184
4.79525,56726
4.80460,53250
4.81393,52834
4.82327,52686
4.83262,53229
4.84195,56124
4.85128,55623
4.86063,54300
4.86997,59139
4.87932,69892
4.88865,79033
4.89798,77433
4.90733,75703
4.91667,70381
4.92600,66333
4.93535,62315
4.94468,64536
4.95402,59551
4.96337,55581
4.97270,48425
4.98203,45520
4.99138,46747
5.00072,46999
5.01005,47674
5.01940,52320
5.02873,58021
5.03807,64287
5.04742,64330
5.05675,60596
5.06610,53860
5.07543,53798
5.08477,56604
5.09412,60349
5.10345,55598
5.11278,50600
5.12213,49505
5.13147,60702
5.14080,66519
5.15015,77075
5.15948,85229
5.16882,81899
5.17817,70864
5.18750,63462
5.19683,67084
5.20618,72854
5.21552,70904
5.22485,62140
5.23420,57363
5.24353,62461
5.25288,64979
5.26222,62911
5.27155,84039
5.28090,187176
5.29023,395361
5.29957,531863
5.30892,422172
5.31825,242778
5.32758,142766
5.33693,103019
5.34627,82700
5.35560,67537
5.36495,59169
5.37428,58408
5.38362,64170
5.39297,81716
5.40230,92233
5.41165,87252
5.42098,76196
5.43032,65030
5.43967,56492
5.44900,50567
5.45833,47567
5.46768,47785
5.47702,48860
5.48635,48176
5.49570,46988
5.50503,48480
5.51437,51989
5.52372,54855
5.53305,61690
5.54238,62846
5.55173,61090
5.56107,61026
5.57040,60333
5.57975,56528
5.58908,54772
5.59843,48927
5.60777,46158
5.61710,47001
5.62645,46198
5.63578,42684
5.64512,45125
5.65447,45477
5.66380,49754
5.67313,52456
5.68248,52703
5.69182,54008
5.70115,59055
5.71050,59991
5.71983,64728
5.72917,64941
5.73852,59312
5.74785,63044
5.75718,74318
5.76653,76535
5.77587,76060
5.78522,84651
5.79455,84225
5.80388,70931
5.81323,62408
5.82257,58023
5.83190,66554
5.84125,76531
5.85058,71770
5.85992,62631
5.86927,52660
5.87860,45863
5.88793,40172
5.89728,38391
5.90662,43026
5.91595,70793
5.92530,141252
5.93463,191567
5.94397,169718
5.95332,126366
5.96265,112614
5.97200,94776
5.98133,72354
5.99067,56705
6.00002,46130
6.00935,41363
6.01868,35778
6.02803,31089
6.03737,28611
6.04670,27874
6.05605,27979
6.06538,29274
6.07472,31779
6.08407,29601
6.09340,23927
6.10273,22572
6.11208,24198
6.12142,27361
6.13077,47001
6.14010,88742
6.14943,74599
6.15878,54274
6.16812,34541
6.17745,23298
6.18680,23632
6.19613,23345
6.20547,21623
6.21482,21902
6.22415,21643
6.23348,25099
6.24283,28841
6.25217,28353
6.26150,25810
6.27085,23719
6.28018,29796
6.28952,40415
6.29887,41293
6.30820,32575
6.31755,24235
6.32688,19907
6.33622,19575
6.34557,19500
6.35490,21279
6.36423,20589
6.37358,21725
6.38292,27547
6.39225,50321
6.40160,161402
6.41093,564840
6.42027,1148025
6.42962,1206265
6.43895,729165
6.44828,284650
6.45763,97714
6.46697,47810
6.47630,34043
6.48565,30996
6.49498,27908
6.50433,24563
6.51367,25090
6.52300,24008
6.53235,24746
6.54168,23967
6.55102,21373
6.56037,20986
6.56970,21821
6.57903,20698
6.58838,23754
6.59772,24645
6.60705,29655
6.61640,30709
6.62573,29457
6.63507,28784
6.64442,28520
6.65375,29115
6.66308,31287
6.67243,32288
6.68177,30729
6.69112,28101
6.70045,27628
6.70978,32589
6.71913,40888
6.72847,38494
6.73780,32959
6.74715,30170
6.75648,26865
6.76582,24515
6.77517,23333
6.78450,25598
6.79383,28669
6.80318,35523
6.81252,37406
6.82185,32209
6.83120,28455
6.84053,25293
6.84987,26411
6.85922,27026
6.86855,27007
6.87790,26971
6.88723,24256
6.89657,23585
6.90592,24352
6.91525,28406
6.92458,29407
6.93393,26221
6.94327,25807
6.95260,23617
6.96195,24521
6.97128,26526
6.98062,26021
6.98997,27857
6.99930,26252
7.00863,24676
7.01798,23588
7.02732,23333
7.03667,22184
7.04600,19969
7.05533,17154
7.06468,17445
7.07402,17338
7.08335,18374
7.09270,20304
7.10203,23574
7.11137,26902
7.12072,28883
7.13005,27664
7.13938,25448
7.14873,21838
7.15807,20151
7.16740,19687
7.17675,19779
7.18608,20144
7.19542,20702
7.20477,20356
7.21410,22852
7.22345,25184
7.23278,38827
7.24212,80295
7.25147,113809
7.26080,98578
7.27013,59643
7.27948,40001
7.28882,34433
7.29815,32672
7.30750,29486
7.31683,25188
7.32617,20932
7.33552,19522
7.34485,18686
7.35418,18954
7.36353,18821
7.37287,20141
7.38220,21025
7.39155,36099
7.40088,87443
7.41023,194469
7.41957,267292
7.42890,233577
7.43825,144483
7.44758,74541
7.45692,39151
7.46627,26964
7.47560,23516
7.48493,20758
7.49428,27108
7.50362,31611
7.51295,30431
7.52230,26436
7.53163,22686
7.54097,20060
7.55032,19720
7.55965,19331
7.56898,22355
7.57833,23294
7.58767,24684
7.59702,25521
7.60635,27526
7.61568,28626
7.62503,30654
7.63437,33231
7.64370,30577
7.65305,27415
7.66238,24345
7.67172,22937
7.68107,22458
7.69040,24147
7.69973,24566
7.70908,25516
7.71842,27573
7.72775,27218
7.73710,26160
7.74643,26398
7.75577,30604
7.76512,32955
7.77445,34500
7.78380,30537
7.79313,30709
7.80247,33226
7.81182,30171
7.82115,25200
7.83048,22808
7.83983,24159
7.84917,26869
7.85850,39201
7.86785,77051
7.87718,114207
7.88652,111679
7.89587,80252
7.90520,58971
7.91453,69623
7.92388,109361
7.93322,126283
7.94257,91746
7.95190,56747
7.96123,56409
7.97058,68878
7.97992,68127
7.98925,57119
7.99860,51887
8.00793,43993
8.01727,36910
8.02662,35317
8.03595,37080
8.04528,49874
8.05463,58599
8.06397,50236
8.07330,36325
8.08265,29207
8.09198,33932
8.10132,64014
8.11067,76433
8.12000,63195
8.12935,44336
8.13868,35524
8.14802,30037
8.15737,28838
8.16670,28086
8.17603,26669
8.18538,25511
8.19472,24106
8.20405,26357
8.21340,25991
8.22273,27500
8.23207,24910
8.24142,26373
8.25075,33717
8.26008,35166
8.26943,33246
8.27877,27667
8.28810,26537
8.29745,24364
8.30678,23533
8.31613,24798
8.32547,24758
8.33480,25556
8.34415,25418
8.35348,25135
8.36282,24348
8.37217,22431
8.38150,23616
8.39083,24028
8.40018,33205
8.40952,37782
8.41885,40037
8.42820,40644
8.43753,39061
8.44687,36720
8.45622,34146
8.46555,33966
8.47488,32096
8.48423,32993
8.49357,30386
8.50292,30717
8.51225,30537
8.52158,26488
8.53093,26388
8.54027,26556
8.54960,27867
8.55895,29813
8.56828,32477
8.57762,31756
8.58697,32035
8.59630,32524
8.60563,36195
8.61498,38811
8.62432,34603
8.63365,33059
8.64300,30675
8.65233,28537
8.66167,28934
8.67102,30097
8.68035,32199
8.68970,32068
8.69903,31080
8.70837,31952
8.71772,31647
8.72705,29446
8.73638,27553
8.74573,32295
8.75507,47623
8.76440,58750
8.77375,54972
8.78308,41958
8.79242,37655
8.80177,51792
8.81110,88845
8.82043,120674
8.82978,106809
8.83912,63551
8.84847,37671
8.85780,29082
8.86713,32303
8.87648,36998
8.88582,40479
8.89515,40277
8.90450,37390
8.91383,35377
8.92317,33846
8.93252,35659
8.94185,37495
8.95118,33393
8.96053,29763
8.96987,28104
8.97920,28086
8.98855,29091
8.99788,29350
9.00722,32957
9.01657,36575
9.02590,35001
9.03525,33014
9.04458,32645
9.05392,33643
9.06327,36726
9.07260,39058
9.08193,50143
9.09128,60751
9.10062,64129
9.10995,54602
9.11930,41985
9.12863,35350
9.13797,38444
9.14732,38649
9.15665,38606
9.16598,33060
9.17533,31264
9.18467,31528
9.19400,33576
9.20335,37237
9.21268,47183
9.22203,72557
9.23137,121451
9.24070,155480
9.25005,130577
9.25938,81047
9.26872,52110
9.27807,42026
9.28740,37079
9.29673,34759
9.30608,33525
9.31542,37065
9.32475,48833
9.33410,73624
9.34343,87657
9.35277,72774
9.36212,67247
9.37145,136493
9.38078,227329
9.39013,245751
9.39947,180510
9.40882,120133
9.41815,82528
9.42748,70671
9.43683,62103
9.44617,52716
9.45550,41209
9.46485,33447
9.47418,30166
9.48352,30247
9.49287,33843
9.50220,41310
9.51153,44287
9.52088,36422
9.53022,36542
9.53955,42424
9.54890,50280
9.55823,66313
9.56758,99118
9.57692,108898
9.58625,83131
9.59560,55179
9.60493,57874
9.61427,63889
9.62362,51237
9.63295,40434
9.64228,39690
9.65163,39938
9.66097,38973
9.67030,38820
9.67965,38018
9.68898,35186
9.69832,33640
9.70767,29521
9.71700,32930
9.72633,67932
9.73568,241027
9.74502,671899
9.75437,1036304
9.76370,889044
9.77303,496925
9.78238,242119
9.79172,143880
9.80105,111109
9.81040,90558
9.81973,77625
9.82907,84038
9.83842,99666
9.84775,110945
9.85708,115220
9.86643,93981
9.87577,71174
9.88510,69200
9.89445,82642
9.90378,90459
9.91312,81666
9.92247,68889
9.93180,64633
9.94115,62990
9.95048,56686
9.95982,46873
9.96917,46839
9.97850,70790
9.98783,149535
9.99718,228083
10.00652,219307
10.01585,138569
10.02520,78173
10.03453,52600
10.04387,43208
10.05322,41781
10.06255,49312
10.07188,67218
10.08123,83785
10.09057,82042
10.09990,67457
10.10925,61056
10.11858,116638
10.12793,299283
10.13727,488772
10.14660,535412
10.15595,852020
10.16528,2215730
10.17462,3573820
10.18397,2904692
10.19330,1128805
10.20263,250386
10.21198,73457
10.22132,50097
10.23065,49385
10.24000,57917
10.24933,85421
10.25867,88775
10.26802,68584
10.27735,50633
10.28668,43414
10.29603,42000
10.30537,41278
10.31472,39637
10.32405,38327
10.33338,37328
10.34273,32347
10.35207,35903
10.36140,36015
10.37075,37715
10.38008,36543
10.38942,33448
10.39877,32680
10.40810,32250
10.41743,33844
10.42678,37001
10.43612,39745
10.44545,41117
10.45480,41093
10.46413,49908
10.47348,53441
10.48282,55515
10.49215,43801
10.50150,36808
10.51083,33225
10.52017,30940
10.52952,32957
10.53885,32509
10.54818,36274
10.55753,35139
10.56687,35556
10.57620,34325
10.58555,35730
10.59488,31814
10.60422,34322
10.61357,31556
10.62290,32509
10.63223,37746
10.64158,43746
10.65092,45027
10.66027,38719
10.66960,38238
10.67893,41986
10.68828,47505
10.69762,47538
10.70695,43880
10.71630,44325
10.72563,54367
10.73497,53760
10.74432,52068
10.75365,87572
10.76298,193912
10.77233,282630
10.78167,240694
10.79100,168094
10.80035,172769
10.80968,251216
10.81902,265212
10.82837,169099
10.83770,83942
10.84705,49615
10.85638,43046
10.86572,43793
10.87507,46976
10.88440,57563
10.89373,67303
10.90308,60275
10.91242,50025
10.92175,44869
10.93110,46494
10.94043,50732
10.94977,45454
10.95912,41384
10.96845,40936
10.97778,40027
10.98713,38039
10.99647,34495
11.00580,34920
11.01515,33936
11.02448,33883
11.03383,33129
11.04317,32568
11.05250,34435
11.06185,31892
11.07118,34134
11.08052,38771
11.08987,37587
11.09920,36228
11.10853,44977
11.11788,61380
11.12722,66708
11.13655,58893
11.14590,49640
11.15523,44302
11.16457,39649
11.17392,40601
11.18325,38796
11.19260,37052
11.20193,33252
11.21127,34637
11.22062,34778
11.22995,37129
11.23928,38971
11.24863,34214
11.25797,38020
11.26730,44033
11.27665,45966
11.28598,42135
11.29532,34756
11.30467,32069
11.31400,31887
11.32333,31455
11.33268,35503
11.34202,47842
11.35135,62697
11.36070,73690
11.37003,72166
11.37938,60830
11.38872,50339
11.39805,49505
11.40740,56234
11.41673,60487
11.42607,53958
11.43542,41582
11.44475,35594
11.45408,35470
11.46343,42461
11.47277,58486
11.48210,68362
11.49145,57615
11.50078,40979
11.51012,34463
11.51947,32934
11.52880,33898
11.53813,29732
11.54748,32712
11.55682,37211
11.56617,58162
11.57550,109164
11.58483,162708
11.59418,166124
11.60352,127754
11.61285,94369
11.62220,73473
11.63153,59339
11.64087,50669
11.65022,47826
11.65955,47141
11.66888,51851
11.67823,50142
11.68757,47230
11.69690,43360
11.70625,40955
11.71558,41584
11.72492,40869
11.73427,40038
11.74360,35691
11.75295,38333
11.76228,39012
11.77162,41890
11.78097,44127
11.79030,51855
11.79963,56132
11.80898,47520
11.81832,43858
11.82765,45325
11.83700,48503
11.84633,47396
11.85567,47864
11.86502,44275
11.87435,45655
11.88368,46016
11.89303,47172
11.90237,43377
11.91170,39176
11.92105,38809
11.93038,38968
11.93973,45727
11.94907,58206
11.95840,71982
11.96775,65341
11.97708,50656
11.98642,38844
11.99577,40703
12.00510,50158
12.01443,78880
12.02378,110170
12.03312,98375
12.04245,68439
12.05180,53475
12.06113,46679
12.07047,40366
12.07982,37596
12.08915,36655
12.09848,38049
12.10783,39636
12.11717,40316
12.12652,38084
12.13585,36285
12.14518,39240
12.15453,40838
12.16387,52677
12.17320,98365
12.18255,168460
12.19188,179355
12.20122,120738
12.21057,65936
12.21990,48195
12.22923,54315
12.23858,58583
12.24792,56672
12.25725,49085
12.26660,54115
12.27593,87527
12.28528,147673
12.29462,167636
12.30395,116471
12.31330,66823
12.32263,52996
12.33197,48899
12.34132,52523
12.35065,54774
12.35998,49804
12.36933,43638
12.37867,46765
12.38800,53867
12.39735,62928
12.40668,67216
12.41602,60812
12.42537,51855
12.43470,49862
12.44403,46639
12.45338,42745
12.46272,44970
12.47207,49644
12.48140,53243
12.49073,54960
12.50008,55512
12.50942,55188
12.51875,58243
12.52810,56297
12.53743,57952
12.54677,57574
12.55612,54494
12.56545,61205
12.57478,70373
12.58413,71355
12.59347,57225
12.60280,46857
12.61215,44354
12.62148,45359
12.63082,54159
12.64017,69724
12.64950,89464
12.65885,87421
12.66818,77089
12.67752,59672
12.68687,48961
12.69620,40469
12.70553,38986
12.71488,43668
12.72422,48938
12.73355,49491
12.74290,48999
12.75223,48105
12.76157,52117
12.77092,51293
12.78025,43168
12.78958,39238
12.79893,38199
12.80827,42790
12.81760,44259
12.82695,45645
12.83628,45225
12.84563,44491
12.85497,42565
12.86430,38335
12.87365,37557
12.88298,37508
12.89232,40666
12.90167,42830
12.91100,42321
12.92033,41272
12.92968,38352
12.93902,38870
12.94835,42275
12.95770,44847
12.96703,43561
12.97637,40871
12.98572,35281
12.99505,33264
13.00440,34265
13.01373,36922
13.02307,43317
13.03242,52958
13.04175,61566
13.05108,56920
13.06043,49455
13.06977,47747
13.07910,52790
13.08845,53180
13.09778,48695
13.10712,44663
13.11647,42723
13.12580,42190
13.13513,49090
13.14448,55123
13.15382,61367
13.16315,66414
13.17250,74173
13.18183,77498
13.19118,76590
13.20052,130566
13.20985,295099
13.21920,477848
13.22853,461551
13.23787,266862
13.24722,159227
13.25655,146221
13.26588,127537
13.27523,93311
13.28457,77632
13.29390,72448
13.30325,59536
13.31258,55349
13.32192,57727
13.33127,65860
13.34060,60785
13.34993,60328
13.35928,56453
13.36862,53059
13.37797,48671
13.38730,45371
13.39663,50793
13.40598,62760
13.41532,60965
13.42465,49552
13.43400,49680
13.44333,58006
13.45267,62668
13.46202,58957
13.47135,52381
13.48068,54113
13.49003,54204
13.49937,49855
13.50870,46890
13.51805,66157
13.52738,119562
13.53672,165074
13.54607,144209
13.55540,86468
13.56475,51918
13.57408,43691
13.58342,41027
13.59277,39987
13.60210,35806
13.61143,36009
13.62078,35532
13.63012,36587
13.63945,39068
13.64880,40243
13.65813,43899
13.66747,44177
13.67682,41867
13.68615,39505
13.69548,36518
13.70483,36289
13.71417,35550
13.72350,35744
13.73285,34468
13.74218,33905
13.75153,33074
13.76087,35645
13.77020,37987
13.77955,37303
13.78888,35860
13.79822,40073
13.80757,45500
13.81690,50706
13.82623,44738
13.83558,41457
13.84492,37917
13.85425,36007
13.86360,37216
13.87293,42356
13.88227,47075
13.89162,58535
13.90095,89275
13.91028,143190
13.91963,235391
13.92897,282064
13.93832,205058
13.94765,104513
13.95698,65120
13.96633,58935
13.97567,55736
13.98500,48092
13.99435,45335
14.00368,46898
14.01302,47929
14.02237,41585
14.03170,41592
14.04103,53276
14.05038,216440
14.05972,1249279
14.06905,4236383
14.07840,7641757
14.08773,7228573
14.09708,3115865
14.10642,680236
14.11575,123144
14.12510,62933
14.13443,53456
14.14377,52128
14.15312,54058
14.16245,58207
14.17178,57701
14.18113,60681
14.19047,72697
14.19980,101505
14.20915,111151
14.21848,81530
14.22782,52414
14.23717,39676
14.24650,35821
14.25583,35807
14.26518,38693
14.27452,41978
14.28387,44051
14.29320,40248
14.30253,36665
14.31188,40869
14.32122,55831
14.33055,76173
14.33990,86215
14.34923,74553
14.35857,59349
14.36792,46502
14.37725,42961
14.38658,40058
14.39593,40761
14.40527,39353
14.41460,37198
14.42395,35762
14.43328,36066
14.44262,36160
14.45197,44378
14.46130,58696
14.47065,75721
14.47998,78128
14.48932,64423
14.49867,50669
14.50800,44757
14.51733,37672
14.52668,35678
14.53602,35249
14.54535,38026
14.55470,40360
14.56403,42406
14.57337,45163
14.58272,45369
14.59205,40725
14.60138,38670
14.61073,38674
14.62007,36643
14.62940,39528
14.63875,44727
14.64808,60049
14.65743,78204
14.66677,88531
14.67610,76899
14.68545,62018
14.69478,47856
14.70412,43885
14.71347,39649
14.72280,38726
14.73213,40131
14.74148,39819
14.75082,40219
14.76015,40853
14.76950,43285
14.77883,47794
14.78817,48238
14.79752,46681
14.80685,45758
14.81620,44438
14.82553,43160
14.83487,42459
14.84422,42435
14.85355,43186
14.86288,52916
14.87223,63749
14.88157,66186
14.89090,58605
14.90025,45941
14.90958,40481
14.91892,42181
14.92827,39460
14.93760,42359
14.94693,43159
14.95628,43551
14.96562,44782
14.97495,48277
14.98430,46793
14.99363,44361
15.00298,45348
15.01232,51903
15.02165,59326
15.03100,51837
15.04033,47820
15.04967,48940
15.05902,55635
15.06835,53245
15.07768,50233
15.08703,45982
15.09637,43716
15.10570,40559
15.11505,39816
15.12438,46320
15.13372,57774
15.14307,61367
15.15240,56534
15.16173,42819
15.17108,40446
15.18042,40342
15.18977,42036
15.19910,51958
15.20843,75059
15.21778,101808
15.22712,119248
15.23645,97639
15.24580,73430
15.25513,55810
15.26447,49465
15.27382,46577
15.28315,45234
15.29248,43635
15.30183,42482
15.31117,42091
15.32050,41063
15.32985,48091
15.33918,56428
15.34852,58624
15.35787,57085
15.36720,56316
15.37655,62565
15.38588,63441
15.39522,52149
15.40457,42436
15.41390,40141
15.42323,42342
15.43258,44231
15.44192,48357
15.45125,44828
15.46060,41191
15.46993,38650
15.47927,42002
15.48862,42598
15.49795,43983
15.50728,49535
15.51663,63442
15.52597,79259
15.53530,83742
15.54465,71659
15.55398,53558
15.56333,43580
15.57267,41021
15.58200,39931
15.59135,38788
15.60068,39224
15.61002,39279
15.61937,41850
15.62870,47838
15.63803,53901
15.64738,58475
15.65672,56437
15.66605,59273
15.67540,56421
15.68473,51744
15.69407,52505
15.70342,68377
15.71275,85912
15.72210,86197
15.73143,62921
15.74077,49611
15.75012,53059
15.75945,61613
15.76878,63627
15.77813,63286
15.78747,54752
15.79680,48108
15.80615,52341
15.81548,80033
15.82482,141178
15.83417,250911
15.84350,346833
15.85283,355338
15.86218,255106
15.87152,135735
15.88085,84059
15.89020,79543
15.89953,85272
15.90888,91177
15.91822,79004
15.92755,68361
15.93690,55533
15.94623,50737
15.95557,46698
15.96492,45972
15.97425,49621
15.98358,63102
15.99293,83467
16.00227,98360
16.01160,88742
16.02095,66425
16.03028,52323
16.03962,49285
16.04897,47466
16.05830,52700
16.06763,52176
16.07698,54082
16.08632,50320
16.09567,48839
16.10500,48611
16.11433,51236
16.12368,57417
16.13302,60379
16.14235,55520
16.15170,49721
16.16103,50781
16.17037,49875
16.17972,47531
16.18905,48751
16.19838,53865
16.20773,63758
16.21707,68996
16.22640,65848
16.23575,65030
16.24508,61184
16.25442,59025
16.26377,54804
16.27310,58669
16.28245,87907
16.29178,191504
16.30112,343541
16.31047,386565
16.31980,287585
16.32913,168455
16.33848,99800
16.34782,62420
16.35715,45985
16.36650,41256
16.37583,38845
16.38517,39158
16.39452,41521
16.40385,43054
16.41318,44768
16.42253,50115
16.43187,47804
16.44122,49102
16.45055,50164
16.45988,57086
16.46923,60030
16.47857,53669
16.48790,50346
16.49725,49128
16.50658,51797
16.51592,52358
16.52527,58404
16.53460,56234
16.54393,51286
16.55328,45993
16.56262,45048
16.57195,43762
16.58130,42398
16.59063,43457
16.59997,45545
16.60932,42673
16.61865,44621
16.62800,52359
16.63733,60775
16.64667,64728
16.65602,59788
16.66535,52081
16.67468,47456
16.68403,46918
16.69337,57361
16.70270,67142
16.71205,67577
16.72138,60392
16.73072,51266
16.74007,58995
16.74940,98674
16.75873,141692
16.76808,128678
16.77742,81653
16.78675,52592
16.79610,44532
16.80543,44318
16.81478,49420
16.82412,55394
16.83345,59887
16.84280,65636
16.85213,66729
16.86147,57831
16.87082,51427
16.88015,43913
16.88948,46746
16.89883,47197
16.90817,53163
16.91750,68023
16.92685,74198
16.93618,68007
16.94552,63821
16.95487,70592
16.96420,73966
16.97353,71079
16.98288,67447
16.99222,56841
17.00157,51330
17.01090,48844
17.02023,52538
17.02958,74805
17.03892,111306
17.04825,123090
17.05760,88317
17.06693,59830
17.07627,54426
17.08562,50961
17.09495,49438
17.10428,49518
17.11363,46728
17.12297,48112
17.13230,51156
17.14165,53901
17.15098,55172
17.16032,45942
17.16967,43669
17.17900,43419
17.18835,43596
17.19768,47052
17.20702,42860
17.21637,42051
17.22570,41625
17.23503,41062
17.24438,42935
17.25372,43885
17.26305,46232
17.27240,49761
17.28173,54328
17.29107,60303
17.30042,60971
17.30975,55161
17.31908,54190
17.32843,58817
17.33777,58789
17.34710,53953
17.35645,49156
17.36578,46923
17.37513,57009
17.38447,97201
17.39380,151599
17.40315,146306
17.41248,103794
17.42182,67824
17.43117,56722
17.44050,52237
17.44983,53439
17.45918,54851
17.46852,52814
17.47785,49305
17.48720,64065
17.49653,189582
17.50587,743315
17.51522,1885156
17.52455,2589211
17.53390,1750486
17.54323,581252
17.55257,139563
17.56192,63175
17.57125,60131
17.58058,66066
17.58993,69268
17.59927,67258
17.60860,56130
17.61795,50875
17.62728,49233
17.63662,52775
17.64597,51300
17.65530,52766
17.66463,58091
17.67398,63253
17.68332,71541
17.69265,87950
17.70200,89220
17.71133,80644
17.72068,71098
17.73002,64526
17.73935,58962
17.74870,57333
17.75803,60963
17.76737,68578
17.77672,73028
17.78605,67690
17.79538,65680
17.80473,63956
17.81407,58826
17.82340,53281
17.83275,49969
17.84208,51308
17.85142,53692
17.86077,64183
17.87010,72512
17.87943,77100
17.88878,72109
17.89812,60067
17.90747,52931
17.91680,47544
17.92613,48146
17.93548,47852
17.94482,51195
17.95415,50666
17.96350,49435
17.97283,52691
17.98217,52512
17.99152,50480
18.00085,49100
18.01018,50426
18.01953,50193
18.02887,48620
18.03820,48834
18.04755,53548
18.05688,60871
18.06622,60061
18.07557,57215
18.08490,48124
18.09425,47257
18.10358,53468
18.11292,66203
18.12227,71631
18.13160,67385
18.14093,62152
18.15028,60005
18.15962,57308
18.16895,56735
18.17830,56955
18.18763,52942
18.19697,49785
18.20632,46595
18.21565,47348
18.22498,49502
18.23433,50522
18.24367,46932
18.25302,47343
18.26235,46196
18.27168,47092
18.28103,54453
18.29037,59940
18.29970,63409
18.30905,69271
18.31838,68810
18.32772,65160
18.33707,64460
18.34640,73377
18.35573,76180
18.36508,79967
18.37442,76005
18.38375,72129
18.39310,68266
18.40243,61797
18.41177,59345
18.42112,56183
18.43045,52475
18.43980,54640
18.44913,63754
18.45847,64489
18.46782,61002
18.47715,52724
18.48648,52567
18.49583,66170
18.50517,82083
18.51450,99298
18.52385,95025
18.53318,83634
18.54252,69179
18.55187,70295
18.56120,70732
18.57053,67906
18.57988,65779
18.58922,72037
18.59855,79673
18.60790,71613
18.61723,68770
18.62658,63071
18.63592,61413
18.64525,63992
18.65460,64825
18.66393,62199
18.67327,61871
18.68262,66620
18.69195,67815
18.70128,69884
18.71063,68912
18.71997,71210
18.72930,70548
18.73865,69632
18.74798,64493
18.75732,61569
18.76667,53647
18.77600,48886
18.78533,47228
18.79468,44996
18.80402,47687
18.81337,50158
18.82270,47269
18.83203,50133
18.84138,49512
18.85072,48913
18.86005,47131
18.86940,47144
18.87873,43197
18.88807,45232
18.89742,47329
18.90675,54962
18.91608,65707
18.92543,70766
18.93477,65535
18.94410,61234
18.95345,62530
18.96278,72298
18.97212,82700
18.98147,87434
18.99080,80294
19.00015,63109
19.00948,58139
19.01882,56295
19.02817,55164
19.03750,54719
19.04683,69170
19.05618,93086
19.06552,109178
19.07485,124289
19.08420,150057
19.09353,177318
19.10287,161794
19.11222,111487
19.12155,71160
19.13088,56596
19.14023,49200
19.14957,48713
19.15892,47620
19.16825,43203
19.17758,45148
19.18693,46706
19.19627,50320
19.20560,56997
19.21495,57099
19.22428,62526
19.23362,61220
19.24297,57745
19.25230,51935
19.26163,47625
19.27098,48648
19.28032,56154
19.28965,65488
19.29900,68459
19.30833,81351
19.31767,101515
19.32702,103147
19.33635,88391
19.34570,68486
19.35503,56872
19.36437,49627
19.37372,48028
19.38305,47743
19.39238,48234
19.40173,52187
19.41107,56370
19.42040,56029
19.42975,50050
19.43908,46537
19.44842,43159
19.45777,43866
19.46710,46451
19.47643,49816
19.48578,53338
19.49512,54322
19.50445,53189
19.51380,49984
19.52313,47428
19.53248,49375
19.54182,52425
19.55115,49630
19.56050,45331
19.56983,46544
19.57917,52068
19.58852,57213
19.59785,56128
19.60718,55533
19.61653,50492
19.62587,50830
19.63520,54846
19.64455,58931
19.65388,59179
19.66322,53136
19.67257,49018
19.68190,50048
19.69123,53820
19.70058,58582
19.70992,65370
19.71927,68984
19.72860,77382
19.73793,86933
19.74728,87100
19.75662,74119
19.76595,59931
19.77530,58182
19.78463,59173
19.79397,61076
19.80332,56976
19.81265,50939
19.82198,51577
19.83133,51282
19.84067,49820
19.85000,47484
19.85935,44711
19.86868,53639
19.87803,71991
19.88737,87641
19.89670,78774
19.90605,62458
19.91538,54480
19.92472,52401
19.93407,53804
19.94340,50494
19.95273,48401
19.96208,48279
19.97142,53383
19.98075,52238
19.99010,49707
19.99943,45856
20.00877,45248
20.01812,46136
20.02745,49619
20.03678,52432
20.04613,53731
20.05547,54540
20.06482,52657
20.07415,52130
20.08348,53133
20.09283,51891
20.10217,51028
20.11150,46306
20.12085,44072
20.13018,41736
20.13952,43295
20.14887,52020
20.15820,61914
20.16753,64851
20.17688,61840
20.18622,52998
20.19555,46217
20.20490,43303
20.21423,45395
20.22357,46716
20.23292,49302
20.24225,52212
20.25160,59481
20.26093,62690
20.27027,55400
20.27962,48438
20.28895,47158
20.29828,49877
20.30763,48631
20.31697,42620
20.32630,40412
20.33565,39598
20.34498,41435
20.35432,40631
20.36367,43703
20.37300,46148
20.38233,46178
20.39168,44776
20.40102,42577
20.41035,41618
20.41970,40441
20.42903,43307
20.43838,43452
20.44772,43730
20.45705,42873
20.46640,45847
20.47573,53630
20.48507,55238
20.49442,51216
20.50375,45807
20.51308,43884
20.52243,43047
20.53177,42444
20.54110,44008
20.55045,48091
20.55978,56751
20.56912,97024
20.57847,193258
20.58780,281727
20.59713,228258
20.60648,127033
20.61582,73250
20.62517,55848
20.63450,56111
20.64383,55883
20.65318,60706
20.66252,57508
20.67185,55556
20.68120,52262
20.69053,51081
20.69987,51855
20.70922,48709
20.71855,51727
20.72788,55719
20.73723,51266
20.74657,51601
20.75590,52512
20.76525,46702
20.77458,45250
20.78392,46157
20.79327,52240
20.80260,57430
20.81195,60508
20.82128,54807
20.83062,49700
20.83997,46096
20.84930,45217
20.85863,42891
20.86798,41037
20.87732,42602
20.88665,42282
20.89600,45573
20.90533,51442
20.91467,51931
20.92402,49416
20.93335,45779
20.94268,42748
20.95203,42497
20.96137,41772
20.97072,40279
20.98005,42097
20.98938,39605
20.99873,42096
21.00807,41986
21.01740,41774
21.02675,41243
21.03608,39068
21.04542,43301
21.05477,44050
21.06410,45464
21.07343,44452
21.08278,42501
21.09212,43415
21.10145,42340
21.11080,46047
21.12013,46489
21.12947,47582
21.13882,47117
21.14815,46811
21.15750,46237
21.16683,47016
21.17617,51904
21.18552,69503
21.19485,75827
21.20418,71932
21.21353,59344
21.22287,50955
21.23220,46547
21.24155,47087
21.25088,46560
21.26022,43788
21.26957,47718
21.27890,56032
21.28823,65384
21.29758,68163
21.30692,63169
21.31625,54050
21.32560,50528
21.33493,51896
21.34428,49977
21.35362,47216
21.36295,47653
21.37230,45409
21.38163,44275
21.39097,46516
21.40032,47707
21.40965,49103
21.41898,54847
21.42833,52637
21.43767,50160
21.44700,48964
21.45635,48373
21.46568,45274
21.47502,45925
21.48437,49096
21.49370,52244
21.50303,51091
21.51238,51625
21.52172,50252
21.53107,47858
21.54040,47350
21.54973,47149
21.55908,50652
21.56842,57969
21.57775,69312
21.58710,69497
21.59643,64201
21.60577,56574
21.61512,51671
21.62445,52116
21.63378,51724
21.64313,50891
21.65247,47333
21.66180,44784
21.67115,48832
21.68048,55885
21.68983,62934
21.69917,61721
21.70850,60333
21.71785,59141
21.72718,61295
21.73652,59994
21.74587,57720
21.75520,51760
21.76453,47988
21.77388,47482
21.78322,46463
21.79255,45022
21.80190,49774
21.81123,54023
21.82057,60018
21.82992,61285
21.83925,58601
21.84858,52847
21.85793,48867
21.86727,47013
21.87662,51447
21.88595,56949
21.89528,64789
21.90463,69029
21.91397,64842
21.92330,57355
21.93265,49997
21.94198,48992
21.95132,50211
21.96067,50486
21.97000,56703
21.97933,65053
21.98868,73991
21.99802,84961
22.00735,80914
22.01670,67315
22.02603,57504
22.03537,55977
22.04472,58884
22.05405,64014
22.06340,60332
22.07273,59749
22.08207,61436
22.09142,56631
22.10075,55873
22.11008,52097
22.11943,51583
22.12877,49074
22.13810,48984
22.14745,48216
22.15678,56883
22.16612,65898
22.17547,72128
22.18480,72875
22.19413,63554
22.20348,56581
22.21282,55218
22.22215,56970
22.23150,62502
22.24083,62630
22.25018,61784
22.25952,58178
22.26885,57512
22.27820,66593
22.28753,76384
22.29687,83448
22.30622,79380
22.31555,72505
22.32488,60325
22.33423,54315
22.34357,53257
22.35290,58008
22.36225,64479
22.37158,71913
22.38092,74309
22.39027,69266
22.39960,65219
22.40893,57052
22.41828,53605
22.42762,54507
22.43697,61643
22.44630,62561
22.45563,59913
22.46498,57589
22.47432,54894
22.48365,53822
22.49300,51386
22.50233,56489
22.51167,69505
22.52102,81989
22.53035,76428
22.53968,64397
22.54903,54756
22.55837,52733
22.56770,53865
22.57705,59857
22.58638,64441
22.59573,65305
22.60507,67612
22.61440,66549
22.62375,68482
22.63308,63375
22.64242,59936
22.65177,54472
22.66110,50224
22.67043,50754
22.67978,52955
22.68912,58320
22.69845,66172
22.70780,63087
22.71713,56368
22.72647,55590
22.73582,60324
22.74515,65434
22.75448,66706
22.76383,63888
22.77317,63095
22.78252,58655
22.79185,61132
22.80118,66160
22.81053,68243
22.81987,68078
22.82920,65323
22.83855,61675
22.84788,60203
22.85722,58082
22.86657,56471
22.87590,58123
22.88523,56964
22.89458,56860
22.90392,55760
22.91325,56095
22.92260,58583
22.93193,60382
22.94127,62061
22.95062,67771
22.95995,113024
22.96930,228410
22.97863,323942
22.98797,297485
22.99732,166867
23.00665,80614
23.01598,52316
23.02533,48221
23.03467,47709
23.04400,51577
23.05335,50703
23.06268,49665
23.07202,49810
23.08137,48401
23.09070,47798
23.10003,47631
23.10938,44333
23.11872,43193
23.12805,44331
23.13740,44585
23.14673,42711
23.15608,43136
23.16542,45223
23.17475,48065
23.18410,48297
23.19343,50004
23.20277,46653
23.21212,46915
23.22145,45249
23.23078,45108
23.24013,46560
23.24947,50875
23.25880,56747
23.26815,58358
23.27748,55511
23.28682,55172
23.29617,50659
23.30550,49804
23.31485,48823
23.32418,50763
23.33352,58742
23.34287,71116
23.35220,69839
23.36153,63824
23.37088,52076
23.38022,50310
23.38955,48746
23.39890,47381
23.40823,46656
23.41757,47475
23.42692,46136
23.43625,45937
23.44558,48738
23.45493,47595
23.46427,48608
23.47360,48154
23.48295,48523
23.49228,47628
23.50163,44806
23.51097,45964
23.52030,47887
23.52965,47875
23.53898,49910
23.54832,49122
23.55767,44940
23.56700,45634
23.57633,43185
23.58568,47180
23.59502,47792
23.60435,46554
23.61370,46443
23.62303,43793
23.63237,41424
23.64172,41492
23.65105,42201
23.66038,43168
23.66973,56674
23.67907,77302
23.68842,102257
23.69775,107464
23.70708,88470
23.71643,74648
23.72577,64082
23.73510,67014
23.74445,59272
23.75378,55599
23.76312,50959
23.77247,45192
23.78180,44328
23.79113,45596
23.80048,45982
23.80982,43865
23.81915,46201
23.82850,45171
23.83783,42383
23.84717,44909
23.85652,43021
23.86585,42483
23.87520,43483
23.88453,43892
23.89387,46681
23.90322,45659
23.91255,45878
23.92188,46153
23.93123,44875
23.94057,44290
23.94990,43091
23.95925,46421
23.96858,42827
23.97792,42888
23.98727,42814
23.99660,42131
24.00593,43799
24.01528,44672
24.02462,44759
24.03395,43176
24.04330,41672
24.05263,41155
24.06198,39545
24.07132,41454
24.08065,42420
24.09000,42378
24.09933,44006
24.10867,43119
24.11802,41090
24.12735,42525
24.13668,42453
24.14603,42181
24.15537,43948
24.16470,42869
24.17405,42632
24.18338,42207
24.19272,40820
24.20207,40641
24.21140,40954
24.22073,41551
24.23008,42211
24.23942,41584
24.24877,43930
24.25810,44507
24.26743,44792
24.27678,44378
24.28612,42541
24.29545,41486
24.30480,44049
24.31413,45802
24.32347,47639
24.33282,49439
24.34215,48530
24.35148,45795
24.36083,45806
24.37017,42930
24.37950,46680
24.38885,45503
24.39818,46236
24.40753,46930
24.41687,45881
24.42620,44778
24.43555,43039
24.44488,42522
24.45422,41309
24.46357,41648
24.47290,44117
24.48223,41152
24.49158,42384
24.50092,42935
24.51025,43304
24.51960,43319
24.52893,41848
24.53827,44804
24.54762,46905
24.55695,50756
24.56628,48720
24.57563,48024
24.58497,45257
24.59432,44426
24.60365,43386
24.61298,46860
24.62233,48771
24.63167,48235
24.64100,46226
24.65035,47304
24.65968,44524
24.66902,47847
24.67837,48976
24.68770,46276
24.69703,47760
24.70638,45636
24.71572,43535
24.72505,45207
24.73440,45459
24.74373,42169
24.75307,44738
24.76242,42480
24.77175,43168
24.78110,43876
24.79043,41876
24.79977,42832
24.80912,44221
24.81845,43675
24.82778,41950
24.83713,41585
24.84647,41115
24.85580,43753
24.86515,43229
24.87448,45984
24.88382,46162
24.89317,45784
24.90250,45830
24.91183,44010
24.92118,43825
24.93052,44768
24.93985,45344
24.94920,45334
24.95853,44394
24.96788,44641
24.97722,46040
24.98655,45355
24.99590,43806
25.00523,44999
25.01457,42544
25.02392,40659
25.03325,42026
25.04258,45551
25.05193,42718
25.06127,42660
25.07060,42853
25.07995,42930
25.08928,43724
25.09862,42845
25.10797,40948
25.11730,45582
25.12665,45716
25.13598,43841
25.14532,45229
25.15467,47046
25.16400,48254
25.17333,47670
25.18268,45939
25.19202,45600
25.20135,43278
25.21070,44280
25.22003,45682
25.22937,44550
25.23872,43344
25.24805,44316
25.25738,42914
25.26673,42604
25.27607,42411
25.28540,46029
25.29475,44970
25.30408,47442
25.31343,49439
25.32277,62710
25.33210,83939
25.34145,90772
25.35078,75684
25.36012,64613
25.36947,56855
25.37880,54745
25.38813,52127
25.39748,49866
25.40682,51515
25.41615,50982
25.42550,50535
25.43483,53752
25.44417,50249
25.45352,51389
25.46285,51469
25.47218,51461
25.48153,54254
25.49087,58375
25.50022,60578
25.50955,60200
25.51888,57926
25.52823,59885
25.53757,54448
25.54690,58098
25.55625,57001
25.56558,57908
25.57492,53423
25.58427,54078
25.59360,53469
25.60293,52597
25.61228,51066
25.62162,51115
25.63095,50106
25.64030,51426
25.64963,53818
25.65897,57724
25.66832,61265
25.67765,56515
25.68700,53686
25.69633,50471
25.70567,51017
25.71502,48405
25.72435,50079
25.73368,48990
25.74303,49723
25.75237,52521
25.76170,52100
25.77105,51857
25.78038,51201
25.78972,52880
25.79907,53460
25.80840,56366
25.81773,59171
25.82708,56238
25.83642,55631
25.84575,56897
25.85510,54531
25.86443,51041
25.87378,49906
25.88312,51239
25.89245,49513
25.90180,47545
25.91113,47725
25.92047,51024
25.92982,47571
25.93915,48200
25.94848,50638
25.95783,50155
25.96717,52958
25.97650,50868
25.98585,49668
25.99518,52086
26.00452,50184
26.01387,49356
26.02320,48348
26.03255,50316
26.04188,52264
26.05122,53482
26.06057,54406
26.06990,53338
26.07923,52910
26.08858,51200
26.09792,50780
26.10725,49232
26.11660,48120
26.12593,49819
26.13527,52429
26.14462,53215
26.15395,56051
26.16328,57791
26.17263,56870
26.18197,56163
26.19130,51897
26.20065,49561
26.20998,50429
26.21933,49127
26.22867,46199
26.23800,46584
26.24735,50446
26.25668,49012
26.26602,49251
26.27537,47815
26.28470,48255
26.29403,47651
26.30338,47182
26.31272,51328
26.32205,51574
26.33140,50581
26.34073,49204
26.35007,48739
26.35942,49956
26.36875,48550
26.37808,48564
26.38743,47046
26.39677,45923
26.40612,46006
26.41545,46550
26.42478,47829
26.43413,46889
26.44347,48878
26.45280,48417
26.46215,50233
26.47148,50849
26.48082,48910
26.49017,50738
26.49950,51626
26.50883,52254
26.51818,52521
26.52752,52132
26.53685,56104
26.54620,53955
26.55553,54207
26.56487,51766
26.57422,52221
26.58355,50020
26.59290,51941
26.60223,53527
26.61157,54856
26.62092,54841
26.63025,53591
26.63958,50949
26.64893,50118
26.65827,49955
26.66760,53349
26.67695,52203
26.68628,50756
26.69562,50532
26.70497,49590
26.71430,47846
26.72363,47059
26.73298,48405
26.74232,48405
26.75167,49517
26.76100,49902
26.77033,50692
26.77968,50612
26.78902,52519
26.79835,54235
26.80770,51226
26.81703,50987
26.82637,50153
26.83572,50247
26.84505,52406
26.85438,53710
26.86373,52543
26.87307,51286
26.88240,51639
26.89175,50201
26.90108,49241
26.91042,49982
26.91977,49907
26.92910,47936
26.93845,49561
26.94778,51098
26.95712,47635
26.96647,48637
26.97580,47961
26.98513,48374
26.99448,49021
27.00382,48434
27.01315,52087
27.02250,50450
27.03183,51412
27.04117,52243
27.05052,53222
27.05985,53745
27.06918,51543
27.07853,54987
27.08787,55163
27.09720,52600
27.10655,50265
27.11588,49780
27.12523,54285
27.13457,53991
27.14390,53703
27.15325,55647
27.16258,52464
27.17192,52329
27.18127,51540
27.19060,53551
27.19993,52285
27.20928,50505
27.21862,50718
27.22795,49596
27.23730,55825
27.24663,58567
27.25597,66098
27.26532,68459
27.27465,68297
27.28398,60853
27.29333,57244
27.30267,55200
27.31202,53395
27.32135,53973
27.33068,53389
27.34003,52392
27.34937,52168
27.35870,51630
27.36805,53218
27.37738,53516
27.38672,52012
27.39607,51233
27.40540,52390
27.41473,52019
27.42408,54560
27.43342,58373
27.44275,57225
27.45210,56394
27.46143,54040
27.47077,52587
27.48012,52446
27.48945,53607
27.49880,52850
27.50813,52964
27.51747,53796
27.52682,53577
27.53615,54406
27.54548,52846
27.55483,53668
27.56417,53445
27.57350,52656
27.58285,52249
27.59218,51585
27.60152,53176
27.61087,53540
27.62020,50250
27.62953,51930
27.63888,51791
27.64822,51720
27.65755,54540
27.66690,60836
27.67623,69870
27.68558,75704
27.69492,72710
27.70425,64109
27.71360,61251
27.72293,57960
27.73227,57727
27.74162,57165
27.75095,56251
27.76028,53420
27.76963,53131
27.77897,53544
27.78830,55807
27.79765,53217
27.80698,55463
27.81632,53833
27.82567,52312
27.83500,55139
27.84435,53516
27.85368,53515
27.86302,55926
27.87237,52648
27.88170,53379
27.89103,54693
27.90038,56354
27.90972,55868
27.91905,52053
27.92840,55440
27.93773,55020
27.94707,55751
27.95642,54053
27.96575,54532
27.97508,52520
27.98443,53546
27.99377,53877
28.00310,55857
28.01245,53148
28.02178,52175
28.03113,51738
28.04047,52216
28.04980,53465
28.05915,53111
28.06848,56503
28.07782,55120
28.08717,56263
28.09650,54763
28.10583,55518
28.11518,55540
28.12452,60946
28.13385,61212
28.14320,61624
28.15253,58345
28.16187,59907
28.17122,58485
28.18055,58600
28.18988,56652
28.19923,58733
28.20857,54665
28.21792,58399
28.22725,56450
28.23658,58711
28.24593,55776
28.25527,55875
28.26460,56009
28.27395,57335
28.28328,54398
28.29262,55795
28.30197,56837
28.31130,56936
28.32063,56459
28.32998,54741
28.33932,54388
28.34865,55634
28.35800,55010
28.36733,54269
28.37667,56243
28.38602,53895
28.39535,58322
28.40470,56156
28.41403,56656
28.42337,58338
28.43272,56904
28.44205,57022
28.45138,58393
28.46073,57266
28.47007,58148
28.47940,57257
28.48875,56856
28.49808,57286
28.50742,58345
28.51677,57712
28.52610,58567
28.53543,60290
28.54478,60303
28.55412,59869
28.56347,60665
28.57280,59639
28.58213,63848
28.59148,68450
28.60082,70247
28.61015,69506
28.61950,70578
28.62883,67979
28.63817,65565
28.64752,66936
28.65685,67101
28.66618,73067
28.67553,87887
28.68487,113199
28.69420,124136
28.70355,109665
28.71288,90294
28.72222,77466
28.73157,72333
28.74090,68866
28.75025,66927
28.75958,66352
28.76892,64637
28.77827,62246
28.78760,64390
28.79693,64052
28.80628,63874
28.81562,64805
28.82495,63274
28.83430,63917
28.84363,65166
28.85297,62602
28.86232,63787
28.87165,61687
28.88098,62592
28.89033,63141
28.89967,61244
28.90900,62695
28.91835,63221
28.92768,61442
28.93703,61963
28.94637,63954
28.95570,66608
28.96505,67876
28.97438,68796
28.98372,74386
28.99307,70342
29.00240,71419
29.01173,68066
29.02108,68611
29.03042,69100
29.03975,72818
29.04910,72335
29.05843,72205
29.06777,71465
29.07712,68704
29.08645,68309
29.09578,65324
29.10513,65153
29.11447,67117
29.12382,69009
29.13315,65301
29.14248,68045
29.15183,67592
29.16117,63950
29.17050,64280
29.17985,65514
29.18918,66471
29.19852,70233
29.20787,70366
29.21720,73545
29.22653,73402
29.23588,72100
29.24522,72085
29.25455,72879
29.26390,69945
29.27323,72567
29.28257,69715
29.29192,69750
29.30125,70392
29.31060,67976
29.31993,68319
29.32927,68947
29.33862,68729
29.34795,67362
29.35728,66688
29.36663,65813
29.37597,66789
29.38530,68122
29.39465,68619
29.40398,67609
29.41332,67895
29.42267,66453
29.43200,67209
29.44133,70808
29.45068,68879
29.46002,69756
29.46937,71649
29.47870,72426
29.48803,70976
29.49738,70976
29.50672,68027
29.51605,67729
29.52540,69278
29.53473,69612
29.54407,67359
29.55342,68047
29.56275,69773
29.57208,66693
29.58143,66498
29.59077,65435
29.60010,66338
29.60945,67688
29.61878,68255
29.62812,67738
29.63747,68257
29.64680,68926
29.65615,65518
29.66548,65755
29.67482,65566
29.68417,65656
29.69350,66908
29.70283,68372
29.71218,64671
29.72152,65568
29.73085,70805
29.74020,69772
29.74953,69446
29.75887,70968
29.76822,66359
29.77755,69512
29.78688,67242
29.79623,66375
29.80557,67803
29.81490,68403
29.82425,65621
29.83358,67749
29.84293,67474
29.85227,65904
29.86160,64494
29.87095,66192
29.88028,65051
29.88962,65778
29.89897,64143
29.90830,66750
29.91763,65799
29.92698,65361
29.93632,68614
29.94565,66478
29.95500,68654
29.96433,67367
29.97367,68173
29.98302,71207
29.99235,74185
30.00168,76039
30.01103,73893
30.02037,73803
30.02972,68515
30.03905,68925
30.04838,65096
30.05773,70124
30.06707,70122
30.07640,67372
30.08575,69691
30.09508,67661
30.10442,67451
30.11377,67060
30.12310,67472
30.13243,69431
30.14178,66570
30.15112,68588
30.16045,66991
30.16980,67608
30.17913,71385
30.18848,67468
30.19782,71118
30.20715,67881
30.21650,68029
30.22583,70300
30.23517,71117
30.24452,70016
30.25385,71023
30.26318,66836
30.27253,67150
30.28187,69665
30.29120,69818
30.30055,69565
30.30988,70448
30.31922,69381
30.32857,68842
30.33790,67513
30.34723,71704
30.35658,70113
30.36592,74411
30.37527,74318
30.38460,75429
30.39393,73018
30.40328,76227
30.41262,77623
30.42195,75461
30.43130,78657
30.44063,76410
30.44997,76158
30.45932,76749
30.46865,75905
30.47798,77381
30.48733,78371
30.49667,74603
30.50600,76981
30.51535,75308
30.52468,72748
30.53402,72207
30.54337,72136
30.55270,71962
30.56205,71537
30.57138,72862
30.58072,76224
30.59007,73076
30.59940,75855
30.60873,81054
30.61808,81101
30.62742,84743
30.63675,89282
30.64610,95681
30.65543,95828
30.66477,99034
30.67412,101228
30.68345,97522
30.69278,93298
30.70213,88360
30.71147,87834
30.72080,85698
30.73015,83527
30.73948,81991
30.74883,79140
30.75817,78736
30.76750,80118
30.77685,83998
30.78618,84362
30.79552,84772
30.80487,84983
30.81420,86043
30.82353,83384
30.83288,82020
30.84222,81974
30.85155,84101
30.86090,79407
30.87023,83518
30.87957,82506
30.88892,81599
30.89825,85516
30.90758,84826
30.91693,83733
30.92627,84219
30.93562,87170
30.94495,87534
30.95428,88930
30.96363,84870
30.97297,87241
30.98230,85671
30.99165,84424
31.00098,82846
31.01032,82269
31.01967,82086
31.02900,80105
31.03833,79864
31.04768,82546
31.05702,80877
31.06635,78280
31.07570,80049
31.08503,82306
31.09437,83333
31.10372,82778
31.11305,82307
31.12240,85244
31.13173,83472
31.14107,83408
31.15042,80983
31.15975,83617
31.16908,83324
31.17843,86072
31.18777,84158
31.19710,84864
31.20645,85442
31.21578,83423
31.22512,83927
31.23447,83239
31.24380,84660
31.25313,85908
31.26248,84546
31.27182,82691
31.28117,85694
31.29050,84693
31.29983,81844
31.30918,82966
31.31852,83312
31.32785,82436
31.33720,80301
31.34653,83686
31.35587,82305
31.36522,82003
