D:\数据\202112114\ZS1E-TJ-000102.D Tue Dec 14 11:21:58 2021
Start of data points
0.09770,30848
0.10705,30623
0.11638,31031
0.12572,31554
0.13507,31071
0.14440,30436
0.15373,30398
0.16308,30931
0.17242,31069
0.18175,31121
0.19110,31886
0.20043,29631
0.20978,28941
0.21912,28939
0.22845,29169
0.23780,30222
0.24713,29351
0.25647,30446
0.26582,30173
0.27515,28673
0.28448,29847
0.29383,29445
0.30317,29129
0.31250,30084
0.32185,30831
0.33118,28854
0.34052,28321
0.34987,28848
0.35920,29281
0.36853,28142
0.37788,28660
0.38722,28035
0.39657,28041
0.40590,25828
0.41523,22487
0.42458,19498
0.43392,16609
0.44325,10433
0.45260,8805
0.46193,7081
0.47127,7242
0.48062,7096
0.48995,6790
0.49928,6907
0.50863,6782
0.51797,7182
0.52730,6685
0.53665,6856
0.54598,7096
0.55532,6698
0.56467,6268
0.57400,5974
0.58335,6064
0.59268,6703
0.60202,6670
0.61137,6742
0.62070,6629
0.63003,6379
0.63938,6528
0.64872,6191
0.65805,6155
0.66740,6202
0.67673,5721
0.68607,5784
0.69542,6491
0.70475,5693
0.71408,5579
0.72343,5881
0.73277,5552
0.74212,6587
0.75145,5333
0.76078,5984
0.77013,6118
0.77947,5540
0.78880,5718
0.79815,6117
0.80748,5865
0.81682,5580
0.82617,5447
0.83550,4904
0.84483,5065
0.85418,5740
0.86352,5676
0.87285,5616
0.88220,5044
0.89153,6233
0.90087,5879
0.91022,5521
0.91955,6032
0.92890,5465
0.93823,5912
0.94757,5075
0.95692,5484
0.96625,5303
0.97558,5928
0.98493,6615
0.99427,5708
1.00360,5785
1.01295,5243
1.02228,5686
1.03162,5618
1.04097,5414
1.05030,5621
1.05963,5646
1.06898,5547
1.07832,5519
1.08765,5876
1.09700,5831
1.10633,6010
1.11568,5196
1.12502,5652
1.13435,5374
1.14370,5689
1.15303,5887
1.16237,5672
1.17172,5606
1.18105,5255
1.19038,5295
1.19973,5467
1.20907,5082
1.21840,5502
1.22775,5052
1.23708,5948
1.24642,4993
1.25577,5076
1.26510,5218
1.27445,5249
1.28378,4998
1.29312,5191
1.30247,5275
1.31180,5639
1.32113,5412
1.33048,4931
1.33982,5784
1.34915,5074
1.35850,5251
1.36783,5035
1.37717,5495
1.38652,5177
1.39585,5267
1.40518,5911
1.41453,5337
1.42387,4917
1.43320,5036
1.44255,5039
1.45188,5915
1.46123,6196
1.47057,5510
1.47990,5010
1.48925,5098
1.49858,5518
1.50792,4985
1.51727,5652
1.52660,5718
1.53593,5237
1.54528,5511
1.55462,5480
1.56395,5461
1.57330,5505
1.58263,8636
1.59197,15298
1.60132,21848
1.61065,27469
1.61998,38011
1.62933,60393
1.63867,78472
1.64802,89091
1.65735,82571
1.66668,67319
1.67603,53519
1.68537,45091
1.69470,33842
1.70405,25745
1.71338,22064
1.72272,25254
1.73207,27264
1.74140,31799
1.75073,35575
1.76008,38490
1.76942,39484
1.77875,38976
1.78810,38546
1.79743,38836
1.80677,37206
1.81612,38214
1.82545,36611
1.83480,36603
1.84413,36838
1.85347,36363
1.86282,39813
1.87215,42921
1.88148,70967
1.89083,136212
1.90017,208974
1.90950,249023
1.91885,265877
1.92818,350761
1.93752,608585
1.94687,1072835
1.95620,1523306
1.96553,1613964
1.97488,1388387
1.98422,1056890
1.99355,783804
2.00290,621333
2.01223,558143
2.02158,541361
2.03092,485212
2.04025,365637
2.04960,254211
2.05893,182834
2.06827,146635
2.07762,118251
2.08695,95171
2.09628,85281
2.10563,75772
2.11497,73030
2.12430,77363
2.13365,89737
2.14298,130213
2.15232,158759
2.16167,141309
2.17100,122114
2.18033,110699
2.18968,167138
2.19902,248002
2.20837,207356
2.21770,133961
2.22703,110793
2.23638,140862
2.24572,213629
2.25505,805337
2.26440,2588566
2.27373,2846869
2.28307,2064706
2.29242,1264905
2.30175,961430
2.31108,3074414
2.32043,1.005266E+07
2.32977,1.29234E+07
2.33910,8492060
2.34845,3906450
2.35778,1641805
2.36713,744006
2.37647,399765
2.38580,293749
2.39515,230168
2.40448,187690
2.41382,167104
2.42317,149476
2.43250,134661
2.44183,118611
2.45118,99189
2.46052,98367
2.46985,122665
2.47920,153268
2.48853,142135
2.49787,114185
2.50722,86711
2.51655,78078
2.52588,70744
2.53523,67181
2.54457,69814
2.55392,77170
2.56325,89912
2.57258,117026
2.58193,188838
2.59127,190421
2.60060,169914
2.60995,156874
2.61928,173599
2.62862,195459
2.63797,187599
2.64730,163751
2.65663,145726
2.66598,129690
2.67532,110331
2.68465,87612
2.69400,75361
2.70333,65014
2.71267,71215
2.72202,93760
2.73135,133926
2.74070,148576
2.75003,164093
2.75937,185327
2.76872,209564
2.77805,255975
2.78738,298247
2.79673,286560
2.80607,223732
2.81540,182387
2.82475,184266
2.83408,177665
2.84342,149276
2.85277,151368
2.86210,183271
2.87143,191519
2.88078,200967
2.89012,177495
2.89945,136399
2.90880,108980
2.91813,96932
2.92748,89159
2.93682,81406
2.94615,73730
2.95550,66055
2.96483,62472
2.97417,60198
2.98352,57308
2.99285,58192
3.00218,64116
3.01153,72832
3.02087,73702
3.03020,70452
3.03955,78497
3.04888,128107
3.05822,197817
3.06757,274083
3.07690,275526
3.08625,204757
3.09558,129240
3.10492,84808
3.11427,66844
3.12360,58246
3.13293,57509
3.14228,58632
3.15162,62664
3.16095,69838
3.17030,70978
3.17963,64295
3.18897,58292
3.19832,57469
3.20765,54192
3.21698,56816
3.22633,55541
3.23567,55746
3.24500,51156
3.25435,53540
3.26368,53558
3.27303,53978
3.28237,50802
3.29170,53693
3.30105,60151
3.31038,62966
3.31972,59790
3.32907,53546
3.33840,51430
3.34773,53713
3.35708,53032
3.36642,54525
3.37575,49205
3.38510,46440
3.39443,46351
3.40377,50104
3.41312,66799
3.42245,79838
3.43178,79161
3.44113,73831
3.45047,73577
3.45982,78076
3.46915,73902
3.47848,68245
3.48783,61970
3.49717,61857
3.50650,59615
3.51585,55425
3.52518,53727
3.53452,52904
3.54387,56422
3.55320,110427
3.56253,276456
3.57188,471261
3.58122,474690
3.59055,315564
3.59990,177247
3.60923,118851
3.61857,91393
3.62792,115633
3.63725,107023
3.64660,95243
3.65593,82948
3.66527,78802
3.67462,80706
3.68395,80043
3.69328,72493
3.70263,60459
3.71197,60926
3.72130,66438
3.73065,72589
3.73998,68094
3.74932,62798
3.75867,57263
3.76800,53322
3.77733,52296
3.78668,48035
3.79602,50255
3.80535,71785
3.81470,134142
3.82403,186975
3.83338,168038
3.84272,117240
3.85205,82223
3.86140,64381
3.87073,57127
3.88007,58116
3.88942,60926
3.89875,70608
3.90808,75666
3.91743,74388
3.92677,71939
3.93610,73115
3.94545,85091
3.95478,121887
3.96412,134259
3.97347,110535
3.98280,82179
3.99215,65595
4.00148,57658
4.01082,67489
4.02017,72697
4.02950,73067
4.03883,88569
4.04818,108897
4.05752,111138
4.06685,98756
4.07620,102559
4.08553,136832
4.09487,155215
4.10422,145531
4.11355,113199
4.12288,83769
4.13223,66883
4.14157,59381
4.15090,57328
4.16025,56739
4.16958,54654
4.17893,52847
4.18827,50124
4.19760,51411
4.20695,50598
4.21628,52751
4.22562,54158
4.23497,51555
4.24430,51287
4.25363,48291
4.26298,50615
4.27232,53484
4.28165,60061
4.29100,75241
4.30033,75371
4.30967,69224
4.31902,71993
4.32835,74670
4.33768,73390
4.34703,67521
4.35637,64446
4.36572,56291
4.37505,54126
4.38438,53966
4.39373,61147
4.40307,62128
4.41240,57786
4.42175,49810
4.43108,48039
4.44042,46132
4.44977,45444
4.45910,46743
4.46843,55074
4.47778,65832
4.48712,73799
4.49645,67499
4.50580,57395
4.51513,52236
4.52447,49069
4.53382,50405
4.54315,52706
4.55250,55131
4.56183,56464
4.57117,54542
4.58052,52229
4.58985,50262
4.59918,49317
4.60853,48841
4.61787,48599
4.62720,45436
4.63655,47916
4.64588,53545
4.65522,59788
4.66457,62905
4.67390,61376
4.68323,59109
4.69258,61701
4.70192,64907
4.71127,63188
4.72060,55627
4.72993,50347
4.73928,47363
4.74862,45485
4.75795,47624
4.76730,51490
4.77663,54230
4.78597,52202
4.79532,51412
4.80465,48709
4.81398,49111
4.82333,49301
4.83267,49184
4.84200,52307
4.85135,53076
4.86068,51213
4.87002,56306
4.87937,65907
4.88870,68644
4.89805,64021
4.90738,61697
4.91672,58865
4.92607,57015
4.93540,56034
4.94473,56223
4.95408,55436
4.96342,50563
4.97275,46650
4.98210,45466
4.99143,44241
5.00077,45646
5.01012,47488
5.01945,50318
5.02878,54394
5.03813,60496
5.04747,59346
5.05680,58151
5.06615,54910
5.07548,54447
5.08483,57712
5.09417,59656
5.10350,54992
5.11285,52081
5.12218,50043
5.13152,51527
5.14087,54189
5.15020,57673
5.15953,57426
5.16888,55413
5.17822,50954
5.18755,51132
5.19690,56364
5.20623,62497
5.21557,61381
5.22492,56511
5.23425,54783
5.24358,57527
5.25293,58708
5.26227,62060
5.27162,96749
5.28095,215174
5.29028,373148
5.29963,408805
5.30897,282380
5.31830,160266
5.32765,102984
5.33698,83753
5.34632,68501
5.35567,58431
5.36500,54052
5.37433,57643
5.38368,62180
5.39302,76889
5.40235,80049
5.41170,71999
5.42103,64005
5.43037,56212
5.43972,50294
5.44905,49109
5.45840,46448
5.46773,45740
5.47707,46149
5.48642,47925
5.49575,47015
5.50508,49571
5.51443,53958
5.52377,60284
5.53310,66549
5.54245,67186
5.55178,62710
5.56112,59667
5.57047,54228
5.57980,51890
5.58913,47618
5.59848,45383
5.60782,46862
5.61717,44621
5.62650,45958
5.63583,43901
5.64518,46341
5.65452,47812
5.66385,50150
5.67320,51770
5.68253,51555
5.69187,58755
5.70122,62476
5.71055,63724
5.71988,62678
5.72923,60788
5.73857,58602
5.74790,66248
5.75725,74769
5.76658,69345
5.77592,74510
5.78527,85766
5.79460,78341
5.80395,69173
5.81328,58315
5.82262,58035
5.83197,70140
5.84130,72355
5.85063,61016
5.85998,46914
5.86932,39511
5.87865,35990
5.88800,37076
5.89733,36332
5.90667,52626
5.91602,111248
5.92535,195590
5.93468,218193
5.94403,161242
5.95337,122814
5.96270,102933
5.97205,80730
5.98138,58343
5.99073,42209
6.00007,33662
6.00940,29817
6.01875,25739
6.02808,26438
6.03742,28238
6.04677,31581
6.05610,29532
6.06543,32024
6.07478,31433
6.08412,28687
6.09345,24965
6.10280,22974
6.11213,25693
6.12147,31240
6.13082,42120
6.14015,55050
6.14948,48219
6.15883,36377
6.16817,28916
6.17752,27188
6.18685,26096
6.19618,25514
6.20553,24198
6.21487,23161
6.22420,25345
6.23355,29662
6.24288,32938
6.25222,27944
6.26157,26533
6.27090,27463
6.28023,36637
6.28958,44982
6.29892,40509
6.30825,30552
6.31760,25096
6.32693,22356
6.33628,22249
6.34562,24032
6.35495,23844
6.36430,24975
6.37363,30369
6.38297,44244
6.39232,73800
6.40165,200452
6.41098,513593
6.42033,768105
6.42967,613881
6.43900,298646
6.44835,112923
6.45768,53242
6.46702,39412
6.47637,33949
6.48570,30484
6.49503,27349
6.50438,28094
6.51372,27488
6.52307,27783
6.53240,27822
6.54173,25822
6.55108,25317
6.56042,23432
6.56975,23722
6.57910,24324
6.58843,25192
6.59777,28807
6.60712,29186
6.61645,30612
6.62578,30556
6.63513,29881
6.64447,31984
6.65380,32204
6.66315,32063
6.67248,32883
6.68182,31316
6.69117,28670
6.70050,31293
6.70985,36578
6.71918,41931
6.72852,36040
6.73787,34843
6.74720,29721
6.75653,28181
6.76588,26238
6.77522,26224
6.78455,28962
6.79390,34141
6.80323,43675
6.81257,42831
6.82192,34204
6.83125,27344
6.84058,27476
6.84993,29132
6.85927,31908
6.86860,30489
6.87795,28726
6.88728,26191
6.89663,25741
6.90597,27528
6.91530,30102
6.92465,32152
6.93398,26555
6.94332,25552
6.95267,25174
6.96200,26701
6.97133,26184
6.98068,27191
6.99002,26173
6.99935,26021
7.00870,23347
7.01803,24857
7.02737,24341
7.03672,21365
7.04605,19813
7.05538,18314
7.06473,18726
7.07407,19571
7.08342,19430
7.09275,22601
7.10208,26108
7.11143,30147
7.12077,31943
7.13010,28231
7.13945,25725
7.14878,23138
7.15812,20819
7.16747,18995
7.17680,18833
7.18613,19540
7.19548,22467
7.20482,22557
7.21415,24092
7.22350,32471
7.23283,62512
7.24217,116168
7.25152,133386
7.26085,95332
7.27020,56812
7.27953,44263
7.28887,38940
7.29822,32725
7.30755,28596
7.31688,23146
7.32623,21282
7.33557,21941
7.34490,20467
7.35425,21042
7.36358,21187
7.37292,21415
7.38227,26142
7.39160,60002
7.40093,144908
7.41028,258269
7.41962,278258
7.42897,196114
7.43830,106641
7.44763,54205
7.45698,32828
7.46632,23811
7.47565,21427
7.48500,25327
7.49433,28228
7.50367,31604
7.51302,29442
7.52235,24482
7.53168,20824
7.54103,21108
7.55037,20269
7.55970,23536
7.56905,22570
7.57838,25635
7.58772,25475
7.59707,26759
7.60640,27684
7.61575,30297
7.62508,29211
7.63442,28675
7.64377,28700
7.65310,25511
7.66243,22691
7.67178,23059
7.68112,22535
7.69045,23778
7.69980,22819
7.70913,26034
7.71847,24577
7.72782,23370
7.73715,24133
7.74648,26299
7.75583,28165
7.76517,32041
7.77450,30324
7.78385,30791
7.79318,31935
7.80253,29508
7.81187,26838
7.82120,25011
7.83055,22817
7.83988,23973
7.84922,31038
7.85857,50174
7.86790,89152
7.87723,105013
7.88658,92806
7.89592,62374
7.90525,55656
7.91460,82073
7.92393,121590
7.93327,109486
7.94262,69922
7.95195,51282
7.96128,64720
7.97063,74551
7.97997,76856
7.98932,83670
7.99865,72476
8.00798,53571
8.01733,40739
8.02667,34795
8.03600,41990
8.04535,51535
8.05468,52535
8.06402,43182
8.07337,30699
8.08270,28617
8.09203,41193
8.10138,65426
8.11072,66557
8.12005,49781
8.12940,35601
8.13873,30380
8.14808,27366
8.15742,26952
8.16675,25395
8.17610,23918
8.18543,23818
8.19477,25330
8.20412,26920
8.21345,27594
8.22278,26839
8.23213,25065
8.24147,28122
8.25080,32670
8.26015,32676
8.26948,31303
8.27882,28282
8.28817,25987
8.29750,24340
8.30683,24515
8.31618,24609
8.32552,24751
8.33487,25263
8.34420,25996
8.35353,24380
8.36288,22790
8.37222,22329
8.38155,21709
8.39090,26103
8.40023,33894
8.40957,35979
8.41892,35594
8.42825,34497
8.43758,33581
8.44693,32702
8.45627,31188
8.46560,30140
8.47495,30617
8.48428,31621
8.49362,30820
8.50297,29951
8.51230,27489
8.52165,27049
8.53098,26758
8.54032,28330
8.54967,28450
8.55900,29567
8.56833,29908
8.57768,29662
8.58702,30137
8.59635,34751
8.60570,39069
8.61503,38900
8.62437,34742
8.63372,32520
8.64305,28237
8.65238,29509
8.66173,30719
8.67107,31697
8.68040,30681
8.68975,30425
8.69908,30524
8.70843,29624
8.71777,30655
8.72710,26436
8.73645,27001
8.74578,35046
8.75512,44260
8.76447,49334
8.77380,42233
8.78313,34486
8.79248,41894
8.80182,72353
8.81115,120030
8.82050,131422
8.82983,93350
8.83917,50833
8.84852,31777
8.85785,28871
8.86718,30331
8.87653,33513
8.88587,33325
8.89522,33999
8.90455,32330
8.91388,31190
8.92323,31784
8.93257,33516
8.94190,32148
8.95125,29939
8.96058,27305
8.96992,24301
8.97927,26865
8.98860,28624
8.99793,28606
9.00728,32397
9.01662,33055
9.02595,32834
9.03530,29950
9.04463,30358
9.05398,31060
9.06332,35758
9.07265,38621
9.08200,47584
9.09133,53215
9.10067,51438
9.11002,42073
9.11935,34600
9.12868,35133
9.13803,37383
9.14737,38683
9.15670,36788
9.16605,32819
9.17538,31042
9.18472,31211
9.19407,32949
9.20340,34125
9.21273,41949
9.22208,65789
9.23142,101741
9.24077,115671
9.25010,87133
9.25943,55584
9.26878,39453
9.27812,37068
9.28745,35835
9.29680,35018
9.30613,35057
9.31547,39136
9.32482,50466
9.33415,69690
9.34348,69397
9.35283,54433
9.36217,77778
9.37150,157138
9.38085,223930
9.39018,205793
9.39952,141780
9.40887,93140
9.41820,70459
9.42755,63118
9.43688,55777
9.44622,44385
9.45557,35322
9.46490,29499
9.47423,27665
9.48358,28893
9.49292,34241
9.50225,39633
9.51160,37177
9.52093,32195
9.53027,34239
9.53962,44276
9.54895,52659
9.55828,73124
9.56763,95641
9.57697,89307
9.58630,58671
9.59565,47299
9.60498,54191
9.61433,55089
9.62367,45101
9.63300,39610
9.64235,37262
9.65168,39258
9.66102,41833
9.67037,39372
9.67970,38596
9.68903,34737
9.69838,32123
9.70772,32081
9.71705,39773
9.72640,90946
9.73573,266624
9.74507,549811
9.75442,659416
9.76375,480881
9.77310,255305
9.78243,144114
9.79177,102439
9.80112,83142
9.81045,71655
9.81978,68296
9.82913,82104
9.83847,97766
9.84780,111896
9.85715,102290
9.86648,78311
9.87582,64860
9.88517,71016
9.89450,82619
9.90383,80349
9.91318,72097
9.92252,65189
9.93185,63386
9.94120,56900
9.95053,48835
9.95988,43777
9.96922,51340
9.97855,92804
9.98790,184134
9.99723,237362
10.00657,189551
10.01592,102448
10.02525,61810
10.03458,47017
10.04393,42449
10.05327,45869
10.06260,56234
10.07195,76640
10.08128,84472
10.09062,76156
10.09997,60228
10.10930,61354
10.11863,122449
10.12798,267624
10.13732,366929
10.14667,480054
10.15600,1315236
10.16533,3175550
10.17468,3842930
10.18402,2409768
10.19335,713805
10.20270,148657
10.21203,57356
10.22137,50139
10.23072,49809
10.24005,66874
10.24938,83771
10.25873,80427
10.26807,58507
10.27740,46885
10.28675,41413
10.29608,44946
10.30542,43768
10.31477,40316
10.32410,38993
10.33345,38434
10.34278,37173
10.35212,36593
10.36147,39756
10.37080,40673
10.38013,36762
10.38948,34180
10.39882,32650
10.40815,33721
10.41750,36264
10.42683,37515
10.43617,42814
10.44552,41280
10.45485,44084
10.46418,48861
10.47353,53988
10.48287,50332
10.49220,42227
10.50155,35627
10.51088,31872
10.52023,31393
10.52957,29859
10.53890,33026
10.54825,34064
10.55758,35692
10.56692,35953
10.57627,35442
10.58560,34349
10.59493,32644
10.60428,33846
10.61362,30916
10.62295,32190
10.63230,38623
10.64163,45022
10.65097,42166
10.66032,37066
10.66965,36373
10.67898,43243
10.68833,47883
10.69767,44226
10.70702,41002
10.71635,42621
10.72568,47868
10.73503,45491
10.74437,41528
10.75370,51415
10.76305,76500
10.77238,101741
10.78172,111266
10.79107,189284
10.80040,430120
10.80973,665313
10.81908,582234
10.82842,281617
10.83775,99311
10.84710,47690
10.85643,39801
10.86578,40862
10.87512,45693
10.88445,52522
10.89380,58605
10.90313,50162
10.91247,42689
10.92182,39703
10.93115,45476
10.94048,45025
10.94983,41418
10.95917,38025
10.96850,39610
10.97785,40790
10.98718,35462
10.99652,30563
11.00587,35146
11.01520,34415
11.02453,32041
11.03388,30916
11.04322,31693
11.05257,30384
11.06190,33313
11.07123,34934
11.08058,37823
11.08992,36153
11.09925,37641
11.10860,47497
11.11793,60487
11.12727,62890
11.13662,54139
11.14595,50055
11.15528,49371
11.16463,47227
11.17397,43604
11.18330,39703
11.19265,34948
11.20198,34264
11.21132,33209
11.22067,36024
11.23000,36925
11.23935,36287
11.24868,36472
11.25802,37227
11.26737,41382
11.27670,44534
11.28603,37835
11.29538,33005
11.30472,30946
11.31405,33892
11.32340,31992
11.33273,39822
11.34207,53259
11.35142,67190
11.36075,78609
11.37008,71746
11.37943,59410
11.38877,47350
11.39810,51383
11.40745,58440
11.41678,60866
11.42613,51673
11.43547,40358
11.44480,34512
11.45415,35844
11.46348,44102
11.47282,61876
11.48217,64462
11.49150,48136
11.50083,35378
11.51018,31553
11.51952,31811
11.52885,31447
11.53820,30513
11.54753,31023
11.55687,38771
11.56622,61589
11.57555,105117
11.58490,141529
11.59423,130135
11.60357,100172
11.61292,79357
11.62225,62549
11.63158,54082
11.64093,49432
11.65027,47684
11.65960,50116
11.66895,49350
11.67828,48110
11.68762,43869
11.69697,38049
11.70630,38663
11.71563,37879
11.72498,36387
11.73432,34076
11.74365,34892
11.75300,33649
11.76233,34481
11.77168,36671
11.78102,43472
11.79035,54805
11.79970,49508
11.80903,45786
11.81837,42713
11.82772,47996
11.83705,46611
11.84638,43669
11.85573,42343
11.86507,41195
11.87440,41034
11.88375,40163
11.89308,40410
11.90242,36312
11.91177,36588
11.92110,33891
11.93043,35085
11.93978,43896
11.94912,58490
11.95847,67953
11.96780,58535
11.97713,40084
11.98648,35692
11.99582,36780
12.00515,45218
12.01450,63647
12.02383,73944
12.03317,64961
12.04252,51285
12.05185,45001
12.06118,40364
12.07053,34702
12.07987,32957
12.08920,35065
12.09855,35249
12.10788,35866
12.11722,36176
12.12657,33438
12.13590,34132
12.14525,34483
12.15458,38124
12.16392,49183
12.17327,86891
12.18260,124013
12.19193,114297
12.20128,72175
12.21062,47462
12.21995,43928
12.22930,48623
12.23863,52211
12.24797,46683
12.25732,40400
12.26665,48678
12.27598,90433
12.28533,136813
12.29467,132148
12.30400,83000
12.31335,55179
12.32268,45844
12.33203,46929
12.34137,46441
12.35070,46212
12.36005,43063
12.36938,40518
12.37872,43671
12.38807,49241
12.39740,49499
12.40673,48569
12.41608,42109
12.42542,38053
12.43475,37684
12.44410,35115
12.45343,34699
12.46277,38424
12.47212,40587
12.48145,43309
12.49080,41500
12.50013,41397
12.50947,42262
12.51882,41664
12.52815,41804
12.53748,42757
12.54683,44739
12.55617,52409
12.56550,59460
12.57485,63192
12.58418,52043
12.59352,41253
12.60287,38690
12.61220,44878
12.62153,67247
12.63088,104653
12.64022,133887
12.64955,149057
12.65890,153132
12.66823,167962
12.67758,150424
12.68692,98085
12.69625,55400
12.70560,41207
12.71493,45003
12.72427,47232
12.73362,50097
12.74295,43356
12.75228,40832
12.76163,42429
12.77097,38066
12.78030,37294
12.78965,35644
12.79898,37566
12.80832,39600
12.81767,39131
12.82700,35964
12.83633,40276
12.84568,37756
12.85502,34823
12.86437,33603
12.87370,33124
12.88303,30702
12.89238,33323
12.90172,37314
12.91105,36779
12.92040,36758
12.92973,35760
12.93907,35313
12.94842,36491
12.95775,38666
12.96708,39398
12.97643,34853
12.98577,32619
12.99510,34593
13.00445,35775
13.01378,38047
13.02312,44799
13.03247,51566
13.04180,54543
13.05115,49533
13.06048,43425
13.06982,47734
13.07917,52248
13.08850,51300
13.09783,43625
13.10718,40776
13.11652,40640
13.12585,37509
13.13520,42999
13.14453,47142
13.15387,45950
13.16322,46630
13.17255,50027
13.18188,49490
13.19123,81009
13.20057,238774
13.20992,601586
13.21925,868962
13.22858,704226
13.23793,343773
13.24727,164494
13.25660,123693
13.26595,99877
13.27528,80708
13.28462,76071
13.29397,65336
13.30330,58071
13.31263,56258
13.32198,60715
13.33132,63188
13.34065,56662
13.35000,54777
13.35933,51183
13.36867,48164
13.37802,44090
13.38735,41085
13.39670,45049
13.40603,51802
13.41537,47153
13.42472,43508
13.43405,44211
13.44338,52869
13.45273,51880
13.46207,50216
13.47140,46805
13.48075,50356
13.49008,52124
13.49942,50411
13.50877,54757
13.51810,72049
13.52743,108008
13.53678,129255
13.54612,96620
13.55545,60717
13.56480,42851
13.57413,38346
13.58348,36032
13.59282,32927
13.60215,32541
13.61150,32241
13.62083,33936
13.63017,35318
13.63952,47045
13.64885,60345
13.65818,67018
13.66753,58674
13.67687,47050
13.68620,41664
13.69555,38947
13.70488,37034
13.71422,35430
13.72357,33510
13.73290,34875
13.74223,32121
13.75158,33778
13.76092,34119
13.77027,37260
13.77960,33686
13.78893,34894
13.79828,37719
13.80762,44072
13.81695,49230
13.82630,43691
13.83563,35476
13.84497,33202
13.85432,33594
13.86365,35171
13.87298,37984
13.88233,45695
13.89167,61947
13.90100,103260
13.91035,191916
13.91968,324951
13.92902,360377
13.93837,219850
13.94770,98254
13.95705,58702
13.96638,53321
13.97572,50261
13.98507,44197
13.99440,41753
14.00373,42084
14.01308,41411
14.02242,38858
14.03175,38055
14.04110,66868
14.05043,353488
14.05977,1811768
14.06912,5407715
14.07845,8341707
14.08778,6803595
14.09713,2514563
14.10647,459220
14.11580,94863
14.12515,58898
14.13448,50852
14.14383,49797
14.15317,53798
14.16250,54766
14.17185,59285
14.18118,58909
14.19052,66020
14.19987,85672
14.20920,82356
14.21853,60308
14.22788,42003
14.23722,34171
14.24655,33683
14.25590,34664
14.26523,36300
14.27457,37955
14.28392,37051
14.29325,36950
14.30260,34784
14.31193,37140
14.32127,46679
14.33062,57814
14.33995,60949
14.34928,57712
14.35863,46806
14.36797,39681
14.37730,36112
14.38665,34719
14.39598,35004
14.40532,34616
14.41467,32936
14.42400,31820
14.43333,31856
14.44268,35354
14.45202,46430
14.46135,61566
14.47070,73680
14.48003,69433
14.48938,55897
14.49872,44858
14.50805,37210
14.51740,33117
14.52673,31526
14.53607,33943
14.54542,36227
14.55475,37307
14.56408,42410
14.57343,42992
14.58277,39027
14.59210,38441
14.60145,34323
14.61078,33596
14.62012,34620
14.62947,35766
14.63880,39737
14.64813,55558
14.65748,73337
14.66682,76461
14.67617,63550
14.68550,50693
14.69483,42166
14.70418,40085
14.71352,35847
14.72285,34896
14.73220,34644
14.74153,33456
14.75087,36823
14.76022,37479
14.76955,39835
14.77888,42589
14.78823,43320
14.79757,41616
14.80690,39775
14.81625,39144
14.82558,38321
14.83492,36597
14.84427,35916
14.85360,37453
14.86295,44318
14.87228,51685
14.88162,56653
14.89097,49627
14.90030,40978
14.90963,36390
14.91898,36422
14.92832,35076
14.93765,37172
14.94700,38663
14.95633,39474
14.96567,43298
14.97502,52469
14.98435,54382
14.99368,46581
15.00303,42782
15.01237,48033
15.02172,47714
15.03105,43074
15.04038,40028
15.04973,44089
15.05907,47691
15.06840,45980
15.07775,47721
15.08708,41507
15.09642,37502
15.10577,35480
15.11510,37227
15.12443,40935
15.13378,51478
15.14312,53002
15.15245,42843
15.16180,39902
15.17113,37342
15.18047,36832
15.18982,40212
15.19915,50320
15.20850,67020
15.21783,90168
15.22717,98673
15.23652,81122
15.24585,60916
15.25518,47122
15.26453,42704
15.27387,38715
15.28320,39555
15.29255,39539
15.30188,38871
15.31122,38118
15.32057,37360
15.32990,43974
15.33923,48861
15.34858,47469
15.35792,44692
15.36725,46473
15.37660,52917
15.38593,49376
15.39528,43088
15.40462,36798
15.41395,35138
15.42330,36840
15.43263,39686
15.44197,39296
15.45132,38167
15.46065,36279
15.46998,35490
15.47933,36405
15.48867,37293
15.49800,39625
15.50735,46190
15.51668,57561
15.52602,70289
15.53537,65955
15.54470,56401
15.55403,42809
15.56338,37513
15.57272,33468
15.58207,33664
15.59140,35362
15.60073,36075
15.61008,38123
15.61942,38749
15.62875,41044
15.63810,47629
15.64743,48893
15.65677,49954
15.66612,51722
15.67545,54972
15.68478,61226
15.69413,76118
15.70347,84792
15.71280,82677
15.72215,70190
15.73148,51312
15.74082,43315
15.75017,48636
15.75950,54546
15.76885,56647
15.77818,52928
15.78752,47148
15.79687,44254
15.80620,45467
15.81553,63519
15.82488,106629
15.83422,171653
15.84355,230127
15.85290,228397
15.86223,152861
15.87157,83049
15.88092,64370
15.89025,68941
15.89958,75502
15.90893,80156
15.91827,68459
15.92760,58212
15.93695,46337
15.94628,41939
15.95563,40182
15.96497,41820
15.97430,45833
15.98365,58800
15.99298,76177
16.00232,81960
16.01167,70488
16.02100,52600
16.03033,45085
16.03968,41323
16.04902,43597
16.05835,45898
16.06770,47869
16.07703,44760
16.08637,44893
16.09572,44318
16.10505,46431
16.11440,50875
16.12373,54963
16.13307,53170
16.14242,48610
16.15175,42261
16.16108,42110
16.17043,42462
16.17977,41530
16.18910,44035
16.19845,52892
16.20778,54672
16.21712,59542
16.22647,64709
16.23580,62301
16.24513,58838
16.25448,55048
16.26382,50887
16.27315,55734
16.28250,92405
16.29183,206720
16.30118,350841
16.31052,355911
16.31985,223363
16.32920,101524
16.33853,57597
16.34787,44970
16.35722,37453
16.36655,34490
16.37588,35733
16.38523,34359
16.39457,36806
16.40390,38985
16.41325,39762
16.42258,43581
16.43192,42223
16.44127,41310
16.45060,44252
16.45993,49024
16.46928,52011
16.47862,47485
16.48797,43579
16.49730,45144
16.50663,44126
16.51598,46936
16.52532,48591
16.53465,47090
16.54400,43770
16.55333,42022
16.56267,39856
16.57202,38447
16.58135,39019
16.59068,42804
16.60003,38989
16.60937,39808
16.61870,42607
16.62805,46941
16.63738,54049
16.64672,54263
16.65607,48680
16.66540,45224
16.67475,41437
16.68408,43810
16.69342,52242
16.70277,63896
16.71210,61304
16.72143,51756
16.73078,43716
16.74012,52716
16.74945,87274
16.75880,119969
16.76813,104528
16.77747,63905
16.78682,45532
16.79615,38363
16.80548,41966
16.81483,47283
16.82417,49932
16.83352,59186
16.84285,58811
16.85218,53563
16.86153,47663
16.87087,42188
16.88020,41093
16.88955,42873
16.89888,41169
16.90822,48737
16.91757,61175
16.92690,63324
16.93623,58277
16.94558,54964
16.95492,59880
16.96425,63832
16.97360,65585
16.98293,58882
16.99227,51645
17.00162,45854
17.01095,43070
17.02030,46326
17.02963,67973
17.03897,96932
17.04832,93264
17.05765,67254
17.06698,52679
17.07633,48966
17.08567,45870
17.09500,44809
17.10435,44533
17.11368,41366
17.12302,41693
17.13237,40819
17.14170,44461
17.15103,45040
17.16038,41493
17.16972,37964
17.17905,38692
17.18840,37533
17.19773,38320
17.20708,37969
17.21642,37093
17.22575,35520
17.23510,37981
17.24443,39692
17.25377,40720
17.26312,41771
17.27245,43639
17.28178,51189
17.29113,54458
17.30047,51059
17.30980,48321
17.31915,50130
17.32848,52216
17.33782,50529
17.34717,44813
17.35650,40649
17.36583,43453
17.37518,65146
17.38452,138806
17.39387,193370
17.40320,173822
17.41253,108173
17.42188,64076
17.43122,52197
17.44055,47181
17.44990,47958
17.45923,49150
17.46857,50776
17.47792,50754
17.48725,77204
17.49658,263018
17.50593,1044016
17.51527,2387616
17.52460,2771468
17.53395,1609460
17.54328,498922
17.55262,120491
17.56197,60034
17.57130,56330
17.58065,60233
17.58998,60157
17.59932,57977
17.60867,53474
17.61800,47600
17.62733,46719
17.63668,46996
17.64602,46231
17.65535,51212
17.66470,52964
17.67403,61919
17.68337,67887
17.69272,84804
17.70205,166641
17.71138,519624
17.72073,1224051
17.73007,1449936
17.73942,931067
17.74875,338999
17.75808,108318
17.76743,69311
17.77677,64823
17.78610,61955
17.79545,55351
17.80478,51659
17.81412,51002
17.82347,46520
17.83280,46027
17.84213,47542
17.85148,50274
17.86082,59705
17.87015,66221
17.87950,67826
17.88883,58490
17.89817,53431
17.90752,48692
17.91685,44744
17.92620,45789
17.93553,48215
17.94487,45540
17.95422,46047
17.96355,44034
17.97288,45781
17.98223,45401
17.99157,43478
18.00090,42934
18.01025,40887
18.01958,42124
18.02892,45161
18.03827,49706
18.04760,66839
18.05693,96640
18.06628,113015
18.07562,92552
18.08495,64446
18.09430,49899
18.10363,54338
18.11298,66126
18.12232,74819
18.13165,65330
18.14100,57892
18.15033,55565
18.15967,51946
18.16902,53070
18.17835,52390
18.18768,53364
18.19703,51758
18.20637,44485
18.21570,45614
18.22505,46670
18.23438,46592
18.24372,45928
18.25307,42238
18.26240,41231
18.27173,44733
18.28108,49893
18.29042,55225
18.29977,56958
18.30910,59771
18.31843,58655
18.32778,55945
18.33712,57213
18.34645,60255
18.35580,69918
18.36513,72826
18.37447,71543
18.38382,65242
18.39315,63395
18.40248,59651
18.41183,57539
18.42117,54059
18.43050,52396
18.43985,53787
18.44918,58348
18.45853,61138
18.46787,56852
18.47720,50976
18.48655,51763
18.49588,63440
18.50522,75853
18.51457,87229
18.52390,85585
18.53323,69789
18.54258,60205
18.55192,56748
18.56125,59683
18.57060,56437
18.57993,52837
18.58927,48970
18.59862,52148
18.60795,56023
18.61728,62746
18.62663,61312
18.63597,60046
18.64532,58582
18.65465,55584
18.66398,52815
18.67333,50837
18.68267,51737
18.69200,56147
18.70135,60375
18.71068,65634
18.72002,67024
18.72937,66617
18.73870,65270
18.74803,58360
18.75738,52529
18.76672,50930
18.77605,45176
18.78540,45287
18.79473,42912
18.80407,44335
18.81342,44401
18.82275,44970
18.83210,46819
18.84143,46307
18.85077,44415
18.86012,43480
18.86945,43509
18.87878,42422
18.88813,42412
18.89747,44230
18.90680,52427
18.91615,66754
18.92548,65329
18.93482,60801
18.94417,58747
18.95350,61071
18.96283,66480
18.97218,73980
18.98152,72304
18.99085,66357
19.00020,56538
19.00953,53750
19.01888,51423
19.02822,53912
19.03755,57682
19.04690,70457
19.05623,86524
19.06557,105654
19.07492,132429
19.08425,174670
19.09358,189892
19.10293,152481
19.11227,96978
19.12160,63062
19.13095,50512
19.14028,46112
19.14962,41019
19.15897,42333
19.16830,40331
19.17763,42150
19.18698,45751
19.19632,48168
19.20567,54427
19.21500,57173
19.22433,62075
19.23368,62687
19.24302,60660
19.25235,55314
19.26170,52936
19.27103,53513
19.28037,56306
19.28972,62388
19.29905,73787
19.30838,97690
19.31773,128015
19.32707,128404
19.33640,100284
19.34575,72988
19.35508,59230
19.36442,51311
19.37377,46488
19.38310,47297
19.39245,48413
19.40178,54207
19.41112,59252
19.42047,56868
19.42980,50771
19.43913,43851
19.44848,41808
19.45782,42600
19.46715,44525
19.47650,45411
19.48583,49009
19.49517,50275
19.50452,51380
19.51385,47587
19.52318,46287
19.53253,46841
19.54187,46290
19.55122,45094
19.56055,43664
19.56988,42826
19.57923,49757
19.58857,52348
19.59790,55010
19.60725,52777
19.61658,53280
19.62592,53312
19.63527,55672
19.64460,55966
19.65393,55406
19.66328,50347
19.67262,46436
19.68195,44614
19.69130,53523
19.70063,60786
19.70997,67183
19.71932,69162
19.72865,74031
19.73800,81908
19.74733,73075
19.75667,61987
19.76602,55665
19.77535,56738
19.78468,61270
19.79403,68366
19.80337,67869
19.81270,61732
19.82205,58039
19.83138,57631
19.84072,52146
19.85007,47616
19.85940,47867
19.86873,56468
19.87808,75973
19.88742,86289
19.89675,75528
19.90610,58134
19.91543,50500
19.92478,48543
19.93412,50015
19.94345,47339
19.95280,48936
19.96213,53287
19.97147,58029
19.98082,55883
19.99015,48719
19.99948,42307
20.00883,42963
20.01817,43985
20.02750,47354
20.03685,54698
20.04618,62919
20.05552,61317
20.06487,54908
20.07420,50062
20.08353,52917
20.09288,54146
20.10222,54511
20.11157,48149
20.12090,44581
20.13023,41236
20.13958,46118
20.14892,58162
20.15825,75436
20.16760,75205
20.17693,63378
20.18627,52376
20.19562,44173
20.20495,45273
20.21428,46964
20.22363,72200
20.23297,272585
20.24230,1144166
20.25165,2416908
20.26098,2515502
20.27033,1389458
20.27967,429894
20.28900,118290
20.29835,62717
20.30768,49467
20.31702,45051
20.32637,42017
20.33570,40438
20.34503,40546
20.35438,39509
20.36372,41329
20.37305,44061
20.38240,44248
20.39173,45605
20.40107,47493
20.41042,44991
20.41975,43611
20.42908,44897
20.43843,44632
20.44777,46934
20.45712,45828
20.46645,53750
20.47578,65101
20.48513,76350
20.49447,70633
20.50380,58992
20.51315,48449
20.52248,44380
20.53182,44945
20.54117,44981
20.55050,50616
20.55983,67614
20.56918,126264
20.57852,256073
20.58785,317514
20.59720,233327
20.60653,117924
20.61587,69845
20.62522,59454
20.63455,54281
20.64390,55829
20.65323,54675
20.66257,54568
20.67192,54662
20.68125,60860
20.69058,67159
20.69993,75102
20.70927,70277
20.71860,73424
20.72795,68991
20.73728,62265
20.74662,61697
20.75597,60775
20.76530,58008
20.77463,60687
20.78398,59927
20.79332,65554
20.80265,74616
20.81200,75949
20.82133,67547
20.83068,57037
20.84002,53610
20.84935,53891
20.85870,51538
20.86803,48075
20.87737,47965
20.88672,52549
20.89605,56052
20.90538,55898
20.91473,57390
20.92407,54212
20.93340,49267
20.94275,47089
20.95208,47108
20.96142,49960
20.97077,51751
20.98010,48268
20.98943,48895
20.99878,51453
21.00812,52137
21.01747,52231
21.02680,46948
21.03613,45759
21.04548,45046
21.05482,48194
21.06415,52692
21.07350,55223
21.08283,58961
21.09217,56280
21.10152,54721
21.11085,54192
21.12018,53743
21.12953,51392
21.13887,52319
21.14820,48078
21.15755,49777
21.16688,51622
21.17623,60661
21.18557,69610
21.19490,71281
21.20425,68058
21.21358,69131
21.22292,77690
21.23227,93307
21.24160,93395
21.25093,82185
21.26028,77918
21.26962,86609
21.27895,88944
21.28830,85385
21.29763,79945
21.30697,73757
21.31632,74002
21.32565,80481
21.33498,82502
21.34433,77063
21.35367,71680
21.36302,69290
21.37235,62639
21.38168,63962
21.39103,66208
21.40037,70321
21.40970,80025
21.41905,87581
21.42838,87281
21.43772,79822
21.44707,74752
21.45640,66108
21.46573,62811
21.47508,76283
21.48442,175955
21.49375,730141
21.50310,2370368
21.51243,4100880
21.52177,3688642
21.53112,1725962
21.54045,544380
21.54980,194060
21.55913,139731
21.56847,153453
21.57782,181285
21.58715,182508
21.59648,155550
21.60583,134726
21.61517,119175
21.62450,95632
21.63385,83045
21.64318,83983
21.65252,85788
21.66187,87779
21.67120,89932
21.68053,92126
21.68988,94541
21.69922,90554
21.70855,86211
21.71790,90454
21.72723,95992
21.73658,96916
21.74592,92308
21.75525,86029
21.76460,83578
21.77393,87912
21.78327,94519
21.79262,101112
21.80195,105555
21.81128,106320
21.82063,119672
21.82997,141087
21.83930,145340
21.84865,132181
21.85798,118751
21.86732,127166
21.87667,132469
21.88600,131238
21.89535,116565
21.90468,107721
21.91402,109006
21.92337,115637
21.93270,115850
21.94203,118796
21.95138,151098
21.96072,219024
21.97005,299850
21.97940,316767
21.98873,280597
21.99807,244627
22.00742,200423
22.01675,152091
22.02608,127816
22.03543,113121
22.04477,111817
22.05410,115188
22.06345,146983
22.07278,225032
22.08213,305515
22.09147,324430
22.10080,287771
22.11015,264160
22.11948,254620
22.12882,218383
22.13817,174048
22.14750,177760
22.15683,192140
22.16618,203977
22.17552,236020
22.18485,263181
22.19420,258404
22.20353,223259
22.21287,203381
22.22222,179824
22.23155,148645
22.24088,130207
22.25023,127932
22.25957,115053
22.26892,106035
22.27825,119249
22.28758,145391
22.29693,156959
22.30627,164474
22.31560,158524
22.32495,138496
22.33428,115187
22.34362,107447
22.35297,108382
22.36230,116291
22.37163,116204
22.38098,122514
22.39032,138275
22.39965,147088
22.40900,123036
22.41833,86053
22.42767,71516
22.43702,71014
22.44635,78597
22.45570,87857
22.46503,111988
22.47437,136259
22.48372,138066
22.49305,120565
22.50238,161905
22.51173,312558
22.52107,447436
22.53040,362622
22.53975,194936
22.54908,102781
22.55842,81501
22.56777,103108
22.57710,170292
22.58643,249338
22.59578,269363
22.60512,246876
22.61445,227096
22.62380,179205
22.63313,156840
22.64248,169227
22.65182,159545
22.66115,109541
22.67050,77013
22.67983,78533
22.68917,112885
22.69852,163138
22.70785,163810
22.71718,125692
22.72653,94223
22.73587,86478
22.74520,85142
22.75455,88695
22.76388,100707
22.77322,125205
22.78257,150075
22.79190,150836
22.80123,120594
22.81058,97589
22.81992,82257
22.82927,75847
22.83860,84019
22.84793,103775
22.85728,130563
22.86662,120528
22.87595,91662
22.88530,79397
22.89463,79728
22.90397,81991
22.91332,76524
22.92265,73532
22.93198,73355
22.94133,72333
22.95067,87944
22.96000,121272
22.96935,142231
22.97868,118186
22.98803,79592
22.99737,62363
23.00670,56120
23.01605,52993
23.02538,52769
23.03472,53853
23.04407,53612
23.05340,58646
23.06273,64640
23.07208,77979
23.08142,85112
23.09075,78890
23.10010,66283
23.10943,60356
23.11877,56127
23.12812,53201
23.13745,54132
23.14678,54410
23.15613,52936
23.16547,53445
23.17482,56243
23.18415,53773
23.19348,52879
23.20283,53120
23.21217,50286
23.22150,50958
23.23085,50731
23.24018,51893
23.24952,53265
23.25887,57655
23.26820,57605
23.27753,56207
23.28688,53832
23.29622,52053
23.30555,50222
23.31490,51055
23.32423,60808
23.33357,87585
23.34292,116213
23.35225,109261
23.36160,80434
23.37093,60728
23.38027,54950
23.38962,53307
23.39895,52901
23.40828,54801
23.41763,50252
23.42697,49993
23.43630,52706
23.44565,52530
23.45498,52748
23.46432,54859
23.47367,56661
23.48300,53951
23.49233,51710
23.50168,48431
23.51102,50102
23.52035,47986
23.52970,48407
23.53903,49484
23.54838,47175
23.55772,46933
23.56705,47132
23.57640,48785
23.58573,50211
23.59507,49894
23.60442,49838
23.61375,47477
23.62308,47901
23.63243,45144
23.64177,46450
23.65110,42818
23.66045,46408
23.66978,45810
23.67912,49106
23.68847,50384
23.69780,53184
23.70715,55172
23.71648,54879
23.72582,57099
23.73517,62851
23.74450,66073
23.75383,57727
23.76318,52291
23.77252,48693
23.78185,46586
23.79120,47094
23.80053,44720
23.80987,47236
23.81922,46547
23.82855,46540
23.83788,47494
23.84723,46178
23.85657,47771
23.86590,44723
23.87525,45683
23.88458,47692
23.89393,49055
23.90327,51009
23.91260,53370
23.92195,48800
23.93128,49576
23.94062,48360
23.94997,47139
23.95930,48720
23.96863,45823
23.97798,46777
23.98732,43803
23.99665,47039
24.00600,47241
24.01533,45361
24.02467,47870
24.03402,47041
24.04335,43999
24.05268,45169
24.06203,44172
24.07137,43209
24.08072,45268
24.09005,44547
24.09938,46305
24.10873,44273
24.11807,47243
24.12740,47157
24.13675,45803
24.14608,47189
24.15542,45972
24.16477,44717
24.17410,46867
24.18343,47044
24.19278,45297
24.20212,45310
24.21145,46209
24.22080,45758
24.23013,49083
24.23947,46807
24.24882,49334
24.25815,47304
24.26750,45469
24.27683,45320
24.28617,46794
24.29552,45902
24.30485,46808
24.31418,45767
24.32353,46180
24.33287,49285
24.34220,49641
24.35155,48221
24.36088,45689
24.37022,45740
24.37957,45566
24.38890,47076
24.39823,48549
24.40758,50296
24.41692,47709
24.42625,48065
24.43560,46201
24.44493,47167
24.45428,47596
24.46362,46787
24.47295,45055
24.48230,46404
24.49163,47422
24.50097,45631
24.51032,48841
24.51965,50443
24.52898,47945
24.53833,49776
24.54767,56002
24.55700,65955
24.56635,71469
24.57568,70447
24.58502,61168
24.59437,54639
24.60370,50786
24.61305,51627
24.62238,51294
24.63172,51439
24.64107,49256
24.65040,48589
24.65973,48412
24.66908,50513
24.67842,52768
24.68775,50632
24.69710,50453
24.70643,49867
24.71577,50469
24.72512,50052
24.73445,49477
24.74378,46989
24.75313,48022
24.76247,48161
24.77180,48554
24.78115,47937
24.79048,47599
24.79983,47688
24.80917,47315
24.81850,48960
24.82785,47845
24.83718,47959
24.84652,47460
24.85587,45690
24.86520,49075
24.87453,51035
24.88388,48867
24.89322,49187
24.90255,48423
24.91190,50585
24.92123,47728
24.93057,47465
24.93992,47940
24.94925,48153
24.95858,46806
24.96793,48980
24.97727,50404
24.98662,49609
24.99595,48467
25.00528,50152
25.01463,49449
25.02397,48127
25.03330,46963
25.04265,46573
25.05198,47279
25.06132,49114
25.07067,47501
25.08000,47301
25.08933,48452
25.09868,48194
25.10802,48740
25.11735,50156
25.12670,49718
25.13603,50893
25.14537,50977
25.15472,53910
25.16405,56996
25.17340,53932
25.18273,52686
25.19207,49956
25.20142,49607
25.21075,51194
25.22008,49439
25.22943,47718
25.23877,50306
25.24810,51635
25.25745,52039
25.26678,50974
25.27612,48975
25.28547,49083
25.29480,52236
25.30413,51163
25.31348,57925
25.32282,78076
25.33217,118891
25.34150,149429
25.35083,136219
25.36018,97145
25.36952,80780
25.37885,71918
25.38820,68694
25.39753,67078
25.40687,63022
25.41622,62843
25.42555,64502
25.43488,64301
25.44423,65473
25.45357,65023
25.46290,65893
25.47225,66516
25.48158,70090
25.49092,73216
25.50027,76409
25.50960,74564
25.51895,75301
25.52828,74987
25.53762,74432
25.54697,73177
25.55630,73900
25.56563,72456
25.57498,70981
25.58432,70040
25.59365,67459
25.60300,68548
25.61233,67923
25.62167,64300
25.63102,64916
25.64035,64181
25.64968,65350
25.65903,67460
25.66837,69672
25.67770,69135
25.68705,67478
25.69638,64062
25.70573,62160
25.71507,61209
25.72440,63683
25.73375,62650
25.74308,60814
25.75242,63279
25.76177,63481
25.77110,63157
25.78043,62306
25.78978,61955
25.79912,63435
25.80845,65419
25.81780,66658
25.82713,63816
25.83647,66882
25.84582,66826
25.85515,67314
25.86448,63857
25.87383,62588
25.88317,60654
25.89252,62569
25.90185,59424
25.91118,59603
25.92053,58418
25.92987,61043
25.93920,62158
25.94855,60242
25.95788,62619
25.96722,65488
25.97657,63644
25.98590,65176
25.99523,62570
26.00458,63173
26.01392,60034
26.02325,60616
26.03260,61601
26.04193,63917
26.05127,67741
26.06062,65727
26.06995,66587
26.07930,64100
26.08863,65067
26.09797,64078
26.10732,65505
26.11665,63007
26.12598,65101
26.13533,70113
26.14467,74600
26.15400,79817
26.16335,78192
26.17268,78025
26.18202,75743
26.19137,70600
26.20070,67347
26.21003,62691
26.21938,63003
26.22872,62707
26.23805,62420
26.24740,63462
26.25673,61162
26.26608,60909
26.27542,60979
26.28475,63257
26.29410,62091
26.30343,61247
26.31277,65539
26.32212,65192
26.33145,66188
26.34078,62995
26.35013,63351
26.35947,62787
26.36880,63570
26.37815,61407
26.38748,62637
26.39682,62426
26.40617,59689
26.41550,61762
26.42485,61248
26.43418,63469
26.44352,63715
26.45287,61217
26.46220,64224
26.47153,64854
26.48088,63081
26.49022,64800
26.49955,65823
26.50890,64817
26.51823,63195
26.52757,66276
26.53692,66524
26.54625,68826
26.55558,68379
26.56493,65810
26.57427,64493
26.58360,65289
26.59295,65558
26.60228,68034
26.61163,71599
26.62097,72308
26.63030,67355
26.63965,63331
26.64898,64357
26.65832,64251
26.66767,64185
26.67700,66217
26.68633,65245
26.69568,65321
26.70502,61348
26.71435,60872
26.72370,62563
26.73303,62266
26.74237,65721
26.75172,68750
26.76105,68159
26.77038,66954
26.77973,69078
26.78907,68557
26.79842,68707
26.80775,65848
26.81708,66461
26.82643,66512
26.83577,68448
26.84510,65812
26.85445,67969
26.86378,66634
26.87312,65623
26.88247,65909
26.89180,66396
26.90113,65671
26.91048,62103
26.91982,63766
26.92915,67327
26.93850,65117
26.94783,63275
26.95717,64012
26.96652,64878
26.97585,63816
26.98520,65134
26.99453,64608
27.00387,67480
27.01322,69326
27.02255,68768
27.03188,68320
27.04123,66396
27.05057,71526
27.05990,68835
27.06925,70499
27.07858,70803
27.08792,69098
27.09727,68455
27.10660,65275
27.11593,65998
27.12528,68039
27.13462,67600
27.14397,67996
27.15330,70071
27.16263,66000
27.17198,65781
27.18132,67154
27.19065,64980
27.20000,65953
27.20933,62945
27.21867,62593
27.22802,64056
27.23735,64734
27.24668,67899
27.25603,73974
27.26537,78616
27.27470,74656
27.28405,71396
27.29338,67987
27.30272,64687
27.31207,65940
27.32140,65963
27.33075,64454
27.34008,65522
27.34942,63209
27.35877,62211
27.36810,63556
27.37743,66758
27.38678,64797
27.39612,65523
27.40545,67798
27.41480,66762
27.42413,65060
27.43347,67033
27.44282,70245
27.45215,65722
27.46148,67083
27.47083,68706
27.48017,67070
27.48950,69690
27.49885,70813
27.50818,71473
27.51753,74230
27.52687,72168
27.53620,72228
27.54555,72834
27.55488,73559
27.56422,68642
27.57357,72095
27.58290,68100
27.59223,68155
27.60158,68514
27.61092,69492
27.62025,68346
27.62960,67063
27.63893,69964
27.64827,71326
27.65762,70080
27.66695,78209
27.67628,93213
27.68563,102710
27.69497,100047
27.70432,89828
27.71365,81000
27.72298,77556
27.73233,74927
27.74167,74229
27.75100,74566
27.76035,72290
27.76968,73358
27.77902,71798
27.78837,74032
27.79770,74871
27.80703,73085
27.81638,72484
27.82572,73765
27.83505,70672
27.84440,73071
27.85373,74530
27.86307,71557
27.87242,72302
27.88175,72457
27.89110,71027
27.90043,70737
27.90977,70568
27.91912,73853
27.92845,72474
27.93778,76125
27.94713,75908
27.95647,71078
27.96580,71533
27.97515,69592
27.98448,71218
27.99382,70624
28.00317,71216
28.01250,70938
28.02183,68975
28.03118,71171
28.04052,68205
28.04987,72338
28.05920,71925
28.06853,71643
28.07788,72440
28.08722,70942
28.09655,73498
28.10590,74815
28.11523,77387
28.12457,89295
28.13392,87651
28.14325,90323
28.15258,83437
28.16193,80278
28.17127,77957
28.18060,77053
28.18995,75304
28.19928,74947
28.20862,75243
28.21797,76027
28.22730,73228
28.23665,74383
28.24598,75649
28.25532,74109
28.26467,74077
28.27400,74120
28.28333,75021
28.29268,72968
28.30202,75357
28.31135,77642
28.32070,75186
28.33003,73956
28.33937,73953
28.34872,72977
28.35805,73407
28.36738,74820
28.37673,74715
28.38607,75630
28.39540,77452
28.40475,75483
28.41408,75462
28.42343,78510
28.43277,79599
28.44210,78499
28.45145,80602
28.46078,79154
28.47012,78469
28.47947,78657
28.48880,76630
28.49813,76205
28.50748,79107
28.51682,79264
28.52615,78817
28.53550,77220
28.54483,78866
28.55417,80806
28.56352,80778
28.57285,80076
28.58218,78370
28.59153,83929
28.60087,86723
28.61022,86333
28.61955,86936
28.62888,87759
28.63823,84861
28.64757,85925
28.65690,85425
28.66625,92261
28.67558,110913
28.68492,136325
28.69427,142929
28.70360,126504
28.71293,109808
28.72228,96615
28.73162,89226
28.74095,87340
28.75030,87937
28.75963,86832
28.76898,88049
28.77832,84557
28.78765,87897
28.79700,87740
28.80633,83562
28.81567,84453
28.82502,83069
28.83435,86502
28.84368,83201
28.85303,84551
28.86237,82489
28.87170,84544
28.88105,85198
28.89038,85798
28.89972,83380
28.90907,85424
28.91840,84737
28.92773,82798
28.93708,84999
28.94642,87743
28.95577,87008
28.96510,92124
28.97443,98315
28.98378,98507
28.99312,97303
29.00245,93457
29.01180,92109
29.02113,92302
29.03047,89812
29.03982,92699
29.04915,91493
29.05848,89661
29.06783,87702
29.07717,87265
29.08650,89391
29.09585,88299
29.10518,85807
29.11452,85584
29.12387,86899
29.13320,89815
29.14255,88162
29.15188,87306
29.16122,86730
29.17057,87080
29.17990,85862
29.18923,89883
29.19858,95383
29.20792,102802
29.21725,106578
29.22660,102249
29.23593,97619
29.24527,95296
29.25462,89557
29.26395,93870
29.27328,92705
29.28263,91085
29.29197,92550
29.30130,92630
29.31065,89103
29.31998,89723
29.32933,91387
29.33867,91760
29.34800,90407
29.35735,92480
29.36668,91212
29.37602,92535
29.38537,93120
29.39470,93653
29.40403,95290
29.41338,91417
29.42272,89379
29.43205,92206
29.44140,94333
29.45073,94839
29.46007,96515
29.46942,97659
29.47875,100588
29.48808,100133
29.49743,93631
29.50677,95602
29.51612,94973
29.52545,92335
29.53478,90474
29.54413,92105
29.55347,91669
29.56280,88361
29.57215,91710
29.58148,91558
29.59082,91634
29.60017,90473
29.60950,86918
29.61883,92776
29.62818,92135
29.63752,91216
29.64685,92731
29.65620,90566
29.66553,90809
29.67487,89088
29.68422,90623
29.69355,89859
29.70290,90477
29.71223,89220
29.72157,92704
29.73092,94346
29.74025,92548
29.74958,93608
29.75893,93421
29.76827,90492
29.77760,91521
29.78695,92686
29.79628,90845
29.80562,86806
29.81497,91591
29.82430,87762
29.83363,86730
29.84298,87816
29.85232,88492
29.86167,89398
29.87100,88138
29.88033,88996
29.88968,89513
29.89902,90818
29.90835,88915
29.91770,90019
29.92703,91208
29.93637,92815
29.94572,93514
29.95505,91998
29.96438,94499
29.97373,98332
29.98307,105250
29.99240,107657
30.00175,112242
30.01108,111858
30.02042,105822
30.02977,97446
30.03910,94051
30.04845,94937
30.05778,96354
30.06712,92880
30.07647,95103
30.08580,93986
30.09513,90160
30.10448,91308
30.11382,92890
30.12315,89238
30.13250,95551
30.14183,94714
30.15117,93794
30.16052,95186
30.16985,94409
30.17918,96748
30.18853,94203
30.19787,92802
30.20720,96160
30.21655,91782
30.22588,93429
30.23523,96467
30.24457,92258
30.25390,94446
30.26325,96061
30.27258,91851
30.28192,96003
30.29127,92373
30.30060,96504
30.30993,94087
30.31928,92711
30.32862,94238
30.33795,94390
30.34730,95689
30.35663,93581
30.36597,99799
30.37532,98333
30.38465,100829
30.39398,103383
30.40333,112256
30.41267,114794
30.42202,116670
30.43135,110854
30.44068,106088
30.45003,104841
30.45937,97694
30.46870,96786
30.47805,101070
30.48738,100614
30.49672,99260
30.50607,102028
30.51540,97604
30.52473,95523
30.53408,95914
30.54342,95220
30.55275,91568
30.56210,92774
30.57143,92689
30.58078,95657
30.59012,95084
30.59945,97562
30.60880,97693
30.61813,100764
30.62747,104391
30.63682,110474
30.64615,114408
30.65548,123155
30.66483,122664
30.67417,117904
30.68350,115673
30.69285,114135
30.70218,110503
30.71152,108664
30.72087,105350
30.73020,102153
30.73953,103259
30.74888,100148
30.75822,99864
30.76757,97783
30.77690,97471
30.78623,100912
30.79558,97849
30.80492,100581
30.81425,99491
30.82360,97160
30.83293,98691
30.84227,99859
30.85162,99660
30.86095,102157
30.87028,101895
30.87963,100362
30.88897,101470
30.89830,100952
30.90765,102973
30.91698,96953
30.92632,100578
30.93567,98758
30.94500,100177
30.95435,99477
30.96368,101058
30.97302,105726
30.98237,103760
30.99170,106027
31.00103,105188
31.01038,104608
31.01972,104569
31.02905,103411
31.03840,103834
31.04773,102734
31.05707,100133
31.06642,104136
31.07575,101511
31.08508,103362
31.09443,101515
31.10377,100996
31.11310,103095
31.12245,103367
31.13178,101438
31.14113,104475
31.15047,104986
31.15980,104033
31.16915,107035
31.17848,102827
31.18782,103014
31.19717,100668
31.20650,102615
31.21583,102494
31.22518,103701
31.23452,100977
31.24385,101119
31.25320,101911
31.26253,101258
31.27187,99396
31.28122,99761
31.29055,99974
31.29988,102067
31.30923,101778
31.31857,102102
31.32792,97792
31.33725,103223
31.34658,101346
31.35593,102033
31.36527,100776
