D:\数据\20211206\ZS1E-M-000084.D Mon Dec 06 16:49:27 2021
Start of data points
0.09750,30990
0.10683,29558
0.11618,29291
0.12552,30682
0.13487,30637
0.14420,29750
0.15353,30773
0.16288,29720
0.17222,30362
0.18155,30115
0.19090,30689
0.20023,30604
0.20957,30851
0.21892,29297
0.22825,30115
0.23758,29147
0.24693,28237
0.25627,29583
0.26560,28241
0.27495,30528
0.28428,29906
0.29362,28092
0.30297,29479
0.31230,29249
0.32165,30330
0.33098,28050
0.34032,28339
0.34967,28373
0.35900,29684
0.36833,30571
0.37768,27784
0.38702,29749
0.39635,29868
0.40570,29286
0.41503,28619
0.42437,28321
0.43372,25662
0.44305,19952
0.45238,16827
0.46173,10797
0.47107,6694
0.48040,7415
0.48975,6787
0.49908,6672
0.50843,7249
0.51777,5560
0.52710,6605
0.53645,6160
0.54578,6156
0.55512,6380
0.56447,6491
0.57380,6876
0.58313,5738
0.59248,6071
0.60182,5289
0.61115,5719
0.62050,6505
0.62983,6366
0.63917,6148
0.64852,6101
0.65785,6141
0.66718,5519
0.67653,5428
0.68587,5812
0.69522,6037
0.70455,5737
0.71388,5634
0.72323,5791
0.73257,5962
0.74190,6045
0.75125,5969
0.76058,5148
0.76992,4835
0.77927,5540
0.78860,4964
0.79793,4784
0.80728,6183
0.81662,5536
0.82595,5166
0.83530,4855
0.84463,5656
0.85397,5456
0.86332,5141
0.87265,5193
0.88200,5038
0.89133,4914
0.90067,5405
0.91002,4904
0.91935,5204
0.92868,4571
0.93803,5345
0.94737,5574
0.95670,5020
0.96605,4734
0.97538,5739
0.98472,5026
0.99407,4733
1.00340,5287
1.01273,4067
1.02208,5197
1.03142,4929
1.04077,4388
1.05010,5643
1.05943,4132
1.06878,5095
1.07812,5445
1.08745,4691
1.09680,5059
1.10613,5110
1.11547,5263
1.12482,4642
1.13415,4639
1.14348,4409
1.15283,4937
1.16217,4548
1.17150,5003
1.18085,5178
1.19018,4156
1.19952,4985
1.20887,4383
1.21820,4402
1.22755,5013
1.23688,5124
1.24622,5106
1.25557,5025
1.26490,5008
1.27423,4764
1.28358,5174
1.29292,4835
1.30225,5019
1.31160,5257
1.32093,4795
1.33027,4982
1.33962,4555
1.34895,4625
1.35828,4563
1.36763,5043
1.37697,5077
1.38630,4631
1.39565,4978
1.40498,4480
1.41433,4680
1.42367,4040
1.43300,4953
1.44235,4836
1.45168,5354
1.46102,4941
1.47037,4355
1.47970,4548
1.48903,4644
1.49838,4343
1.50772,4695
1.51705,4855
1.52640,4678
1.53573,4837
1.54507,4398
1.55442,5024
1.56375,5374
1.57308,4951
1.58243,4609
1.59177,5192
1.60112,8463
1.61045,14798
1.61978,22132
1.62913,27352
1.63847,36158
1.64780,52036
1.65715,64878
1.66648,64723
1.67582,58566
1.68517,50199
1.69450,41138
1.70383,33004
1.71318,23971
1.72252,22215
1.73185,24230
1.74120,26002
1.75053,27919
1.75988,31164
1.76922,34153
1.77855,34940
1.78790,36461
1.79723,38344
1.80657,36876
1.81592,37750
1.82525,38688
1.83458,36205
1.84393,35992
1.85327,34860
1.86260,36439
1.87195,43154
1.88128,63824
1.89062,106644
1.89997,148903
1.90930,170733
1.91863,197423
1.92798,325861
1.93732,663121
1.94667,1172216
1.95600,1574684
1.96533,1570977
1.97468,1281595
1.98402,949783
1.99335,699874
2.00270,568453
2.01203,512881
2.02137,486123
2.03072,428418
2.04005,325163
2.04938,234077
2.05873,170352
2.06807,134616
2.07740,121111
2.08675,162986
2.09608,218737
2.10542,174256
2.11477,117382
2.12410,97290
2.13345,151381
2.14278,303143
2.15212,309690
2.16147,231489
2.17080,166050
2.18013,137404
2.18948,153811
2.19882,176950
2.20815,143014
2.21750,105396
2.22683,101146
2.23617,141116
2.24552,232580
2.25485,1063404
2.26418,3029429
2.27353,3215368
2.28287,2282134
2.29220,1393265
2.30155,990554
2.31088,2462607
2.32023,7285565
2.32957,8968637
2.33890,5660412
2.34825,2552779
2.35758,1096651
2.36692,507888
2.37627,285755
2.38560,217383
2.39493,183639
2.40428,151238
2.41362,134040
2.42295,117909
2.43230,108219
2.44163,101791
2.45097,93631
2.46032,85326
2.46965,85850
2.47898,91375
2.48833,81059
2.49767,71919
2.50702,65860
2.51635,62632
2.52568,60007
2.53503,60287
2.54437,61513
2.55370,68064
2.56305,82232
2.57238,195622
2.58172,297572
2.59107,260620
2.60040,200558
2.60973,158999
2.61908,147966
2.62842,145861
2.63775,134115
2.64710,123005
2.65643,115993
2.66577,100814
2.67512,88047
2.68445,73813
2.69380,64997
2.70313,59881
2.71247,61310
2.72182,78028
2.73115,107862
2.74048,122970
2.74983,138713
2.75917,142940
2.76850,141978
2.77785,163433
2.78718,194216
2.79652,201259
2.80587,169648
2.81520,132407
2.82453,110483
2.83388,97888
2.84322,92776
2.85257,109026
2.86190,136237
2.87123,135529
2.88058,134225
2.88992,126292
2.89925,107342
2.90860,92160
2.91793,85681
2.92727,79309
2.93662,72817
2.94595,62804
2.95528,60236
2.96463,57209
2.97397,54010
2.98330,56982
2.99265,62475
3.00198,84122
3.01132,105490
3.02067,97646
3.03000,76057
3.03935,74552
3.04868,97541
3.05802,111247
3.06737,118718
3.07670,119332
3.08603,102609
3.09538,78589
3.10472,60265
3.11405,54992
3.12340,51878
3.13273,52066
3.14207,54480
3.15142,54871
3.16075,62777
3.17008,66514
3.17943,61921
3.18877,54800
3.19810,51014
3.20745,50658
3.21678,50870
3.22613,50043
3.23547,50911
3.24480,50541
3.25415,50180
3.26348,52204
3.27282,51447
3.28217,48376
3.29150,47821
3.30083,52015
3.31018,53825
3.31952,51644
3.32885,49511
3.33820,49812
3.34753,48504
3.35687,47788
3.36622,49304
3.37555,45803
3.38488,45884
3.39423,45333
3.40357,45896
3.41292,49688
3.42225,57433
3.43158,56594
3.44093,58720
3.45027,61180
3.45960,63007
3.46895,60782
3.47828,57639
3.48762,56544
3.49697,57281
3.50630,54437
3.51563,52500
3.52498,51056
3.53432,48639
3.54365,55032
3.55300,106204
3.56233,253244
3.57168,425373
3.58102,421457
3.59035,277928
3.59970,152395
3.60903,96653
3.61837,75662
3.62772,63851
3.63705,67037
3.64638,67098
3.65573,62741
3.66507,63049
3.67440,63035
3.68375,65307
3.69308,62455
3.70242,54924
3.71177,52157
3.72110,55285
3.73043,55685
3.73978,54493
3.74912,50624
3.75847,51376
3.76780,50191
3.77713,49017
3.78648,46502
3.79582,47090
3.80515,67042
3.81450,126207
3.82383,184155
3.83317,175038
3.84252,115612
3.85185,75914
3.86118,61520
3.87053,51427
3.87987,49621
3.88920,49813
3.89855,55777
3.90788,59561
3.91722,61220
3.92657,64042
3.93590,64958
3.94525,72079
3.95458,92792
3.96392,112321
3.97327,101975
3.98260,79616
3.99193,64967
4.00128,55210
4.01062,49682
4.01995,49201
4.02930,50963
4.03863,63818
4.04797,81745
4.05732,91578
4.06665,78312
4.07598,71636
4.08533,78212
4.09467,89584
4.10400,88091
4.11335,75970
4.12268,62349
4.13203,56477
4.14137,51763
4.15070,52149
4.16005,51751
4.16938,51229
4.17872,49698
4.18807,47761
4.19740,45393
4.20673,48880
4.21608,53517
4.22542,51288
4.23475,49135
4.24410,47528
4.25343,47003
4.26277,43760
4.27212,48363
4.28145,52316
4.29078,54531
4.30013,57130
4.30947,53415
4.31882,51860
4.32815,55093
4.33748,56031
4.34683,57503
4.35617,53589
4.36550,49314
4.37485,46831
4.38418,47802
4.39352,53229
4.40287,56197
4.41220,52681
4.42153,46273
4.43088,44347
4.44022,42724
4.44955,43827
4.45890,43834
4.46823,46713
4.47758,52157
4.48692,57314
4.49625,56304
4.50560,51972
4.51493,47251
4.52427,46314
4.53362,47224
4.54295,46504
4.55228,47759
4.56163,46273
4.57097,48078
4.58030,45863
4.58965,45886
4.59898,43947
4.60832,42566
4.61767,42603
4.62700,41373
4.63633,41740
4.64568,44444
4.65502,46839
4.66437,48881
4.67370,54196
4.68303,53254
4.69238,52642
4.70172,51279
4.71105,49531
4.72040,48322
4.72973,42661
4.73907,46557
4.74842,59617
4.75775,59994
4.76708,57552
4.77643,54338
4.78577,49559
4.79510,47155
4.80445,46016
4.81378,47286
4.82312,45213
4.83247,47790
4.84180,47276
4.85115,47716
4.86048,50144
4.86982,57685
4.87917,69831
4.88850,72427
4.89783,64446
4.90718,57196
4.91652,55366
4.92585,51860
4.93520,48755
4.94453,47159
4.95387,48625
4.96322,45741
4.97255,42936
4.98188,42131
4.99123,42695
5.00057,47341
5.00990,48518
5.01925,47885
5.02858,48477
5.03793,49932
5.04727,50368
5.05660,49929
5.06595,48352
5.07528,50209
5.08462,49437
5.09397,52604
5.10330,50838
5.11263,49439
5.12198,47288
5.13132,46579
5.14065,47716
5.15000,49128
5.15933,50024
5.16867,48508
5.17802,45540
5.18735,44837
5.19670,46892
5.20603,51259
5.21537,50832
5.22472,50420
5.23405,45420
5.24338,47794
5.25273,49974
5.26207,47903
5.27140,61405
5.28075,105394
5.29008,180796
5.29942,214383
5.30877,167255
5.31810,110547
5.32743,79331
5.33678,67175
5.34612,58690
5.35545,51396
5.36480,51235
5.37413,48790
5.38348,52237
5.39282,58465
5.40215,62561
5.41150,62586
5.42083,57862
5.43017,50460
5.43952,47467
5.44885,44352
5.45818,44219
5.46753,44062
5.47687,43158
5.48620,44300
5.49555,44362
5.50488,45297
5.51422,46061
5.52357,53656
5.53290,65953
5.54223,66571
5.55158,64104
5.56092,56038
5.57027,51280
5.57960,45926
5.58893,44996
5.59828,43973
5.60762,43763
5.61695,44043
5.62630,44944
5.63563,43586
5.64497,43960
5.65432,43894
5.66365,44093
5.67298,45664
5.68233,45265
5.69167,44723
5.70100,47444
5.71035,49055
5.71968,48371
5.72902,49118
5.73837,47221
5.74770,56812
5.75705,65619
5.76638,65500
5.77572,55242
5.78507,51345
5.79440,51972
5.80373,53053
5.81308,51191
5.82242,48529
5.83175,46403
5.84110,44241
5.85043,42891
5.85977,38202
5.86912,33367
5.87845,31869
5.88778,31365
5.89713,32549
5.90647,40838
5.91580,66363
5.92515,114896
5.93448,143916
5.94383,117564
5.95317,86569
5.96250,72758
5.97185,60521
5.98118,44454
5.99052,32594
5.99987,25546
6.00920,22058
6.01853,20290
6.02788,21748
6.03722,19433
6.04655,20733
6.05590,22449
6.06523,23567
6.07457,22607
6.08392,21928
6.09325,17880
6.10260,17108
6.11193,18212
6.12127,19712
6.13062,24964
6.13995,26233
6.14928,25406
6.15863,22009
6.16797,19031
6.17730,17726
6.18665,17248
6.19598,17195
6.20532,16618
6.21467,16051
6.22400,17768
6.23333,20155
6.24268,21778
6.25202,20567
6.26135,17857
6.27070,16496
6.28003,19642
6.28938,25149
6.29872,25313
6.30805,20086
6.31740,16914
6.32673,14452
6.33607,14622
6.34542,14920
6.35475,16531
6.36408,14971
6.37343,16706
6.38277,19520
6.39210,27980
6.40145,54916
6.41078,139488
6.42012,249687
6.42947,238839
6.43880,134933
6.44813,55874
6.45748,29845
6.46682,24315
6.47617,22173
6.48550,21584
6.49483,21820
6.50418,19794
6.51352,20188
6.52285,19103
6.53220,19183
6.54153,17832
6.55087,17008
6.56022,16963
6.56955,15990
6.57888,17183
6.58823,18474
6.59757,18769
6.60690,20501
6.61625,19962
6.62558,19784
6.63492,20778
6.64427,20435
6.65360,20734
6.66295,20631
6.67228,23714
6.68162,23215
6.69097,21104
6.70030,20087
6.70963,20875
6.71898,21421
6.72832,22087
6.73765,21601
6.74700,22698
6.75633,19802
6.76567,17973
6.77502,18104
6.78435,19101
6.79368,23512
6.80303,32958
6.81237,36155
6.82172,28849
6.83105,21525
6.84038,18775
6.84973,18910
6.85907,18234
6.86840,20490
6.87775,19536
6.88708,20270
6.89642,19426
6.90577,18301
6.91510,20521
6.92443,19070
6.93378,19219
6.94312,17900
6.95245,18982
6.96180,19863
6.97113,20380
6.98047,20345
6.98982,20406
6.99915,19100
7.00850,17967
7.01783,18639
7.02717,18719
7.03652,18602
7.04585,15944
7.05518,13762
7.06453,14890
7.07387,14037
7.08320,14295
7.09255,15657
7.10188,18332
7.11122,21291
7.12057,22150
7.12990,22178
7.13923,21371
7.14858,19743
7.15792,17019
7.16725,16405
7.17660,15029
7.18593,15439
7.19528,17076
7.20462,16468
7.21395,17744
7.22330,20024
7.23263,31836
7.24197,59271
7.25132,76539
7.26065,64707
7.26998,39596
7.27933,25829
7.28867,23089
7.29800,22688
7.30735,20576
7.31668,19079
7.32602,17524
7.33537,16787
7.34470,16189
7.35403,15798
7.36338,15451
7.37272,15351
7.38207,18198
7.39140,28582
7.40073,61451
7.41008,112646
7.41942,141085
7.42875,118742
7.43810,73591
7.44743,42589
7.45677,23693
7.46612,18476
7.47545,16260
7.48478,20771
7.49413,26411
7.50347,29294
7.51280,25126
7.52215,21882
7.53148,16877
7.54082,16329
7.55017,16584
7.55950,18511
7.56885,23229
7.57818,23473
7.58752,22587
7.59687,20683
7.60620,18818
7.61553,20919
7.62488,21131
7.63422,20846
7.64355,21558
7.65290,20286
7.66223,18755
7.67157,17863
7.68092,18336
7.69025,17317
7.69958,17284
7.70893,16900
7.71827,18881
7.72762,20174
7.73695,20691
7.74628,20510
7.75563,19906
7.76497,19816
7.77430,21750
7.78365,22119
7.79298,21796
7.80232,23081
7.81167,21877
7.82100,19605
7.83033,17885
7.83968,17397
7.84902,20889
7.85835,33365
7.86770,60824
7.87703,85080
7.88637,81115
7.89572,56184
7.90505,43258
7.91440,49421
7.92373,68693
7.93307,74348
7.94242,55146
7.95175,36243
7.96108,26474
7.97043,32109
7.97977,42720
7.98910,57121
7.99845,58812
8.00778,45853
8.01712,34920
8.02647,28950
8.03580,30844
8.04513,38708
8.05448,44754
8.06382,36766
8.07315,26885
8.08250,21642
8.09183,24092
8.10118,31255
8.11052,37488
8.11985,33116
8.12920,26214
8.13853,21274
8.14787,21262
8.15722,19041
8.16655,18288
8.17588,19946
8.18523,19528
8.19457,19179
8.20390,19690
8.21325,20092
8.22258,20133
8.23192,18657
8.24127,19451
8.25060,20702
8.25993,21943
8.26928,23037
8.27862,22489
8.28797,21345
8.29730,19790
8.30663,19215
8.31598,17689
8.32532,20184
8.33465,18301
8.34400,18192
8.35333,19276
8.36267,18020
8.37202,17769
8.38135,18598
8.39068,18328
8.40003,21513
8.40937,25210
8.41870,28056
8.42805,26266
8.43738,26610
8.44673,25975
8.45607,25906
8.46540,24665
8.47475,26209
8.48408,26120
8.49342,24721
8.50277,25586
8.51210,22890
8.52143,23002
8.53078,21227
8.54012,22204
8.54945,23534
8.55880,25886
8.56813,26752
8.57747,25304
8.58682,28531
8.59615,30831
8.60548,32644
8.61483,34018
8.62417,29863
8.63352,28902
8.64285,28024
8.65218,26687
8.66153,24608
8.67087,26143
8.68020,25475
8.68955,24052
8.69888,25633
8.70822,24343
8.71757,23541
8.72690,23613
8.73623,23400
8.74558,26798
8.75492,37609
8.76425,39591
8.77360,37613
8.78293,30114
8.79227,29766
8.80162,52315
8.81095,96017
8.82030,120129
8.82963,100414
8.83897,59632
8.84832,33820
8.85765,28146
8.86698,26252
8.87633,27828
8.88567,27909
8.89500,27622
8.90435,25781
8.91368,25554
8.92302,26604
8.93237,28679
8.94170,27411
8.95103,25160
8.96038,22114
8.96972,21781
8.97905,21305
8.98840,22007
8.99773,20883
9.00708,24319
9.01642,26301
9.02575,24585
9.03510,25217
9.04443,23778
9.05377,24003
9.06312,25912
9.07245,28999
9.08178,33952
9.09113,39141
9.10047,41030
9.10980,35471
9.11915,31503
9.12848,39723
9.13782,59759
9.14717,68641
9.15650,54997
9.16583,36078
9.17518,25037
9.18452,22911
9.19387,23086
9.20320,25672
9.21253,27516
9.22188,32783
9.23122,48068
9.24055,68578
9.24990,68460
9.25923,46097
9.26857,31130
9.27792,26925
9.28725,24436
9.29658,23921
9.30593,23526
9.31527,24599
9.32460,33251
9.33395,50711
9.34328,58062
9.35262,50105
9.36197,70244
9.37130,150877
9.38065,249929
9.38998,246885
9.39932,167861
9.40867,94745
9.41800,63095
9.42733,49857
9.43668,43461
9.44602,37199
9.45535,30898
9.46470,28387
9.47403,26095
9.48337,24616
9.49272,28132
9.50205,33383
9.51138,31005
9.52073,27074
9.53007,25599
9.53942,28713
9.54875,35037
9.55808,44498
9.56743,63319
9.57677,66034
9.58610,52374
9.59545,39214
9.60478,38083
9.61412,42053
9.62347,34679
9.63280,28668
9.64213,25632
9.65148,28301
9.66082,27730
9.67015,30010
9.67950,26731
9.68883,26030
9.69817,24812
9.70752,22922
9.71685,28604
9.72620,71378
9.73553,276963
9.74487,732096
9.75422,1051500
9.76355,873234
9.77288,465491
9.78223,218090
9.79157,128107
9.80090,93520
9.81025,78845
9.81958,67889
9.82892,70086
9.83827,84287
9.84760,93220
9.85693,98044
9.86628,76820
9.87562,64453
9.88495,74567
9.89430,105548
9.90363,112909
9.91298,107786
9.92232,121596
9.93165,137259
9.94100,113595
9.95033,75519
9.95967,49125
9.96902,40783
9.97835,54392
9.98768,90579
9.99703,130262
10.00637,125635
10.01570,87032
10.02505,58629
10.03438,44036
10.04372,37149
10.05307,37271
10.06240,39773
10.07173,47780
10.08108,53699
10.09042,52975
10.09977,41998
10.10910,43454
10.11843,84672
10.12778,197711
10.13712,304034
10.14645,345120
10.15580,690860
10.16513,1753545
10.17447,2731335
10.18382,2037680
10.19315,768594
10.20248,161285
10.21183,50088
10.22117,37682
10.23050,37390
10.23985,45355
10.24918,62344
10.25853,61760
10.26787,49317
10.27720,35153
10.28655,33255
10.29588,32901
10.30522,33080
10.31457,30263
10.32390,29787
10.33323,29265
10.34258,26614
10.35192,25381
10.36125,26490
10.37060,27871
10.37993,26518
10.38927,25067
10.39862,24293
10.40795,24985
10.41728,23098
10.42663,24740
10.43597,26184
10.44532,26467
10.45465,29422
10.46398,32885
10.47333,32356
10.48267,28723
10.49200,26531
10.50135,23925
10.51068,22608
10.52002,23218
10.52937,22751
10.53870,23764
10.54803,27041
10.55738,26610
10.56672,27007
10.57605,26791
10.58540,26945
10.59473,25964
10.60407,26223
10.61342,25716
10.62275,25522
10.63210,27868
10.64143,30289
10.65077,28253
10.66012,26527
10.66945,28610
10.67878,31956
10.68813,32586
10.69747,31521
10.70680,35903
10.71615,49188
10.72548,60347
10.73482,57455
10.74417,40485
10.75350,34900
10.76283,45835
10.77218,62007
10.78152,74596
10.79085,110436
10.80020,253904
10.80953,468983
10.81888,494018
10.82822,287635
10.83755,112244
10.84690,49709
10.85623,32717
10.86557,31333
10.87492,30859
10.88425,36540
10.89358,41551
10.90293,42306
10.91227,34244
10.92160,30984
10.93095,32572
10.94028,33024
10.94962,30867
10.95897,28403
10.96830,27776
10.97763,28337
10.98698,26919
10.99632,24225
11.00567,24755
11.01500,24027
11.02433,24407
11.03368,24131
11.04302,23790
11.05235,24015
11.06170,23707
11.07103,24356
11.08037,25783
11.08972,26086
11.09905,25975
11.10838,33290
11.11773,40868
11.12707,44769
11.13640,38580
11.14575,30831
11.15508,27689
11.16443,26175
11.17377,25856
11.18310,26562
11.19245,24065
11.20178,23700
11.21112,24492
11.22047,23445
11.22980,25758
11.23913,25344
11.24848,24434
11.25782,25651
11.26715,26706
11.27650,27185
11.28583,26515
11.29517,25958
11.30452,24582
11.31385,25041
11.32318,23148
11.33253,25430
11.34187,29025
11.35122,35163
11.36055,42889
11.36988,42396
11.37923,38393
11.38857,33722
11.39790,34264
11.40725,46240
11.41658,65883
11.42592,73315
11.43527,57814
11.44460,39927
11.45393,29610
11.46328,29734
11.47262,39417
11.48195,44063
11.49130,37836
11.50063,28769
11.50997,24556
11.51932,23954
11.52865,23403
11.53800,22977
11.54733,24383
11.55667,27601
11.56602,49732
11.57535,102515
11.58468,158322
11.59403,151384
11.60337,106167
11.61270,70724
11.62205,52266
11.63138,46493
11.64072,41029
11.65007,39270
11.65940,34923
11.66873,36079
11.67808,34250
11.68742,34177
11.69675,29980
11.70610,29532
11.71543,29735
11.72478,29835
11.73412,29536
11.74345,27220
11.75280,27582
11.76213,28651
11.77147,28176
11.78082,30805
11.79015,33022
11.79948,35027
11.80883,31286
11.81817,28358
11.82750,28600
11.83685,29249
11.84618,30455
11.85552,31114
11.86487,29576
11.87420,31975
11.88355,33685
11.89288,34142
11.90222,32875
11.91157,26667
11.92090,27138
11.93023,27540
11.93958,29999
11.94892,40203
11.95825,43773
11.96760,39798
11.97693,32502
11.98627,28007
11.99562,27444
12.00495,33981
12.01428,44851
12.02363,55207
12.03297,49297
12.04230,40248
12.05165,32592
12.06098,31706
12.07033,28152
12.07967,26152
12.08900,25893
12.09835,28446
12.10768,28469
12.11702,28137
12.12637,25881
12.13570,27578
12.14503,29280
12.15438,28585
12.16372,33755
12.17305,50764
12.18240,79437
12.19173,82698
12.20107,59334
12.21042,40797
12.21975,34553
12.22908,35689
12.23843,38924
12.24777,36010
12.25712,34734
12.26645,42947
12.27578,84858
12.28513,156104
12.29447,179599
12.30380,117365
12.31315,57780
12.32248,38916
12.33182,32732
12.34117,35288
12.35050,33163
12.35983,30649
12.36918,28881
12.37852,28687
12.38785,29429
12.39720,30906
12.40653,31606
12.41587,31030
12.42522,32731
12.43455,32300
12.44390,30680
12.45323,29987
12.46257,32065
12.47192,33459
12.48125,37036
12.49058,36831
12.49993,38404
12.50927,36889
12.51860,38766
12.52795,37683
12.53728,39957
12.54662,35406
12.55597,34369
12.56530,40146
12.57463,43533
12.58398,43619
12.59332,35937
12.60265,32921
12.61200,31519
12.62133,31382
12.63068,34880
12.64002,41509
12.64935,46658
12.65870,49299
12.66803,45048
12.67737,39287
12.68672,33532
12.69605,28254
12.70538,28698
12.71473,30415
12.72407,34203
12.73340,35171
12.74275,35248
12.75208,37261
12.76142,38473
12.77077,36527
12.78010,33245
12.78943,31641
12.79878,31632
12.80812,31826
12.81747,30779
12.82680,31059
12.83613,34561
12.84548,33207
12.85482,30440
12.86415,28611
12.87350,28249
12.88283,27691
12.89217,29462
12.90152,31943
12.91085,30097
12.92018,27663
12.92953,27584
12.93887,28764
12.94820,30285
12.95755,31003
12.96688,30590
12.97623,29033
12.98557,27195
12.99490,25339
13.00425,25707
13.01358,28318
13.02292,30596
13.03227,35864
13.04160,42965
13.05093,40968
13.06028,33790
13.06962,29160
13.07895,29205
13.08830,32936
13.09763,31530
13.10697,31195
13.11632,30451
13.12565,29892
13.13498,33676
13.14433,36740
13.15367,37234
13.16302,35914
13.17235,37166
13.18168,42202
13.19103,50015
13.20037,97345
13.20970,242960
13.21905,418688
13.22838,411558
13.23772,229750
13.24707,115285
13.25640,91279
13.26573,77669
13.27508,53547
13.28442,40851
13.29375,34818
13.30310,34133
13.31243,34534
13.32177,38343
13.33112,41751
13.34045,41378
13.34980,39192
13.35913,41392
13.36847,37965
13.37782,34505
13.38715,32302
13.39648,36047
13.40583,41733
13.41517,39860
13.42450,33479
13.43385,31416
13.44318,37348
13.45252,41299
13.46187,37949
13.47120,35194
13.48053,35144
13.48988,36637
13.49922,32775
13.50857,33612
13.51790,45059
13.52723,80507
13.53658,114411
13.54592,102711
13.55525,62644
13.56460,41845
13.57393,32825
13.58327,30468
13.59262,27995
13.60195,26461
13.61128,25861
13.62063,25468
13.62997,26210
13.63930,28419
13.64865,37629
13.65798,43726
13.66732,41611
13.67667,35619
13.68600,29777
13.69535,27951
13.70468,27109
13.71402,26491
13.72337,24991
13.73270,24922
13.74203,23896
13.75138,24705
13.76072,27700
13.77005,30516
13.77940,29665
13.78873,28484
13.79807,31074
13.80742,36548
13.81675,39269
13.82608,36449
13.83543,29913
13.84477,27621
13.85410,25956
13.86345,29238
13.87278,30596
13.88213,33124
13.89147,44356
13.90080,69640
13.91015,125242
13.91948,222866
13.92882,272103
13.93817,203357
13.94750,96860
13.95683,48602
13.96618,41401
13.97552,38422
13.98485,35593
13.99420,34294
14.00353,36878
14.01287,34221
14.02222,31546
14.03155,28867
14.04088,40990
14.05023,178063
14.05957,1077422
14.06892,3616257
14.07825,6291599
14.08758,5697193
14.09693,2530669
14.10627,515876
14.11560,91579
14.12495,46022
14.13428,41518
14.14362,39953
14.15297,39509
14.16230,42705
14.17163,42947
14.18098,47435
14.19032,59306
14.19965,85613
14.20900,93067
14.21833,68650
14.22767,42363
14.23702,31134
14.24635,27204
14.25570,27353
14.26503,28447
14.27437,27851
14.28372,28473
14.29305,27123
14.30238,25258
14.31173,27613
14.32107,32320
14.33040,41688
14.33975,47650
14.34908,44884
14.35842,38619
14.36777,32446
14.37710,27999
14.38643,26028
14.39578,26721
14.40512,28318
14.41445,26064
14.42380,25607
14.43313,25340
14.44248,26022
14.45182,27826
14.46115,31994
14.47050,40025
14.47983,43747
14.48917,40339
14.49852,30963
14.50785,27047
14.51718,25287
14.52653,23559
14.53587,24266
14.54520,24985
14.55455,25055
14.56388,27687
14.57322,30081
14.58257,28194
14.59190,27556
14.60125,25488
14.61058,22827
14.61992,26005
14.62927,25946
14.63860,29981
14.64793,38857
14.65728,54260
14.66662,60422
14.67595,55219
14.68530,43696
14.69463,35383
14.70397,31150
14.71332,30995
14.72265,29444
14.73198,29042
14.74133,28811
14.75067,30239
14.76000,28138
14.76935,29092
14.77868,30727
14.78803,34367
14.79737,34221
14.80670,30152
14.81605,28515
14.82538,28646
14.83472,31563
14.84407,28323
14.85340,27399
14.86273,30690
14.87208,37106
14.88142,41768
14.89075,39490
14.90010,32550
14.90943,26789
14.91877,28638
14.92812,27190
14.93745,27868
14.94678,27744
14.95613,27875
14.96547,28612
14.97482,30333
14.98415,29878
14.99348,29151
15.00283,29992
15.01217,34767
15.02150,35886
15.03085,34143
15.04018,30482
15.04952,31817
15.05887,34242
15.06820,32757
15.07753,32773
15.08688,30560
15.09622,28515
15.10555,25911
15.11490,26674
15.12423,28991
15.13357,35671
15.14292,37603
15.15225,32975
15.16160,28721
15.17093,26195
15.18027,26443
15.18962,25727
15.19895,31870
15.20828,44981
15.21763,65426
15.22697,76996
15.23630,63405
15.24565,49514
15.25498,38121
15.26432,31685
15.27367,30242
15.28300,31141
15.29233,31053
15.30168,29806
15.31102,26369
15.32037,27641
15.32970,30894
15.33903,36701
15.34838,34353
15.35772,33327
15.36705,33710
15.37640,41097
15.38573,41760
15.39507,35535
15.40442,28580
15.41375,26248
15.42308,26532
15.43243,29297
15.44177,29923
15.45110,28272
15.46045,26656
15.46978,26193
15.47912,27055
15.48847,27636
15.49780,29990
15.50715,34567
15.51648,45329
15.52582,57358
15.53517,56365
15.54450,44544
15.55383,35483
15.56318,29397
15.57252,26818
15.58185,27800
15.59120,27374
15.60053,28203
15.60987,29143
15.61922,28995
15.62855,31403
15.63788,32683
15.64723,35000
15.65657,34935
15.66590,39749
15.67525,39249
15.68458,33726
15.69393,34421
15.70327,41223
15.71260,47732
15.72195,46992
15.73128,37910
15.74062,32081
15.74997,33088
15.75930,39302
15.76863,41388
15.77798,40829
15.78732,35090
15.79665,31726
15.80600,31815
15.81533,43512
15.82467,78117
15.83402,139661
15.84335,196832
15.85268,217869
15.86203,162665
15.87137,83360
15.88072,53991
15.89005,52173
15.89938,58045
15.90873,60528
15.91807,55473
15.92740,44121
15.93675,36701
15.94608,33298
15.95542,31649
15.96477,30782
15.97410,35875
15.98343,43888
15.99278,54001
16.00212,57797
16.01145,51453
16.02080,40790
16.03013,33867
16.03947,32132
16.04882,34017
16.05815,36791
16.06750,34946
16.07683,33577
16.08617,30979
16.09552,30037
16.10485,31321
16.11418,33347
16.12353,38695
16.13287,40672
16.14220,37672
16.15155,32285
16.16088,31924
16.17022,31996
16.17957,31930
16.18890,30505
16.19823,30780
16.20758,33994
16.21692,38991
16.22627,41575
16.23560,38272
16.24493,39355
16.25428,35397
16.26362,38176
16.27295,44927
16.28230,74544
16.29163,170760
16.30097,316645
16.31032,363710
16.31965,235700
16.32898,108239
16.33833,51882
16.34767,35450
16.35700,30524
16.36635,26789
16.37568,27545
16.38502,24803
16.39437,28417
16.40370,29167
16.41305,29717
16.42238,30526
16.43172,30888
16.44107,31419
16.45040,31992
16.45973,41713
16.46908,41162
16.47842,37700
16.48775,30935
16.49710,30620
16.50643,31452
16.51577,33143
16.52512,39481
16.53445,35426
16.54378,32360
16.55313,31475
16.56247,30252
16.57180,29646
16.58115,31797
16.59048,35035
16.59983,34441
16.60917,32108
16.61850,33789
16.62785,37491
16.63718,42017
16.64652,44542
16.65587,41511
16.66520,37022
16.67453,35092
16.68388,32692
16.69322,36939
16.70255,42876
16.71190,42971
16.72123,39953
16.73057,31957
16.73992,37916
16.74925,64949
16.75858,94715
16.76793,85020
16.77727,53170
16.78662,34430
16.79595,30669
16.80528,30076
16.81463,32739
16.82397,36929
16.83330,42632
16.84265,47136
16.85198,46208
16.86132,42495
16.87067,38500
16.88000,34330
16.88933,33287
16.89868,35083
16.90802,39303
16.91735,50726
16.92670,55452
16.93603,52206
16.94537,44022
16.95472,44403
16.96405,49436
16.97340,47327
16.98273,44572
16.99207,38001
17.00142,33040
17.01075,31619
17.02008,34702
17.02943,50662
17.03877,77034
17.04810,82786
17.05745,61738
17.06678,42237
17.07612,36911
17.08547,34324
17.09480,33948
17.10413,34810
17.11348,31860
17.12282,31068
17.13217,35039
17.14150,38452
17.15083,39218
17.16018,33975
17.16952,30351
17.17885,33215
17.18820,37695
17.19753,41101
17.20687,37445
17.21622,32230
17.22555,31006
17.23488,28639
17.24423,29570
17.25357,30966
17.26290,31596
17.27225,33062
17.28158,39586
17.29092,43909
17.30027,46421
17.30960,39722
17.31895,39464
17.32828,42121
17.33762,41669
17.34697,36551
17.35630,30678
17.36563,32449
17.37498,45879
17.38432,89818
17.39365,144822
17.40300,140775
17.41233,83835
17.42167,46041
17.43102,36237
17.44035,32890
17.44968,36906
17.45903,35841
17.46837,36180
17.47770,34093
17.48705,46085
17.49638,149739
17.50573,638268
17.51507,1657717
17.52440,2168655
17.53375,1426661
17.54308,490265
17.55242,108751
17.56177,46800
17.57110,41113
17.58043,44771
17.58978,49169
17.59912,46437
17.60845,41090
17.61780,36381
17.62713,32033
17.63647,35576
17.64582,34137
17.65515,36418
17.66448,39916
17.67383,48951
17.68317,52331
17.69252,57293
17.70185,59623
17.71118,58859
17.72053,56349
17.72987,57949
17.73920,46720
17.74855,44517
17.75788,43775
17.76722,47455
17.77657,50955
17.78590,46594
17.79523,43890
17.80458,42131
17.81392,39991
17.82325,36117
17.83260,32197
17.84193,33058
17.85127,38123
17.86062,50646
17.86995,57919
17.87930,59198
17.88863,51710
17.89797,46577
17.90732,39934
17.91665,34870
17.92598,33177
17.93533,33642
17.94467,33967
17.95400,33588
17.96335,32859
17.97268,30775
17.98202,31046
17.99137,31345
18.00070,30168
18.01003,32578
18.01938,33524
18.02872,32118
18.03807,32724
18.04740,34547
18.05673,37617
18.06608,35321
18.07542,33096
18.08475,29613
18.09410,30524
18.10343,29789
18.11277,32482
18.12212,34813
18.13145,36243
18.14078,37265
18.15013,37417
18.15947,37600
18.16880,36963
18.17815,37157
18.18748,35341
18.19682,32976
18.20617,33261
18.21550,33073
18.22485,33245
18.23418,33288
18.24352,32181
18.25287,30571
18.26220,29884
18.27153,32767
18.28088,35824
18.29022,39540
18.29955,43672
18.30890,45617
18.31823,45577
18.32757,44940
18.33692,46451
18.34625,51116
18.35558,54342
18.36493,59540
18.37427,57450
18.38360,52058
18.39295,52260
18.40228,58009
18.41163,70527
18.42097,69912
18.43030,53639
18.43965,44427
18.44898,47552
18.45832,48632
18.46767,44914
18.47700,41797
18.48633,44200
18.49568,55060
18.50502,70789
18.51435,81399
18.52370,80518
18.53303,66856
18.54237,53730
18.55172,52971
18.56105,53570
18.57038,49935
18.57973,42307
18.58907,37937
18.59842,39457
18.60775,41393
18.61708,45517
18.62643,48500
18.63577,45303
18.64510,44485
18.65445,45245
18.66378,50177
18.67312,58275
18.68247,61806
18.69180,63178
18.70113,59702
18.71048,58420
18.71982,62177
18.72915,59887
18.73850,58124
18.74783,55104
18.75718,55197
18.76652,49909
18.77585,41677
18.78520,36385
18.79453,35792
18.80387,36066
18.81322,37372
18.82255,37252
18.83188,40069
18.84123,36686
18.85057,36558
18.85990,33813
18.86925,34272
18.87858,32811
18.88792,33863
18.89727,34017
18.90660,39155
18.91593,51545
18.92528,57836
18.93462,54289
18.94397,49015
18.95330,52801
18.96263,58941
18.97198,59711
18.98132,55267
18.99065,50066
19.00000,42629
19.00933,40888
19.01867,40200
19.02802,37836
19.03735,43308
19.04668,56739
19.05603,88046
19.06537,120826
19.07470,153236
19.08405,208455
19.09338,239858
19.10272,189103
19.11207,113570
19.12140,61858
19.13075,43770
19.14008,38845
19.14942,34873
19.15877,35127
19.16810,33229
19.17743,33483
19.18678,37147
19.19612,45208
19.20545,49383
19.21480,50800
19.22413,50021
19.23347,49434
19.24282,48764
19.25215,44058
19.26148,39475
19.27083,37967
19.28017,43553
19.28950,49098
19.29885,52714
19.30818,58779
19.31753,69837
19.32687,74654
19.33620,63540
19.34555,54696
19.35488,46241
19.36422,39319
19.37357,36596
19.38290,37825
19.39223,40714
19.40158,48501
19.41092,56397
19.42025,55138
19.42960,45666
19.43893,38370
19.44827,36030
19.45762,34956
19.46695,38981
19.47628,41908
19.48563,44432
19.49497,48482
19.50432,46626
19.51365,43734
19.52298,39984
19.53233,41564
19.54167,41384
19.55100,38132
19.56035,37227
19.56968,39597
19.57902,44847
19.58837,49039
19.59770,47933
19.60703,47109
19.61638,46268
19.62572,47161
19.63505,53724
19.64440,55268
19.65373,53981
19.66307,47462
19.67242,41638
19.68175,41512
19.69110,42117
19.70043,40601
19.70977,42067
19.71912,49611
19.72845,62766
19.73778,81379
19.74713,82127
19.75647,63849
19.76580,52270
19.77515,52428
19.78448,56200
19.79382,60040
19.80317,58785
19.81250,51146
19.82183,49789
19.83118,48936
19.84052,45437
19.84987,42119
19.85920,40666
19.86853,47872
19.87788,61303
19.88722,76001
19.89655,73013
19.90590,58537
19.91523,49890
19.92457,48793
19.93392,47036
19.94325,43447
19.95258,43418
19.96193,45322
19.97127,50056
19.98060,48489
19.98995,43742
19.99928,40759
20.00862,38473
20.01797,41032
20.02730,44522
20.03665,54101
20.04598,58196
20.05532,62901
20.06467,54585
20.07400,50742
20.08333,48117
20.09268,48127
20.10202,44415
20.11135,39020
20.12070,38877
20.13003,35741
20.13937,38414
20.14872,47764
20.15805,61520
20.16738,66625
20.17673,58922
20.18607,47708
20.19540,40889
20.20475,37587
20.21408,41253
20.22343,42268
20.23277,47329
20.24210,61872
20.25145,81687
20.26078,93739
20.27012,76065
20.27947,52408
20.28880,44486
20.29813,41135
20.30748,38358
20.31682,39478
20.32615,36549
20.33550,36410
20.34483,36062
20.35417,38675
20.36352,40158
20.37285,39615
20.38218,42600
20.39153,38997
20.40087,38679
20.41022,37374
20.41955,38062
20.42888,40265
20.43823,42135
20.44757,43429
20.45690,43578
20.46625,45739
20.47558,50871
20.48492,53741
20.49427,50738
20.50360,43939
20.51293,40190
20.52228,38038
20.53162,38919
20.54095,40425
20.55030,44585
20.55963,52680
20.56898,88697
20.57832,176726
20.58765,244498
20.59700,194914
20.60633,108805
20.61567,69833
20.62502,80676
20.63435,171683
20.64368,409357
20.65303,610626
20.66237,530548
20.67170,304078
20.68105,156647
20.69038,105694
20.69972,84968
20.70907,76277
20.71840,70140
20.72773,67597
20.73708,61735
20.74642,59501
20.75577,56635
20.76510,54242
20.77443,50905
20.78378,49499
20.79312,55063
20.80245,58660
20.81180,62811
20.82113,59428
20.83047,52100
20.83982,44696
20.84915,43626
20.85848,42664
20.86783,41979
20.87717,40706
20.88650,40216
20.89585,44256
20.90518,46887
20.91452,45151
20.92387,42286
20.93320,41541
20.94255,40317
20.95188,38189
20.96122,40047
20.97057,41853
20.97990,41936
20.98923,39431
20.99858,40720
21.00792,41612
21.01725,43141
21.02660,40914
21.03593,40806
21.04527,39495
21.05462,41938
21.06395,41534
21.07328,43150
21.08263,42896
21.09197,41921
21.10130,44802
21.11065,48636
21.11998,49164
21.12933,47412
21.13867,44895
21.14800,40785
21.15735,42288
21.16668,45529
21.17602,55332
21.18537,75915
21.19470,89048
21.20403,83494
21.21338,65820
21.22272,56446
21.23205,57866
21.24140,54578
21.25073,49828
21.26007,50154
21.26942,53980
21.27875,61718
21.28808,66216
21.29743,65556
21.30677,60345
21.31612,56619
21.32545,52126
21.33478,50817
21.34413,48997
21.35347,45256
21.36280,46212
21.37215,43734
21.38148,42809
21.39082,44960
21.40017,47288
21.40950,48926
21.41883,52970
21.42818,53289
21.43752,52619
21.44685,48270
21.45620,47965
21.46553,46860
21.47488,47913
21.48422,52728
21.49355,55537
21.50290,52737
21.51223,48504
21.52157,47934
21.53092,48175
21.54025,44661
21.54958,44832
21.55893,50702
21.56827,69970
21.57760,98424
21.58695,105220
21.59628,88512
21.60562,66429
21.61497,55984
21.62430,50799
21.63363,49125
21.64298,49449
21.65232,47803
21.66167,45855
21.67100,47944
21.68033,56262
21.68968,62533
21.69902,67697
21.70835,60447
21.71770,60581
21.72703,56280
21.73637,52782
21.74572,50725
21.75505,46957
21.76438,42086
21.77373,41602
21.78307,41058
21.79240,43408
21.80175,59294
21.81108,50220
21.82042,51630
21.82977,58649
21.83910,56385
21.84845,52209
21.85778,46928
21.86712,45735
21.87647,50246
21.88580,54799
21.89513,59792
21.90448,58343
21.91382,57734
21.92315,49186
21.93250,48963
21.94183,45102
21.95117,47583
21.96052,52156
21.96985,56429
21.97918,64426
21.98853,82126
21.99787,93415
22.00720,90348
22.01655,72372
22.02588,57586
22.03523,54995
22.04457,59482
22.05390,63319
22.06325,62587
22.07258,58931
22.08192,60867
22.09127,60178
22.10060,59454
22.10993,58414
22.11928,55103
22.12862,54617
22.13795,53142
22.14730,54087
22.15663,60329
22.16597,71336
22.17532,82130
22.18465,82767
22.19400,72978
22.20333,61949
22.21267,56836
22.22202,60323
22.23135,62393
22.24068,65727
22.25003,62307
22.25937,56819
22.26870,55464
22.27805,59891
22.28738,66100
22.29672,71429
22.30607,70963
22.31540,64186
22.32473,55227
22.33408,51637
22.34342,50693
22.35275,54162
22.36210,57465
22.37143,59859
22.38078,59408
22.39012,57581
22.39945,52754
22.40880,49233
22.41813,47129
22.42747,46767
22.43682,50314
22.44615,49786
22.45548,52314
22.46483,55116
22.47417,53836
22.48350,51822
22.49285,50246
22.50218,52726
22.51152,63599
22.52087,75579
22.53020,71166
22.53953,58478
22.54888,50151
22.55822,46508
22.56757,50571
22.57690,54967
22.58623,60795
22.59558,64775
22.60492,68184
22.61425,70466
22.62360,69112
22.63293,63617
22.64227,59179
22.65162,53715
22.66095,49573
22.67028,47018
22.67963,50154
22.68897,56905
22.69830,56043
22.70765,59161
22.71698,53888
22.72632,54747
22.73567,59245
22.74500,60404
22.75435,66172
22.76368,67588
22.77302,64285
22.78237,62114
22.79170,58482
22.80103,57989
22.81038,56230
22.81972,57370
22.82905,57115
22.83840,56166
22.84773,54033
22.85707,54091
22.86642,52261
22.87575,50348
22.88508,52131
22.89443,49416
22.90377,50432
22.91310,51091
22.92245,54307
22.93178,54635
22.94113,52857
22.95047,50798
22.95980,53538
22.96915,52902
22.97848,50681
22.98782,46972
22.99717,44290
23.00650,45322
23.01583,43189
23.02518,42697
23.03452,44079
23.04385,45850
23.05320,44579
23.06253,46467
23.07187,46691
23.08122,45456
23.09055,44770
23.09988,46201
23.10923,45110
23.11857,44247
23.12792,44795
23.13725,43666
23.14658,44129
23.15593,45634
23.16527,44075
23.17460,43961
23.18395,43987
23.19328,44703
23.20262,44295
23.21197,41311
23.22130,42608
23.23063,42531
23.23998,46481
23.24932,49334
23.25865,53277
23.26800,55863
23.27733,56750
23.28668,52035
23.29602,51007
23.30535,47752
23.31470,46492
23.32403,50134
23.33337,58712
23.34272,70638
23.35205,68825
23.36138,58095
23.37073,50711
23.38007,48443
23.38940,47851
23.39875,48803
23.40808,49716
23.41742,47226
23.42677,47992
23.43610,49463
23.44543,49888
23.45478,50595
23.46412,49576
23.47347,48150
23.48280,45040
23.49213,46673
23.50148,45565
23.51082,46144
23.52015,45193
23.52950,47573
23.53883,50800
23.54817,48759
23.55752,46288
23.56685,44230
23.57618,45654
23.58553,46121
23.59487,48271
23.60420,47561
23.61355,47502
23.62288,43207
23.63222,42324
23.64157,41760
23.65090,41876
23.66025,41918
23.66958,42596
23.67892,44096
23.68827,46450
23.69760,46229
23.70693,50819
23.71628,50687
23.72562,51423
23.73495,55320
23.74430,55986
23.75363,52167
23.76297,47890
23.77232,45126
23.78165,45280
23.79098,44944
23.80033,43991
23.80967,41879
23.81900,43454
23.82835,44494
23.83768,42975
23.84703,42958
23.85637,41595
23.86570,43174
23.87505,45654
23.88438,44576
23.89372,45234
23.90307,45019
23.91240,45512
23.92173,46660
23.93108,45339
23.94042,46058
23.94975,45628
23.95910,46981
23.96843,46441
23.97777,42892
23.98712,42883
23.99645,44612
24.00580,45989
24.01513,45138
24.02447,46419
24.03382,45634
24.04315,43462
24.05248,42398
24.06183,43045
24.07117,42850
24.08050,42886
24.08985,44474
24.09918,45445
24.10852,44287
24.11787,42902
24.12720,42800
24.13653,43486
24.14588,43527
24.15522,44120
24.16455,43194
24.17390,42568
24.18323,41906
24.19258,43695
24.20192,41614
24.21125,43166
24.22060,42667
24.22993,44986
24.23927,43855
24.24862,45180
24.25795,44482
24.26728,44782
24.27663,43805
24.28597,44184
24.29530,44027
24.30465,44976
24.31398,46291
24.32332,47738
24.33267,51404
24.34200,51433
24.35133,48322
24.36068,46382
24.37002,44571
24.37937,44743
24.38870,46941
24.39803,48231
24.40738,49932
24.41672,47875
24.42605,47996
24.43540,46549
24.44473,45040
24.45407,43654
24.46342,45795
24.47275,45963
24.48208,46463
24.49143,47113
24.50077,45157
24.51010,46655
24.51945,46889
24.52878,47004
24.53812,48715
24.54747,48484
24.55680,53145
24.56615,51871
24.57548,50755
24.58482,49148
24.59417,47842
24.60350,46664
24.61283,50083
24.62218,50349
24.63152,52892
24.64085,50532
24.65020,45417
24.65953,45668
24.66887,49127
24.67822,50044
24.68755,48109
24.69688,51411
24.70623,47553
24.71557,50498
24.72490,49801
24.73425,49795
24.74358,46785
24.75293,47907
24.76227,47272
24.77160,46863
24.78095,47613
24.79028,48047
24.79962,47260
24.80897,49325
24.81830,49190
24.82763,50432
24.83698,50039
24.84632,48379
24.85565,48950
24.86500,48997
24.87433,51518
24.88367,51348
24.89302,51846
24.90235,50248
24.91170,50472
24.92103,51757
24.93037,51364
24.93972,49647
24.94905,50353
24.95838,54111
24.96773,52995
24.97707,53176
24.98640,53099
24.99575,52805
25.00508,50197
25.01442,49839
25.02377,49393
25.03310,47635
25.04243,49318
25.05178,49600
25.06112,49863
25.07045,51226
25.07980,50344
25.08913,47353
25.09848,51518
25.10782,50917
25.11715,51020
25.12650,52608
25.13583,52583
25.14517,56202
25.15452,54606
25.16385,57390
25.17318,54352
25.18253,54761
25.19187,51236
25.20120,50873
25.21055,53234
25.21988,53859
25.22922,51443
25.23857,52473
25.24790,51120
25.25723,52715
25.26658,54982
25.27592,51965
25.28527,53012
25.29460,53422
25.30393,53201
25.31328,56503
25.32262,66127
25.33195,85988
25.34130,94481
25.35063,83862
25.35997,74593
25.36932,65559
25.37865,63842
25.38798,60040
25.39733,58368
25.40667,59652
25.41600,57022
25.42535,58054
25.43468,58843
25.44402,57984
25.45337,56810
25.46270,58530
25.47205,59673
25.48138,62737
25.49072,69766
25.50007,69433
25.50940,69516
25.51873,66700
25.52808,66119
25.53742,65758
25.54675,62994
25.55610,63357
25.56543,63263
25.57477,61707
25.58412,61496
25.59345,59075
25.60278,59727
25.61213,58351
25.62147,60427
25.63082,57415
25.64015,60885
25.64948,61031
25.65883,63838
25.66817,65663
25.67750,62682
25.68685,60110
25.69618,59613
25.70552,57515
25.71487,59208
25.72420,58181
25.73353,60874
25.74288,60517
25.75222,63026
25.76155,61996
25.77090,63833
25.78023,62691
25.78957,64533
25.79892,64562
25.80825,67957
25.81760,69181
25.82693,66630
25.83627,68781
25.84562,65940
25.85495,64848
25.86428,66071
25.87363,61687
25.88297,62353
25.89230,58871
25.90165,60248
25.91098,59470
25.92032,59131
25.92967,60644
25.93900,60936
25.94833,63134
25.95768,66404
25.96702,64765
25.97635,63596
25.98570,63921
25.99503,62577
26.00438,61384
26.01372,64308
26.02305,62122
26.03240,66726
26.04173,65417
26.05107,64213
26.06042,67236
26.06975,65492
26.07908,63305
26.08843,63966
26.09777,62676
26.10710,65342
26.11645,63308
26.12578,70542
26.13512,86090
26.14447,112000
26.15380,124043
26.16313,113462
26.17248,99419
26.18182,87418
26.19117,78681
26.20050,76011
26.20983,72647
26.21918,71883
26.22852,70374
26.23785,69785
26.24720,67433
26.25653,65175
26.26587,65807
26.27522,67101
26.28455,68181
26.29388,69348
26.30323,68102
26.31257,71248
26.32190,69045
26.33125,70605
26.34058,71167
26.34992,70940
26.35927,70775
26.36860,70604
26.37795,69919
26.38728,69298
26.39662,68309
26.40597,67234
26.41530,67554
26.42463,70799
26.43398,70380
26.44332,73782
26.45265,74500
26.46200,79262
26.47133,77074
26.48067,75883
26.49002,74295
26.49935,77178
26.50868,76591
26.51803,75561
26.52737,77865
26.53670,80905
26.54605,84364
26.55538,81334
26.56473,79433
26.57407,78340
26.58340,74721
26.59275,77011
26.60208,78171
26.61142,79234
26.62077,78082
26.63010,74586
26.63943,71699
26.64878,76722
26.65812,74742
26.66745,76283
26.67680,76217
26.68613,71303
26.69547,73825
26.70482,71276
26.71415,70467
26.72350,71165
26.73283,71520
26.74217,73657
26.75152,71013
26.76085,74808
26.77018,77470
26.77953,73563
26.78887,75860
26.79820,74762
26.80755,71828
26.81688,77729
26.82622,74570
26.83557,74702
26.84490,76873
26.85423,80773
26.86358,82264
26.87292,79639
26.88225,80575
26.89160,77996
26.90093,77762
26.91028,75031
26.91962,76431
26.92895,76499
26.93830,74808
26.94763,74064
26.95697,77435
26.96632,74824
26.97565,75885
26.98498,74450
26.99433,77539
27.00367,78967
27.01300,79981
27.02235,81835
27.03168,78371
27.04102,78263
27.05037,77763
27.05970,79148
27.06903,78181
27.07838,78228
27.08772,77037
27.09707,76222
27.10640,75368
27.11573,75021
27.12508,76121
27.13442,79367
27.14375,79525
27.15310,77134
27.16243,79048
27.17177,77412
27.18112,79823
27.19045,80690
27.19978,78029
27.20913,78967
27.21847,78904
27.22780,79331
27.23715,79171
27.24648,81307
27.25582,86040
27.26517,84734
27.27450,83639
27.28385,83540
27.29318,81859
27.30252,79193
27.31187,80481
27.32120,79097
27.33053,81010
27.33988,80894
27.34922,79986
27.35855,82740
27.36790,81809
27.37723,80806
27.38657,84406
27.39592,82658
27.40525,82249
27.41458,84765
27.42393,85132
27.43327,88378
27.44262,86939
27.45195,86766
27.46128,85691
27.47063,85728
27.47997,87739
27.48930,84601
27.49865,88293
27.50798,87153
27.51732,88569
27.52667,85910
27.53600,85526
27.54533,89540
27.55468,83950
27.56402,85631
27.57335,85319
27.58270,86939
27.59203,85400
27.60137,84219
27.61072,88031
27.62005,87825
27.62940,85606
27.63873,88360
27.64807,84554
27.65742,88235
27.66675,92028
27.67608,98407
27.68543,106090
27.69477,108415
27.70410,102386
27.71345,97002
27.72278,96790
27.73212,93730
27.74147,91889
27.75080,92569
27.76013,92283
27.76948,92006
27.77882,93583
27.78815,95111
27.79750,96717
27.80683,97262
27.81618,96636
27.82552,95283
27.83485,96074
27.84420,97655
27.85353,96057
27.86287,93287
27.87222,96820
27.88155,92352
27.89088,95421
27.90023,93926
27.90957,93821
27.91890,96077
27.92825,96230
27.93758,96420
27.94692,96449
27.95627,95348
27.96560,99286
27.97493,95517
27.98428,96370
27.99362,98593
28.00297,99779
28.01230,98970
28.02163,95759
28.03098,94425
28.04032,96458
28.04965,97164
28.05900,98903
28.06833,97809
28.07767,96301
28.08702,99371
28.09635,99830
28.10568,101325
28.11503,100038
28.12437,107019
28.13370,106761
28.14305,107395
28.15238,107949
28.16172,103983
28.17107,103987
28.18040,102670
28.18975,103070
28.19908,103591
28.20842,104046
28.21777,104359
28.22710,101837
28.23643,105366
28.24578,106163
28.25512,107367
28.26445,106531
28.27380,105783
28.28313,106569
28.29247,105746
28.30182,106139
28.31115,106234
28.32048,102053
28.32983,105673
28.33917,106402
28.34850,103861
28.35785,102640
28.36718,109893
28.37653,107609
28.38587,109442
28.39520,106625
28.40455,107810
28.41388,106025
28.42322,105723
28.43257,112197
28.44190,108672
28.45123,111097
28.46058,111567
28.46992,110324
28.47925,111712
28.48860,112008
28.49793,112103
28.50727,112965
28.51662,111311
28.52595,118506
28.53530,115822
28.54463,117569
28.55397,116459
28.56332,118272
28.57265,118817
28.58198,120982
28.59133,121509
28.60067,123002
28.61000,125022
28.61935,123551
28.62868,125210
28.63802,127444
28.64737,124746
28.65670,126135
28.66603,140589
28.67538,169936
28.68472,219910
28.69405,232125
28.70340,203079
28.71273,169132
28.72208,142498
28.73142,132299
28.74075,131269
28.75010,126497
28.75943,128945
28.76877,124401
28.77812,125738
28.78745,125776
28.79678,125154
28.80613,128813
28.81547,129559
28.82480,128185
28.83415,129100
28.84348,127309
28.85282,129077
28.86217,128272
28.87150,130252
28.88083,130564
28.89018,128250
28.89952,127366
28.90887,128612
28.91820,129338
28.92753,130566
28.93688,127668
28.94622,130551
28.95555,130547
28.96490,130866
28.97423,131214
28.98357,129665
28.99292,129922
29.00225,132343
29.01158,133158
29.02093,132984
29.03027,134007
29.03960,133924
29.04895,138632
29.05828,138210
29.06762,136746
29.07697,137555
29.08630,134885
29.09565,137747
29.10498,139409
29.11432,136206
29.12367,133285
29.13300,134410
29.14233,130993
29.15168,133336
29.16102,135761
29.17035,135554
29.17970,133330
29.18903,133245
29.19837,137901
29.20772,141964
29.21705,139761
29.22638,141326
29.23573,139694
29.24507,135424
29.25442,133866
29.26375,134789
29.27308,135251
29.28243,135738
29.29177,136763
29.30110,134882
29.31045,136233
29.31978,137270
29.32912,133337
29.33847,133691
29.34780,138331
29.35713,136939
29.36648,137742
29.37582,136040
29.38515,138619
29.39450,139037
29.40383,139748
29.41317,138628
29.42252,139238
29.43185,142342
29.44120,144494
29.45053,143378
29.45987,146087
29.46922,155079
29.47855,156502
29.48788,157577
29.49723,151118
29.50657,147370
29.51590,145155
29.52525,145627
29.53458,142925
29.54392,141853
29.55327,138599
29.56260,138775
29.57193,142827
29.58128,140811
29.59062,139383
29.59995,139442
29.60930,142989
29.61863,141405
29.62798,142814
29.63732,144941
29.64665,145757
29.65600,143163
29.66533,143732
29.67467,145340
29.68402,142613
29.69335,146545
29.70268,142669
29.71203,144337
29.72137,148000
29.73070,148978
29.74005,149717
29.74938,145938
29.75872,144186
29.76807,143709
29.77740,140971
29.78673,144513
29.79608,137729
29.80542,141383
29.81477,139992
29.82410,137822
29.83343,136295
29.84278,137695
29.85212,136538
29.86145,136848
29.87080,135314
29.88013,136929
29.88947,136291
29.89882,136639
29.90815,135843
29.91748,134069
29.92683,137153
29.93617,137483
29.94550,136369
29.95485,137352
29.96418,137663
29.97352,139808
29.98287,140469
29.99220,147451
30.00155,147059
30.01088,145129
30.02022,144445
30.02957,143986
30.03890,139376
30.04823,142538
30.05758,143710
30.06692,139917
30.07625,140510
30.08560,139870
30.09493,141694
30.10427,141200
30.11362,140534
30.12295,141519
30.13228,138664
30.14163,140726
30.15097,140277
30.16030,140163
30.16965,140484
30.17898,137725
30.18833,138872
30.19767,141737
30.20700,141493
30.21635,139788
30.22568,138039
30.23502,137966
30.24437,139684
30.25370,140310
30.26303,138751
30.27238,137917
30.28172,139380
30.29105,138087
30.30040,140896
30.30973,142060
30.31907,140616
30.32842,140395
30.33775,144058
30.34710,145971
30.35643,147147
30.36577,151248
30.37512,159049
30.38445,158601
30.39378,156778
30.40313,159941
30.41247,158112
30.42180,157810
30.43115,155078
30.44048,151706
30.44982,152594
30.45917,144201
30.46850,144189
30.47783,145283
30.48718,148118
30.49652,144583
30.50585,144623
30.51520,146287
30.52453,144928
30.53388,146454
30.54322,146024
30.55255,142556
30.56190,150042
30.57123,147724
30.58057,146524
30.58992,149467
30.59925,148613
30.60858,152230
30.61793,150959
30.62727,153019
30.63660,155807
30.64595,156635
30.65528,162024
30.66462,163435
30.67397,160340
30.68330,157730
30.69263,155567
30.70198,155987
30.71132,152032
30.72067,152451
30.73000,151564
30.73933,149040
30.74868,146422
30.75802,146691
30.76735,144277
30.77670,148600
30.78603,148234
30.79537,148561
30.80472,151205
30.81405,149332
30.82338,146378
30.83273,149959
30.84207,152398
30.85140,149924
30.86075,153271
30.87008,152227
30.87942,152326
30.88877,152961
30.89810,149085
30.90745,145650
30.91678,149064
30.92612,150203
30.93547,147272
30.94480,152341
30.95413,148798
30.96348,147601
30.97282,148580
30.98215,151333
30.99150,152932
31.00083,149127
31.01017,150373
31.01952,148036
31.02885,148193
31.03818,149515
31.04753,150824
31.05687,152242
31.06622,149385
31.07555,149909
31.08488,151960
31.09423,150241
31.10357,152535
31.11290,155461
31.12225,154675
31.13158,155269
31.14092,154767
31.15027,155570
31.15960,152894
31.16893,156295
31.17828,160676
31.18762,157206
31.19695,158021
31.20630,158110
31.21563,159043
31.22497,159506
31.23432,160380
31.24365,157032
31.25300,153107
31.26233,155217
31.27167,154734
31.28102,152678
31.29035,154727
31.29968,156136
31.30903,157310
31.31837,157673
31.32770,156232
31.33705,156733
31.34638,154827
31.35572,154431
31.36507,157558
