D:\数据\20211231\ZS1E-Z-000235.D Fri Dec 31 18:27:17 2021
Start of data points
0.09762,24572
0.10697,23738
0.11630,24010
0.12563,24242
0.13498,23831
0.14432,23303
0.15365,23159
0.16300,23913
0.17233,23426
0.18167,24693
0.19102,24069
0.20035,23993
0.20970,22515
0.21903,22541
0.22837,22814
0.23772,23420
0.24705,22711
0.25638,22295
0.26573,23008
0.27507,23910
0.28440,23208
0.29375,23258
0.30308,22732
0.31242,22744
0.32177,22823
0.33110,22644
0.34043,23336
0.34978,23290
0.35912,22052
0.36845,22513
0.37780,21723
0.38713,22291
0.39648,23401
0.40582,21791
0.41515,21001
0.42450,19643
0.43383,15167
0.44317,12414
0.45252,6924
0.46185,4708
0.47118,4238
0.48053,4303
0.48987,4509
0.49920,4289
0.50855,4667
0.51788,3853
0.52722,4463
0.53657,3920
0.54590,3347
0.55523,4416
0.56458,3815
0.57392,4426
0.58327,3240
0.59260,4350
0.60193,3855
0.61128,3837
0.62062,3583
0.62995,3711
0.63930,3497
0.64863,3699
0.65797,3872
0.66732,4516
0.67665,4377
0.68598,4288
0.69533,3631
0.70467,4068
0.71400,3547
0.72335,3656
0.73268,4078
0.74202,3985
0.75137,3472
0.76070,3593
0.77005,4071
0.77938,3719
0.78872,3623
0.79807,4402
0.80740,3338
0.81673,3837
0.82608,3675
0.83542,3870
0.84475,3469
0.85410,3977
0.86343,4003
0.87277,3865
0.88212,3684
0.89145,3693
0.90078,3287
0.91013,3610
0.91947,3689
0.92882,3133
0.93815,3174
0.94748,3290
0.95683,3486
0.96617,3901
0.97550,3775
0.98485,3668
0.99418,3580
1.00352,3594
1.01287,3530
1.02220,3473
1.03153,3461
1.04088,3006
1.05022,3346
1.05955,3787
1.06890,3386
1.07823,3505
1.08757,3699
1.09692,3580
1.10625,3655
1.11560,3277
1.12493,3412
1.13427,3657
1.14362,3185
1.15295,3455
1.16228,3956
1.17163,3633
1.18097,3229
1.19030,3346
1.19965,3505
1.20898,3788
1.21832,3769
1.22767,3943
1.23700,3940
1.24633,3203
1.25568,3672
1.26502,3264
1.27435,3902
1.28370,3290
1.29303,3599
1.30238,3706
1.31172,3161
1.32105,3326
1.33040,3094
1.33973,3569
1.34907,3502
1.35842,3436
1.36775,3183
1.37708,3631
1.38643,3437
1.39577,3966
1.40510,3105
1.41445,3357
1.42378,3537
1.43312,3539
1.44247,3564
1.45180,3402
1.46113,2890
1.47048,3303
1.47982,3093
1.48917,3202
1.49850,3392
1.50783,3261
1.51718,3337
1.52652,3716
1.53585,2952
1.54520,3824
1.55453,3316
1.56387,3714
1.57322,3737
1.58255,3689
1.59188,5782
1.60123,12602
1.61057,17639
1.61990,22045
1.62925,29124
1.63858,40962
1.64793,50172
1.65727,53775
1.66660,50373
1.67595,42360
1.68528,36268
1.69462,29520
1.70397,21928
1.71330,16138
1.72263,17632
1.73198,20292
1.74132,22602
1.75065,24405
1.76000,25947
1.76933,28107
1.77867,28124
1.78802,29325
1.79735,28941
1.80668,28440
1.81603,28432
1.82537,28907
1.83472,28731
1.84405,27496
1.85338,27273
1.86273,27795
1.87207,32413
1.88140,40100
1.89075,48513
1.90008,61381
1.90942,77703
1.91877,98195
1.92810,132371
1.93743,189062
1.94678,253484
1.95612,309439
1.96545,325749
1.97480,280158
1.98413,215455
1.99347,155504
2.00282,118998
2.01215,104217
2.02150,120587
2.03083,144716
2.04017,137775
2.04952,129281
2.05885,107549
2.06818,89981
2.07753,134853
2.08687,527592
2.09620,1088219
2.10555,897017
2.11488,452487
2.12422,214547
2.13357,138123
2.14290,181534
2.15223,208805
2.16158,165178
2.17092,115838
2.18025,97217
2.18960,117660
2.19893,135092
2.20828,102622
2.21762,74963
2.22695,77293
2.23630,109045
2.24563,145088
2.25497,496841
2.26432,2088676
2.27365,2339394
2.28298,1713544
2.29233,1055971
2.30167,749722
2.31100,1573720
2.32035,3773524
2.32968,4081349
2.33902,2360000
2.34837,1046330
2.35770,466981
2.36703,242627
2.37638,204749
2.38572,284091
2.39507,286929
2.40440,220470
2.41373,161500
2.42308,124119
2.43242,101102
2.44175,86438
2.45110,75917
2.46043,66092
2.46977,62078
2.47912,59006
2.48845,56282
2.49778,47565
2.50713,45981
2.51647,45378
2.52580,42849
2.53515,43912
2.54448,43915
2.55383,48896
2.56317,58012
2.57250,72321
2.58185,118660
2.59118,119366
2.60052,111096
2.60987,101200
2.61920,105935
2.62853,106575
2.63788,89003
2.64722,77884
2.65655,71830
2.66590,62529
2.67523,59713
2.68457,54104
2.69392,49838
2.70325,45920
2.71258,52849
2.72193,68792
2.73127,84123
2.74062,95359
2.74995,99091
2.75928,99647
2.76863,98665
2.77797,109110
2.78730,118421
2.79665,120872
2.80598,104841
2.81532,89051
2.82467,80144
2.83400,75449
2.84333,74210
2.85268,86333
2.86202,98307
2.87135,101075
2.88070,120016
2.89003,115297
2.89937,99062
2.90872,80038
2.91805,72703
2.92740,67778
2.93673,59928
2.94607,52346
2.95542,47271
2.96475,45696
2.97408,43582
2.98343,43466
2.99277,43466
3.00210,52430
3.01145,58268
3.02078,57423
3.03012,53814
3.03947,84904
3.04880,138751
3.05813,149294
3.06748,147187
3.07682,132599
3.08615,106366
3.09550,77652
3.10483,57965
3.11418,45622
3.12352,44148
3.13285,42182
3.14220,43662
3.15153,45741
3.16087,48447
3.17022,52020
3.17955,48435
3.18888,45378
3.19823,41940
3.20757,41088
3.21690,41756
3.22625,43002
3.23558,43633
3.24492,41917
3.25427,41526
3.26360,41134
3.27295,41260
3.28228,39236
3.29162,40715
3.30097,46002
3.31030,47583
3.31963,46022
3.32898,41489
3.33832,38896
3.34765,37631
3.35700,37552
3.36633,36417
3.37567,35875
3.38502,36488
3.39435,34995
3.40368,39514
3.41303,51317
3.42237,61643
3.43170,57042
3.44105,51123
3.45038,47736
3.45973,45165
3.46907,44428
3.47840,42526
3.48775,42362
3.49708,43259
3.50642,42653
3.51577,40867
3.52510,38846
3.53443,37993
3.54378,44538
3.55312,87304
3.56245,206871
3.57180,341288
3.58113,330642
3.59047,216882
3.59982,122071
3.60915,77641
3.61848,58548
3.62783,50648
3.63717,55838
3.64652,56482
3.65585,53258
3.66518,51610
3.67453,53823
3.68387,53614
3.69320,47409
3.70255,42835
3.71188,42144
3.72122,43883
3.73057,46345
3.73990,43184
3.74923,42278
3.75858,41876
3.76792,39100
3.77725,37712
3.78660,36736
3.79593,42014
3.80527,68055
3.81462,135546
3.82395,192738
3.83330,164127
3.84263,103785
3.85197,64112
3.86132,46242
3.87065,43486
3.87998,41394
3.88933,41348
3.89867,43802
3.90800,49026
3.91735,47353
3.92668,46768
3.93602,47958
3.94537,49080
3.95470,50802
3.96403,57901
3.97338,59067
3.98272,51354
3.99205,47120
4.00140,41214
4.01073,39647
4.02008,36963
4.02942,37830
4.03875,42630
4.04810,53324
4.05743,53998
4.06677,49431
4.07612,50339
4.08545,64614
4.09478,85508
4.10413,98653
4.11347,86324
4.12280,65556
4.13215,49166
4.14148,42691
4.15082,40093
4.16017,40495
4.16950,38538
4.17885,36974
4.18818,35473
4.19752,35141
4.20687,37283
4.21620,39466
4.22553,39244
4.23488,36969
4.24422,36505
4.25355,35322
4.26290,35708
4.27223,35917
4.28157,37584
4.29092,38921
4.30025,41864
4.30958,39841
4.31893,40408
4.32827,41388
4.33760,44947
4.34695,44453
4.35628,43230
4.36563,37577
4.37497,36850
4.38430,41630
4.39365,56983
4.40298,62487
4.41232,54081
4.42167,45158
4.43100,39104
4.44033,37467
4.44968,34795
4.45902,36246
4.46835,36669
4.47770,41052
4.48703,44393
4.49637,44354
4.50572,38755
4.51505,35915
4.52438,35647
4.53373,35665
4.54307,34607
4.55242,33979
4.56175,36733
4.57108,35193
4.58043,35803
4.58977,35554
4.59910,34063
4.60845,34652
4.61778,34143
4.62712,34240
4.63647,34480
4.64580,35236
4.65513,35649
4.66448,39029
4.67382,39424
4.68315,38428
4.69250,37504
4.70183,36439
4.71117,36440
4.72052,35080
4.72985,32900
4.73920,33115
4.74853,34268
4.75787,38061
4.76722,39992
4.77655,39076
4.78588,38642
4.79523,37348
4.80457,36497
4.81390,37314
4.82325,36370
4.83258,36648
4.84192,37647
4.85127,36326
4.86060,37802
4.86993,40608
4.87928,45124
4.88862,48189
4.89797,48307
4.90730,47318
4.91663,43156
4.92598,41982
4.93532,41582
4.94465,39487
4.95400,38440
4.96333,35790
4.97267,34427
4.98202,32320
4.99135,33429
5.00068,34541
5.01003,33955
5.01937,34827
5.02870,37226
5.03805,37041
5.04738,38567
5.05672,37934
5.06607,37797
5.07540,38958
5.08475,43397
5.09408,43663
5.10342,39832
5.11277,37962
5.12210,35291
5.13143,36560
5.14078,41401
5.15012,44500
5.15945,45135
5.16880,38917
5.17813,38447
5.18747,39862
5.19682,51084
5.20615,60390
5.21548,54014
5.22483,45020
5.23417,40482
5.24350,41077
5.25285,40450
5.26218,41668
5.27153,59034
5.28087,122512
5.29020,231177
5.29955,277150
5.30888,216871
5.31822,129203
5.32757,84522
5.33690,66278
5.34623,53979
5.35558,44185
5.36492,41993
5.37425,44657
5.38360,49341
5.39293,61225
5.40227,68798
5.41162,61671
5.42095,53182
5.43028,47457
5.43963,39300
5.44897,37678
5.45832,36391
5.46765,35546
5.47698,36215
5.48633,36910
5.49567,36816
5.50500,36262
5.51435,37437
5.52368,39444
5.53302,44012
5.54237,44916
5.55170,41624
5.56103,38088
5.57038,36212
5.57972,36537
5.58905,36111
5.59840,35227
5.60773,32444
5.61707,33175
5.62642,34336
5.63575,33597
5.64510,31783
5.65443,33977
5.66377,33885
5.67312,33821
5.68245,34693
5.69178,36224
5.70113,40064
5.71047,43395
5.71980,44539
5.72915,44003
5.73848,42904
5.74782,42509
5.75717,45963
5.76650,45913
5.77583,42308
5.78518,38968
5.79452,35698
5.80385,38051
5.81320,39937
5.82253,39980
5.83188,41632
5.84122,40258
5.85055,38389
5.85990,36967
5.86923,37704
5.87857,33641
5.88792,27919
5.89725,25844
5.90658,31479
5.91593,63522
5.92527,131450
5.93460,172270
5.94395,127689
5.95328,77279
5.96262,66823
5.97197,61147
5.98130,51295
5.99065,41487
5.99998,35196
6.00932,30864
6.01867,26114
6.02800,21615
6.03733,18476
6.04668,15496
6.05602,14543
6.06535,17213
6.07470,17521
6.08403,15104
6.09337,14747
6.10272,11643
6.11205,12020
6.12138,14524
6.13073,19441
6.14007,23521
6.14940,22371
6.15875,17084
6.16808,13222
6.17743,13036
6.18677,12196
6.19610,12049
6.20545,11901
6.21478,12565
6.22412,13903
6.23347,16374
6.24280,17420
6.25213,16831
6.26148,14240
6.27082,14987
6.28015,25148
6.28950,37152
6.29883,34626
6.30817,22962
6.31752,18039
6.32685,13583
6.33618,13467
6.34553,11543
6.35487,12576
6.36422,11860
6.37355,14163
6.38288,21916
6.39223,31270
6.40157,40941
6.41090,80331
6.42025,132110
6.42958,122971
6.43892,69449
6.44827,31883
6.45760,19394
6.46693,16137
6.47628,16547
6.48562,14998
6.49495,14434
6.50430,14789
6.51363,14407
6.52297,14208
6.53232,13963
6.54165,13300
6.55100,13598
6.56033,12170
6.56967,11896
6.57902,11955
6.58835,13663
6.59768,16127
6.60703,17174
6.61637,17070
6.62570,16368
6.63505,15713
6.64438,15960
6.65372,15950
6.66307,16533
6.67240,18142
6.68173,17540
6.69108,15764
6.70042,14930
6.70977,15637
6.71910,15504
6.72843,14682
6.73778,12686
6.74712,15040
6.75645,14118
6.76580,13633
6.77513,13573
6.78447,15271
6.79382,18916
6.80315,24762
6.81248,26865
6.82183,23076
6.83117,16237
6.84050,12942
6.84985,13660
6.85918,13340
6.86852,14615
6.87787,12995
6.88720,14657
6.89655,13442
6.90588,15447
6.91522,16289
6.92457,15941
6.93390,15640
6.94323,13484
6.95258,14291
6.96192,14489
6.97125,14815
6.98060,15108
6.98993,13956
6.99927,14331
7.00862,13379
7.01795,14098
7.02728,14425
7.03663,14122
7.04597,12104
7.05530,11532
7.06465,10736
7.07398,10417
7.08333,11230
7.09267,10804
7.10200,12625
7.11135,14717
7.12068,15907
7.13002,16072
7.13937,14337
7.14870,13918
7.15803,12376
7.16738,11760
7.17672,12261
7.18605,11979
7.19540,12295
7.20473,13380
7.21407,13930
7.22342,18606
7.23275,43694
7.24208,92086
7.25143,118650
7.26077,93983
7.27012,48794
7.27945,29094
7.28878,22370
7.29813,20797
7.30747,19090
7.31680,15944
7.32615,13325
7.33548,12447
7.34482,12145
7.35417,12645
7.36350,11608
7.37283,11153
7.38218,15091
7.39152,29925
7.40085,85136
7.41020,167314
7.41953,208414
7.42887,172355
7.43822,101277
7.44755,48449
7.45690,25321
7.46623,17241
7.47557,15449
7.48492,26127
7.49425,33086
7.50358,31140
7.51293,23322
7.52227,19167
7.53160,16831
7.54095,14801
7.55028,14536
7.55962,14637
7.56897,15677
7.57830,15650
7.58763,15485
7.59698,12857
7.60632,13304
7.61567,14146
7.62500,13097
7.63433,14966
7.64368,15836
7.65302,14871
7.66235,14688
7.67170,12616
7.68103,13199
7.69037,12905
7.69972,13486
7.70905,13986
7.71838,13787
7.72773,15069
7.73707,14892
7.74640,15007
7.75575,14406
7.76508,15136
7.77442,17274
7.78377,17782
7.79310,17157
7.80245,18260
7.81178,16826
7.82112,14639
7.83047,13822
7.83980,13749
7.84913,15572
7.85848,27363
7.86782,51553
7.87715,69791
7.88650,65482
7.89583,43009
7.90517,38526
7.91452,60321
7.92385,101441
7.93318,108039
7.94253,72905
7.95187,36720
7.96120,25389
7.97055,30718
7.97988,38171
7.98923,41424
7.99857,42309
8.00790,32435
8.01725,26029
8.02658,22667
8.03592,25239
8.04527,30246
8.05460,34349
8.06393,27859
8.07328,21135
8.08262,16298
8.09195,18621
8.10130,24338
8.11063,27911
8.11997,25699
8.12932,19617
8.13865,16875
8.14798,16210
8.15733,14313
8.16667,15533
8.17602,14623
8.18535,14593
8.19468,14450
8.20403,14588
8.21337,15072
8.22270,14671
8.23205,14395
8.24138,18037
8.25072,19640
8.26007,19978
8.26940,18125
8.27873,16127
8.28808,15624
8.29742,15620
8.30675,16326
8.31610,14324
8.32543,13938
8.33478,14552
8.34412,14083
8.35345,13925
8.36280,14105
8.37213,13100
8.38147,14293
8.39082,13108
8.40015,14265
8.40948,15294
8.41883,18603
8.42817,21701
8.43750,20610
8.44685,19545
8.45618,18350
8.46552,18283
8.47487,19446
8.48420,19449
8.49353,18074
8.50288,18996
8.51222,17546
8.52157,17565
8.53090,16909
8.54023,17131
8.54958,17998
8.55892,19328
8.56825,20926
8.57760,20383
8.58693,25300
8.59627,25491
8.60562,27908
8.61495,27950
8.62428,25601
8.63363,23001
8.64297,20483
8.65230,20035
8.66165,19403
8.67098,19850
8.68032,19987
8.68967,20019
8.69900,20142
8.70835,21233
8.71768,20420
8.72702,19083
8.73637,20877
8.74570,25331
8.75503,34930
8.76438,38804
8.77372,33059
8.78305,23647
8.79240,20612
8.80173,25067
8.81107,35440
8.82042,43240
8.82975,35615
8.83908,25221
8.84843,19344
8.85777,18418
8.86710,20720
8.87645,21982
8.88578,23473
8.89513,22620
8.90447,22730
8.91380,21615
8.92315,21755
8.93248,23680
8.94182,23849
8.95117,22853
8.96050,19864
8.96983,19236
8.97918,20682
8.98852,18829
8.99785,20161
9.00720,21004
9.01653,21097
9.02587,21033
9.03522,19677
9.04455,20270
9.05388,20360
9.06323,21148
9.07257,25288
9.08192,29578
9.09125,36675
9.10058,38856
9.10993,29895
9.11927,23432
9.12860,23627
9.13795,25888
9.14728,27138
9.15662,25392
9.16597,22160
9.17530,19739
9.18463,19880
9.19398,18644
9.20332,20554
9.21265,22930
9.22200,29521
9.23133,46988
9.24068,66067
9.25002,59995
9.25935,37509
9.26870,23199
9.27803,18662
9.28737,17777
9.29672,17638
9.30605,18530
9.31538,22762
9.32473,34390
9.33407,53918
9.34340,59342
9.35275,42466
9.36208,39759
9.37142,70689
9.38077,116326
9.39010,126413
9.39943,102853
9.40878,70116
9.41812,49935
9.42747,43090
9.43680,38852
9.44613,31820
9.45548,23289
9.46482,19747
9.47415,18789
9.48350,19432
9.49283,25316
9.50217,28427
9.51152,27712
9.52085,22091
9.53018,22013
9.53953,23930
9.54887,28650
9.55820,44656
9.56755,66077
9.57688,67925
9.58622,48200
9.59557,36887
9.60490,44412
9.61425,44564
9.62358,33277
9.63292,23707
9.64227,22750
9.65160,21744
9.66093,22423
9.67028,22498
9.67962,21956
9.68895,20778
9.69830,20386
9.70763,20354
9.71697,18772
9.72632,48532
9.73565,200228
9.74498,597710
9.75433,906549
9.76367,773169
9.77300,436787
9.78235,214686
9.79168,132912
9.80103,99415
9.81037,79006
9.81970,70561
9.82905,73515
9.83838,81786
9.84772,94171
9.85707,92222
9.86640,73401
9.87573,58696
9.88508,62183
9.89442,76576
9.90375,83511
9.91310,103324
9.92243,159609
9.93177,183577
9.94112,137118
9.95045,79789
9.95980,47265
9.96913,41334
9.97847,61498
9.98782,113263
9.99715,164790
10.00648,137621
10.01583,81904
10.02517,47534
10.03450,36296
10.04385,32989
10.05318,32896
10.06252,37441
10.07187,46077
10.08120,54690
10.09053,51943
10.09988,42425
10.10922,49714
10.11855,118295
10.12790,295104
10.13723,448502
10.14658,507321
10.15592,1194327
10.16525,3188065
10.17460,4598023
10.18393,3213486
10.19327,1081509
10.20262,214907
10.21195,58198
10.22128,39250
10.23063,37554
10.23997,44978
10.24930,57227
10.25865,57844
10.26798,45728
10.27732,34416
10.28667,30636
10.29600,32927
10.30533,31199
10.31468,29064
10.32402,28933
10.33337,26567
10.34270,24418
10.35203,23836
10.36138,23922
10.37072,23946
10.38005,23767
10.38940,21720
10.39873,21106
10.40807,20143
10.41742,21905
10.42675,22953
10.43608,24242
10.44543,24614
10.45477,25803
10.46410,28740
10.47345,29770
10.48278,24826
10.49212,20775
10.50147,19333
10.51080,18990
10.52015,20342
10.52948,20361
10.53882,20618
10.54817,22665
10.55750,22171
10.56683,20787
10.57618,21713
10.58552,22503
10.59485,23333
10.60420,23437
10.61353,22274
10.62287,22163
10.63222,22942
10.64155,25635
10.65088,23837
10.66023,23027
10.66957,22736
10.67890,26558
10.68825,27842
10.69758,27491
10.70693,24951
10.71627,30483
10.72560,34959
10.73495,31547
10.74428,27414
10.75362,26268
10.76297,36000
10.77230,50523
10.78163,76695
10.79098,222416
10.80032,655041
10.80965,1156111
10.81900,1096501
10.82833,553270
10.83767,172906
10.84702,54384
10.85635,32250
10.86568,29749
10.87503,29432
10.88437,32288
10.89372,34001
10.90305,33154
10.91238,29483
10.92173,30058
10.93107,34403
10.94040,35821
10.94975,31709
10.95908,27458
10.96842,27373
10.97777,24347
10.98710,22052
10.99643,21602
11.00578,20464
11.01512,21087
11.02445,21252
11.03380,20754
11.04313,19984
11.05248,19395
11.06182,19631
11.07115,18772
11.08050,18920
11.08983,18461
11.09917,18831
11.10852,20666
11.11785,21934
11.12718,24125
11.13653,22387
11.14587,20660
11.15520,20642
11.16455,20363
11.17388,21320
11.18322,21705
11.19257,21065
11.20190,19450
11.21123,21315
11.22058,21056
11.22992,21510
11.23927,22754
11.24860,21236
11.25793,21169
11.26728,22121
11.27662,23627
11.28595,22121
11.29530,20262
11.30463,19894
11.31397,19611
11.32332,21101
11.33265,22271
11.34198,28655
11.35133,37729
11.36067,43129
11.37000,38642
11.37935,31228
11.38868,24554
11.39802,24989
11.40737,28703
11.41670,29466
11.42605,27861
11.43538,24033
11.44472,21706
11.45407,22311
11.46340,27642
11.47273,39418
11.48208,44151
11.49142,33632
11.50075,23722
11.51010,19820
11.51943,19635
11.52877,18582
11.53812,18445
11.54745,20712
11.55678,20916
11.56613,25199
11.57547,34504
11.58480,46708
11.59415,53298
11.60348,46484
11.61283,38491
11.62217,33484
11.63150,31610
11.64085,30630
11.65018,31899
11.65952,36456
11.66887,39835
11.67820,37168
11.68753,32356
11.69688,26228
11.70622,25458
11.71555,24201
11.72490,25342
11.73423,23908
11.74357,22370
11.75292,23576
11.76225,21596
11.77160,24246
11.78093,26054
11.79027,27821
11.79962,29165
11.80895,26740
11.81828,25589
11.82763,26219
11.83697,26649
11.84630,27890
11.85565,27323
11.86498,26282
11.87432,26311
11.88367,27836
11.89300,25616
11.90233,25212
11.91168,23346
11.92102,22900
11.93035,21570
11.93970,24799
11.94903,30945
11.95838,33342
11.96772,29415
11.97705,24974
11.98640,21569
11.99573,24514
12.00507,29947
12.01442,43670
12.02375,52477
12.03308,47325
12.04243,34446
12.05177,26805
12.06110,24935
12.07045,22649
12.07978,21942
12.08912,21427
12.09847,22541
12.10780,22871
12.11713,22112
12.12648,21673
12.13582,21778
12.14517,21736
12.15450,24161
12.16383,35928
12.17318,75451
12.18252,132254
12.19185,130582
12.20120,72737
12.21053,36795
12.21987,29287
12.22922,30626
12.23855,31910
12.24788,30884
12.25723,28413
12.26657,39214
12.27590,90130
12.28525,158731
12.29458,167542
12.30392,104303
12.31327,51997
12.32260,35403
12.33195,31945
12.34128,31054
12.35062,29200
12.35997,26815
12.36930,26152
12.37863,26481
12.38798,28589
12.39732,29518
12.40665,27209
12.41600,24234
12.42533,24154
12.43467,23112
12.44402,22923
12.45335,23658
12.46268,24441
12.47203,24856
12.48137,26533
12.49070,26592
12.50005,26983
12.50938,27219
12.51873,27911
12.52807,27529
12.53740,28590
12.54675,30052
12.55608,29967
12.56542,34170
12.57477,38871
12.58410,34155
12.59343,28326
12.60278,25731
12.61212,22924
12.62145,23519
12.63080,26775
12.64013,31650
12.64947,34765
12.65882,34980
12.66815,35031
12.67750,30597
12.68683,23680
12.69617,21381
12.70552,19801
12.71485,20930
12.72418,21489
12.73353,24774
12.74287,23099
12.75220,25218
12.76155,25131
12.77088,24224
12.78022,21324
12.78957,21868
12.79890,21541
12.80823,23275
12.81758,22490
12.82692,21430
12.83625,23479
12.84560,22145
12.85493,21780
12.86428,21773
12.87362,20371
12.88295,21444
12.89230,20615
12.90163,22573
12.91097,23299
12.92032,22247
12.92965,21947
12.93898,21565
12.94833,20586
12.95767,20573
12.96700,22194
12.97635,21374
12.98568,19460
12.99502,17901
13.00437,18239
13.01370,18646
13.02303,22746
13.03238,28908
13.04172,33045
13.05107,31803
13.06040,25712
13.06973,20822
13.07908,23382
13.08842,24721
13.09775,25338
13.10710,23313
13.11643,23493
13.12577,23692
13.13512,26522
13.14445,29775
13.15378,27567
13.16313,25686
13.17247,24132
13.18180,25938
13.19115,38494
13.20048,99648
13.20982,260976
13.21917,402487
13.22850,346139
13.23785,178968
13.24718,98015
13.25652,88460
13.26587,68763
13.27520,40214
13.28453,28856
13.29388,26280
13.30322,23455
13.31255,24533
13.32190,26285
13.33123,25809
13.34057,26017
13.34992,25698
13.35925,27437
13.36858,26172
13.37793,24802
13.38727,23232
13.39662,24205
13.40595,26904
13.41528,25609
13.42463,21705
13.43397,23504
13.44330,29303
13.45265,30096
13.46198,29266
13.47132,26711
13.48067,28837
13.49000,29328
13.49933,26050
13.50868,26087
13.51802,41245
13.52735,81130
13.53670,110799
13.54603,88216
13.55537,49430
13.56472,28964
13.57405,23394
13.58340,23707
13.59273,23358
13.60207,22811
13.61142,22074
13.62075,22370
13.63008,23005
13.63943,24314
13.64877,29479
13.65810,32634
13.66745,32295
13.67678,27133
13.68612,24574
13.69547,22746
13.70480,21453
13.71413,21644
13.72348,19149
13.73282,19124
13.74215,19431
13.75150,20018
13.76083,20831
13.77018,22085
13.77952,22053
13.78885,21575
13.79820,26998
13.80753,33219
13.81687,36310
13.82622,29217
13.83555,23899
13.84488,22830
13.85423,22411
13.86357,24341
13.87290,23900
13.88225,27393
13.89158,37613
13.90092,64213
13.91027,140521
13.91960,288537
13.92893,353761
13.93828,222801
13.94762,89939
13.95697,44337
13.96630,33743
13.97563,29491
13.98498,25340
13.99432,24154
14.00365,27420
14.01300,27272
14.02233,26383
14.03167,24203
14.04102,50303
14.05035,307784
14.05968,1692889
14.06903,5219867
14.07837,8668309
14.08770,7501581
14.09705,2927645
14.10638,547409
14.11572,94516
14.12507,44857
14.13440,37093
14.14375,37644
14.15308,38769
14.16242,42432
14.17177,44950
14.18110,47241
14.19043,60636
14.19978,87940
14.20912,95115
14.21845,64999
14.22780,36696
14.23713,27257
14.24647,23024
14.25582,22846
14.26515,21956
14.27448,23687
14.28383,23277
14.29317,21441
14.30250,20810
14.31185,21445
14.32118,26021
14.33053,30624
14.33987,36616
14.34920,36515
14.35855,30590
14.36788,24508
14.37722,22435
14.38657,22427
14.39590,20959
14.40523,20404
14.41458,19398
14.42392,20692
14.43325,19428
14.44260,19530
14.45193,22398
14.46127,28563
14.47062,32514
14.47995,33899
14.48930,28009
14.49863,23553
14.50797,21774
14.51732,19554
14.52665,19014
14.53598,18901
14.54533,17749
14.55467,19761
14.56400,19886
14.57335,21907
14.58268,20568
14.59202,18894
14.60137,18170
14.61070,18122
14.62003,19177
14.62938,19528
14.63872,21273
14.64805,27048
14.65740,37334
14.66673,41340
14.67608,39440
14.68542,31188
14.69475,26245
14.70410,25771
14.71343,23764
14.72277,21928
14.73212,23207
14.74145,20657
14.75078,20750
14.76013,21699
14.76947,19379
14.77880,20363
14.78815,20367
14.79748,21377
14.80682,20686
14.81617,21551
14.82550,22237
14.83483,22234
14.84418,20562
14.85352,19800
14.86287,22969
14.87220,29978
14.88153,33757
14.89088,30896
14.90022,23878
14.90955,20928
14.91890,20670
14.92823,20745
14.93757,19092
14.94692,19924
14.95625,19237
14.96558,19937
14.97493,22679
14.98427,22420
14.99360,21547
15.00295,24864
15.01228,25287
15.02163,27014
15.03097,22904
15.04030,21442
15.04965,24285
15.05898,24050
15.06832,24479
15.07767,23860
15.08700,21989
15.09633,19261
15.10568,19342
15.11502,20450
15.12435,22882
15.13370,25246
15.14303,25071
15.15237,22283
15.16172,21283
15.17105,21220
15.18038,19126
15.18973,19134
15.19907,25356
15.20842,34357
15.21775,51304
15.22708,53187
15.23643,41113
15.24577,29399
15.25510,23784
15.26445,21627
15.27378,21106
15.28312,20687
15.29247,20904
15.30180,19465
15.31113,20304
15.32048,19987
15.32982,21433
15.33915,23574
15.34850,23148
15.35783,23179
15.36717,23885
15.37652,24952
15.38585,23656
15.39520,21697
15.40453,20642
15.41387,20081
15.42322,22644
15.43255,22916
15.44188,22391
15.45123,20614
15.46057,18416
15.46990,19698
15.47925,20123
15.48858,22080
15.49792,24203
15.50727,28121
15.51660,36669
15.52593,45470
15.53528,41018
15.54462,32565
15.55395,23965
15.56330,20298
15.57263,19760
15.58198,20753
15.59132,21584
15.60065,20209
15.61000,21750
15.61933,22654
15.62867,22994
15.63802,25740
15.64735,26130
15.65668,25467
15.66603,26654
15.67537,26055
15.68470,25419
15.69405,26625
15.70338,33508
15.71272,37905
15.72207,32785
15.73140,27087
15.74073,22582
15.75008,24172
15.75942,28003
15.76877,28129
15.77810,28591
15.78743,24637
15.79678,22500
15.80612,23153
15.81545,29321
15.82480,50000
15.83413,92605
15.84347,139587
15.85282,153641
15.86215,104783
15.87148,55930
15.88083,39530
15.89017,35109
15.89950,38309
15.90885,41398
15.91818,36588
15.92752,29599
15.93687,26760
15.94620,22623
15.95555,22193
15.96488,23138
15.97422,26032
15.98357,31094
15.99290,33972
16.00223,39663
16.01158,32380
16.02092,26741
16.03025,25158
16.03960,21497
16.04893,21964
16.05827,22270
16.06762,24276
16.07695,22416
16.08628,22404
16.09563,22777
16.10497,23767
16.11432,24326
16.12365,27583
16.13298,28136
16.14233,24953
16.15167,23728
16.16100,21740
16.17035,22661
16.17968,20962
16.18902,22019
16.19837,23154
16.20770,26182
16.21703,25877
16.22638,24600
16.23572,25419
16.24505,25033
16.25440,25691
16.26373,24567
16.27307,31067
16.28242,55484
16.29175,121633
16.30110,213935
16.31043,223682
16.31977,131874
16.32912,58235
16.33845,30606
16.34778,23993
16.35713,21231
16.36647,20008
16.37580,20021
16.38515,19117
16.39448,19874
16.40382,20650
16.41317,21246
16.42250,21318
16.43183,21148
16.44118,20490
16.45052,23881
16.45985,29351
16.46920,27160
16.47853,24117
16.48788,23796
16.49722,23648
16.50655,23759
16.51590,23266
16.52523,26311
16.53457,24992
16.54392,22892
16.55325,21590
16.56258,21126
16.57193,20925
16.58127,22242
16.59060,21965
16.59995,21063
16.60928,21696
16.61862,22038
16.62797,23769
16.63730,26793
16.64663,28841
16.65598,27298
16.66532,26541
16.67467,25247
16.68400,25486
16.69333,30646
16.70268,34158
16.71202,30349
16.72135,26814
16.73070,25156
16.74003,38177
16.74937,66063
16.75872,91061
16.76805,73304
16.77738,42377
16.78673,25760
16.79607,22021
16.80540,20966
16.81475,21766
16.82408,24704
16.83343,27809
16.84277,29141
16.85210,25994
16.86145,24556
16.87078,22432
16.88012,21648
16.88947,21116
16.89880,21588
16.90813,24646
16.91748,31524
16.92682,31700
16.93615,30733
16.94550,29563
16.95483,32583
16.96417,36610
16.97352,39445
16.98285,33861
16.99218,27503
17.00153,23986
17.01087,23539
17.02022,28619
17.02955,44866
17.03888,65119
17.04823,61160
17.05757,41910
17.06690,28107
17.07625,25304
17.08558,22630
17.09492,24203
17.10427,24145
17.11360,24833
17.12293,23316
17.13228,25318
17.14162,28381
17.15095,26226
17.16030,22960
17.16963,21762
17.17897,21961
17.18832,22174
17.19765,20663
17.20700,20919
17.21633,20716
17.22567,21176
17.23502,20673
17.24435,20175
17.25368,22499
17.26303,22374
17.27237,24524
17.28170,29907
17.29105,31029
17.30038,28346
17.30972,27380
17.31907,27852
17.32840,29355
17.33773,28255
17.34708,25502
17.35642,23974
17.36575,25819
17.37510,45217
17.38443,99898
17.39378,148232
17.40312,131339
17.41245,69472
17.42180,40295
17.43113,32873
17.44047,28863
17.44982,29578
17.45915,27817
17.46848,26415
17.47783,27856
17.48717,49070
17.49650,225417
17.50585,953954
17.51518,2161049
17.52452,2468028
17.53387,1450841
17.54320,403739
17.55253,85536
17.56188,38140
17.57122,32925
17.58057,34710
17.58990,37862
17.59923,34069
17.60858,28993
17.61792,24570
17.62725,24667
17.63660,24920
17.64593,24810
17.65527,27495
17.66462,27366
17.67395,32480
17.68328,34830
17.69263,39751
17.70197,41301
17.71130,34169
17.72065,30440
17.72998,27931
17.73933,27198
17.74867,27437
17.75800,29326
17.76735,32039
17.77668,32697
17.78602,30895
17.79537,32796
17.80470,30509
17.81403,30002
17.82338,24692
17.83272,24329
17.84205,23611
17.85140,26881
17.86073,31648
17.87007,35958
17.87942,37946
17.88875,32962
17.89808,27278
17.90743,26370
17.91677,23502
17.92612,23842
17.93545,23707
17.94478,25369
17.95413,24363
17.96347,26215
17.97280,25267
17.98215,23134
17.99148,22888
18.00082,23090
18.01017,22383
18.01950,24323
18.02883,23655
18.03818,23249
18.04752,24395
18.05685,25379
18.06620,26607
18.07553,25161
18.08487,23173
18.09422,22733
18.10355,23932
18.11290,25375
18.12223,26916
18.13157,26144
18.14092,25147
18.15025,24812
18.15958,23156
18.16893,25999
18.17827,25904
18.18760,24707
18.19695,23468
18.20628,21757
18.21562,23895
18.22497,21837
18.23430,23671
18.24363,22975
18.25298,23385
18.26232,23104
18.27165,24149
18.28100,25504
18.29033,25932
18.29968,28439
18.30902,30431
18.31835,29414
18.32770,29453
18.33703,31598
18.34637,33853
18.35572,34224
18.36505,35181
18.37438,31536
18.38373,28975
18.39307,34836
18.40240,47208
18.41175,64599
18.42108,70088
18.43042,56760
18.43977,40900
18.44910,37073
18.45845,35521
18.46778,31687
18.47712,27338
18.48647,27847
18.49580,32415
18.50513,37318
18.51448,44937
18.52382,46603
18.53315,39207
18.54250,32537
18.55183,27692
18.56117,28085
18.57052,28204
18.57985,24983
18.58918,24321
18.59853,24903
18.60787,26464
18.61720,29034
18.62655,29375
18.63588,30097
18.64523,30262
18.65457,30765
18.66390,27633
18.67325,28788
18.68258,30661
18.69192,30209
18.70127,29933
18.71060,31509
18.71993,34603
18.72928,34298
18.73862,34128
18.74795,30939
18.75730,27696
18.76663,26513
18.77597,23946
18.78532,22732
18.79465,23189
18.80398,24026
18.81333,24051
18.82267,24479
18.83202,23851
18.84135,23850
18.85068,24080
18.86003,23801
18.86937,22667
18.87870,22140
18.88805,22075
18.89738,23277
18.90672,24875
18.91607,28155
18.92540,30010
18.93473,28354
18.94408,26616
18.95342,27445
18.96275,30658
18.97210,33928
18.98143,33439
18.99077,30001
19.00012,28206
19.00945,27064
19.01880,26358
19.02813,24523
19.03747,27214
19.04682,34973
19.05615,46007
19.06548,55687
19.07483,64276
19.08417,76323
19.09350,83129
19.10285,69965
19.11218,43736
19.12152,31421
19.13087,25573
19.14020,23933
19.14953,24227
19.15888,23009
19.16822,22147
19.17755,22540
19.18690,23932
19.19623,26759
19.20558,29882
19.21492,29772
19.22425,29074
19.23360,27874
19.24293,25624
19.25227,23155
19.26162,25742
19.27095,26291
19.28028,28877
19.28963,28871
19.29897,31426
19.30830,33068
19.31765,36284
19.32698,36381
19.33632,32934
19.34567,27596
19.35500,25858
19.36433,23750
19.37368,24306
19.38302,22074
19.39237,24522
19.40170,24975
19.41103,24905
19.42038,24309
19.42972,23886
19.43905,22375
19.44840,21292
19.45773,21904
19.46707,21718
19.47642,22869
19.48575,26736
19.49508,27017
19.50443,25834
19.51377,24917
19.52310,23275
19.53245,24368
19.54178,26177
19.55113,23835
19.56047,23132
19.56980,23938
19.57915,25700
19.58848,26136
19.59782,25845
19.60717,25261
19.61650,26546
19.62583,26741
19.63518,29249
19.64452,31949
19.65385,31655
19.66320,27779
19.67253,27248
19.68187,25444
19.69122,26106
19.70055,26569
19.70988,25177
19.71923,30241
19.72857,38932
19.73792,49276
19.74725,47098
19.75658,37544
19.76593,29855
19.77527,31533
19.78460,31897
19.79395,33000
19.80328,31899
19.81262,29877
19.82197,29826
19.83130,28526
19.84063,28116
19.84998,25518
19.85932,26330
19.86865,32188
19.87800,44412
19.88733,53345
19.89667,47017
19.90602,33485
19.91535,29748
19.92470,29070
19.93403,28704
19.94337,26205
19.95272,28415
19.96205,26400
19.97138,27968
19.98073,25565
19.99007,25316
19.99940,24381
20.00875,25177
20.01808,27634
20.02742,28712
20.03677,29698
20.04610,31114
20.05543,30978
20.06478,28901
20.07412,29692
20.08345,31875
20.09280,31099
20.10213,27595
20.11148,27483
20.12082,25542
20.13015,25707
20.13950,27172
20.14883,31410
20.15817,34008
20.16752,37562
20.17685,33573
20.18618,30619
20.19553,26168
20.20487,27485
20.21420,27206
20.22355,27685
20.23288,25572
20.24222,25247
20.25157,23528
20.26090,25080
20.27025,23853
20.27958,25788
20.28892,26470
20.29827,27145
20.30760,26720
20.31693,24762
20.32628,23968
20.33562,22268
20.34495,22595
20.35430,24057
20.36363,25689
20.37297,26937
20.38232,25369
20.39165,25069
20.40098,22202
20.41033,23089
20.41967,24017
20.42900,22427
20.43835,23437
20.44768,23711
20.45703,26111
20.46637,27446
20.47570,32113
20.48505,33208
20.49438,30765
20.50372,26892
20.51307,24071
20.52240,24831
20.53173,25522
20.54108,24865
20.55042,25345
20.55975,33097
20.56910,71020
20.57843,153337
20.58777,213027
20.59712,156027
20.60645,77265
20.61578,41849
20.62513,30954
20.63447,29445
20.64382,30706
20.65315,31770
20.66248,33441
20.67183,30622
20.68117,29249
20.69050,29063
20.69985,27444
20.70918,28268
20.71852,28219
20.72787,28148
20.73720,27576
20.74653,27851
20.75588,26787
20.76522,27083
20.77455,26219
20.78390,26749
20.79323,30387
20.80257,30587
20.81192,33141
20.82125,30110
20.83060,27564
20.83993,26629
20.84927,25874
20.85862,25430
20.86795,24974
20.87728,25400
20.88663,26076
20.89597,26212
20.90530,27572
20.91465,27095
20.92398,26941
20.93332,25458
20.94267,25257
20.95200,24099
20.96133,25174
20.97068,24763
20.98002,24025
20.98935,24836
20.99870,24507
21.00803,24399
21.01738,24816
21.02672,25522
21.03605,25097
21.04540,25032
21.05473,24296
21.06407,25242
21.07342,23465
21.08275,25257
21.09208,24196
21.10143,25528
21.11077,25842
21.12010,26590
21.12945,27840
21.13878,26857
21.14812,28781
21.15747,29988
21.16680,28108
21.17615,30000
21.18548,36258
21.19482,42165
21.20417,40988
21.21350,34529
21.22283,31383
21.23218,28569
21.24152,28794
21.25085,27176
21.26020,28078
21.26953,32382
21.27887,40293
21.28822,48604
21.29755,50498
21.30688,44087
21.31623,33822
21.32557,27930
21.33490,24511
21.34425,25187
21.35358,24770
21.36293,25269
21.37227,25135
21.38160,24511
21.39095,24341
21.40028,26741
21.40962,27035
21.41897,26731
21.42830,27281
21.43763,25643
21.44698,25974
21.45632,24287
21.46565,26115
21.47500,25643
21.48433,26668
21.49367,27710
21.50302,27311
21.51235,28061
21.52168,25853
21.53103,24462
21.54037,25271
21.54972,24924
21.55905,26338
21.56838,28829
21.57773,32515
21.58707,35128
21.59640,30623
21.60575,29595
21.61508,26999
21.62442,27772
21.63377,26168
21.64310,26677
21.65243,25438
21.66178,23116
21.67112,25434
21.68045,26958
21.68980,28259
21.69913,29406
21.70847,29897
21.71782,28403
21.72715,29532
21.73650,28951
21.74583,27674
21.75517,25843
21.76452,26583
21.77385,26086
21.78318,26637
21.79253,26129
21.80187,23823
21.81120,26403
21.82055,26784
21.82988,28923
21.83922,27754
21.84857,26562
21.85790,26050
21.86723,25864
21.87658,27373
21.88592,28389
21.89527,32544
21.90460,35434
21.91393,35452
21.92328,35400
21.93262,29557
21.94195,29810
21.95130,28153
21.96063,27794
21.96997,27349
21.97932,30952
21.98865,34551
21.99798,36390
22.00733,36991
22.01667,32271
22.02600,28554
22.03535,28848
22.04468,27816
22.05402,29133
22.06337,30022
22.07270,28942
22.08205,31353
22.09138,30069
22.10072,29913
22.11007,29575
22.11940,27622
22.12873,26558
22.13808,26920
22.14742,27670
22.15675,29813
22.16610,33456
22.17543,38490
22.18477,38131
22.19412,34314
22.20345,28530
22.21278,28257
22.22213,28713
22.23147,30009
22.24080,30475
22.25015,28318
22.25948,27721
22.26883,26644
22.27817,28191
22.28750,31085
22.29685,30849
22.30618,31137
22.31552,28111
22.32487,26994
22.33420,26048
22.34353,28049
22.35288,27049
22.36222,27880
22.37155,27864
22.38090,29061
22.39023,27659
22.39957,27906
22.40892,26675
22.41825,24200
22.42758,26212
22.43693,26520
22.44627,26640
22.45562,25446
22.46495,28620
22.47428,27986
22.48363,27604
22.49297,27394
22.50230,25721
22.51165,25671
22.52098,24963
22.53032,26490
22.53967,28111
22.54900,26109
22.55833,25743
22.56768,25848
22.57702,26467
22.58635,29073
22.59570,29275
22.60503,27990
22.61437,29270
22.62372,28161
22.63305,28132
22.64240,28312
22.65173,27262
22.66107,25748
22.67042,24799
22.67975,25359
22.68908,29081
22.69843,29263
22.70777,28836
22.71710,28176
22.72645,26408
22.73578,27297
22.74512,32097
22.75447,35702
22.76380,38539
22.77313,37858
22.78248,33600
22.79182,31546
22.80117,28157
22.81050,27960
22.81983,28091
22.82918,27553
22.83852,27571
22.84785,29876
22.85720,29226
22.86653,29244
22.87587,30584
22.88522,31039
22.89455,28245
22.90388,28042
22.91323,27304
22.92257,27073
22.93190,27903
22.94125,27059
22.95058,25725
22.95992,26683
22.96927,27220
22.97860,25613
22.98795,25374
22.99728,25750
23.00662,25549
23.01597,26158
23.02530,23874
23.03463,25513
23.04398,23729
23.05332,25308
23.06265,26461
23.07200,24914
23.08133,26059
23.09067,25342
23.10002,23581
23.10935,24132
23.11868,23947
23.12803,24737
23.13737,24278
23.14670,24355
23.15605,24545
23.16538,23688
23.17473,24884
23.18407,24356
23.19340,25452
23.20275,24965
23.21208,24409
23.22142,24574
23.23077,24169
23.24010,24816
23.24943,26437
23.25878,26735
23.26812,28891
23.27745,28958
23.28680,27935
23.29613,26909
23.30547,25220
23.31482,27076
23.32415,28256
23.33348,31306
23.34283,36404
23.35217,36200
23.36152,30713
23.37085,28011
23.38018,27450
23.38953,25667
23.39887,26687
23.40820,26528
23.41755,25127
23.42688,24889
23.43622,26081
23.44557,25614
23.45490,26829
23.46423,26538
23.47358,27773
23.48292,26441
23.49225,26919
23.50160,25864
23.51093,26645
23.52028,26361
23.52962,26899
23.53895,27503
23.54830,27140
23.55763,26267
23.56697,25645
23.57632,26312
23.58565,27158
23.59498,27001
23.60433,25632
23.61367,26685
23.62300,24620
23.63235,25189
23.64168,24600
23.65102,25028
23.66037,23283
23.66970,24107
23.67903,24833
23.68838,23796
23.69772,24717
23.70707,26335
23.71640,25986
23.72573,26017
23.73508,27127
23.74442,26061
23.75375,25841
23.76310,26240
23.77243,26861
23.78177,25695
23.79112,25047
23.80045,24137
23.80978,23321
23.81913,24308
23.82847,24981
23.83780,24383
23.84715,25529
23.85648,24030
23.86582,24744
23.87517,25167
23.88450,23896
23.89385,23945
23.90318,25057
23.91252,24563
23.92187,23580
23.93120,24668
23.94053,25399
23.94988,26036
23.95922,24813
23.96855,23620
23.97790,24196
23.98723,23633
23.99657,25273
24.00592,25624
24.01525,25296
24.02458,24446
24.03393,25652
24.04327,24475
24.05260,25218
24.06195,24578
24.07128,24854
24.08063,25410
24.08997,25547
24.09930,25292
24.10865,25081
24.11798,24619
24.12732,25056
24.13667,24875
24.14600,26051
24.15533,26571
24.16468,25978
24.17402,24000
24.18335,25938
24.19270,25552
24.20203,24294
24.21137,25615
24.22072,25136
24.23005,25975
24.23938,24500
24.24873,25184
24.25807,27671
24.26742,27218
24.27675,26597
24.28608,26410
24.29543,26540
24.30477,26788
24.31410,27309
24.32345,27369
24.33278,26815
24.34212,28553
24.35147,25983
24.36080,27214
24.37013,24730
24.37948,26931
24.38882,25638
24.39815,25580
24.40750,27331
24.41683,27475
24.42617,26480
24.43552,26518
24.44485,28298
24.45420,26822
24.46353,28222
24.47287,25546
24.48222,25962
24.49155,26953
24.50088,27968
24.51023,26090
24.51957,26415
24.52890,26810
24.53825,26851
24.54758,26602
24.55692,26502
24.56627,26120
24.57560,27584
24.58493,26212
24.59428,26577
24.60362,26717
24.61297,26443
24.62230,27140
24.63163,27981
24.64098,27291
24.65032,25985
24.65965,26114
24.66900,26946
24.67833,28240
24.68767,27416
24.69702,26426
24.70635,25779
24.71568,27767
24.72503,26179
24.73437,26270
24.74370,26098
24.75305,26598
24.76238,26851
24.77172,26439
24.78107,26672
24.79040,26613
24.79975,27078
24.80908,26914
24.81842,27996
24.82777,27201
24.83710,26628
24.84643,27401
24.85578,26121
24.86512,27712
24.87445,28943
24.88380,27708
24.89313,29227
24.90247,27283
24.91182,28841
24.92115,27797
24.93048,27979
24.93983,27247
24.94917,27447
24.95850,26896
24.96785,27149
24.97718,27998
24.98653,28294
24.99587,27922
25.00520,27556
25.01455,26659
25.02388,26727
25.03322,26424
25.04257,27103
25.05190,28486
25.06123,27465
25.07058,28664
25.07992,27123
25.08925,26832
25.09860,26948
25.10793,28100
25.11727,27242
25.12662,28442
25.13595,27758
25.14528,28667
25.15463,29458
25.16397,29069
25.17332,30197
25.18265,29844
25.19198,28020
25.20133,27537
25.21067,27305
25.22000,28684
25.22935,27754
25.23868,27929
25.24802,28416
25.25737,26894
25.26670,28877
25.27603,27817
25.28538,28803
25.29472,30623
25.30405,31450
25.31340,34982
25.32273,53247
25.33208,81289
25.34142,94448
25.35075,72425
25.36010,50065
25.36943,40233
25.37877,37412
25.38812,35500
25.39745,34028
25.40678,33846
25.41613,33830
25.42547,33566
25.43480,33140
25.44415,33540
25.45348,33027
25.46282,34756
25.47217,35217
25.48150,36518
25.49083,37638
25.50018,36838
25.50952,37432
25.51887,38307
25.52820,36987
25.53753,37378
25.54688,34703
25.55622,34292
25.56555,34465
25.57490,35722
25.58423,33826
25.59357,33569
25.60292,32052
25.61225,31802
25.62158,32523
25.63093,31996
25.64027,33262
25.64960,35074
25.65895,35382
25.66828,34392
25.67762,32785
25.68697,32449
25.69630,32755
25.70565,33349
25.71498,32084
25.72432,31548
25.73367,33438
25.74300,32091
25.75233,33248
25.76168,34531
25.77102,35453
25.78035,34813
25.78970,32810
25.79903,35148
25.80837,36092
25.81772,36663
25.82705,37576
25.83638,35077
25.84573,35427
25.85507,34332
25.86440,32781
25.87375,34213
25.88308,31828
25.89243,32860
25.90177,33179
25.91110,31697
25.92045,32550
25.92978,32203
25.93912,30762
25.94847,31487
25.95780,30411
25.96713,31210
25.97648,32267
25.98582,31455
25.99515,31450
26.00450,29542
26.01383,29918
26.02317,31163
26.03252,31133
26.04185,30776
26.05118,31553
26.06053,31002
26.06987,30924
26.07922,32986
26.08855,30980
26.09788,30716
26.10723,32027
26.11657,31492
26.12590,31526
26.13525,32451
26.14458,34543
26.15392,34812
26.16327,34483
26.17260,32843
26.18193,30913
26.19128,31107
26.20062,32624
26.20995,31627
26.21930,32798
26.22863,31776
26.23798,33011
26.24732,31523
26.25665,32236
26.26600,33098
26.27533,33040
26.28467,33072
26.29402,31765
26.30335,32879
26.31268,33473
26.32203,32002
26.33137,32589
26.34070,32533
26.35005,32731
26.35938,34035
26.36872,32350
26.37807,32381
26.38740,33910
26.39673,33320
26.40608,34029
26.41542,32654
26.42477,33940
26.43410,34623
26.44343,33665
26.45278,32951
26.46212,33720
26.47145,33264
26.48080,32704
26.49013,32853
26.49947,33078
26.50882,32584
26.51815,33482
26.52748,34987
26.53683,34491
26.54617,34132
26.55550,35188
26.56485,35171
26.57418,34964
26.58352,33277
26.59287,34879
26.60220,34007
26.61155,37117
26.62088,35812
26.63022,36621
26.63957,35800
26.64890,35645
26.65823,35996
26.66758,35397
26.67692,35766
26.68625,34116
26.69560,35987
26.70493,32833
26.71427,34577
26.72362,34574
26.73295,33791
26.74228,35223
26.75163,34843
26.76097,34473
26.77030,35308
26.77965,37199
26.78898,35538
26.79833,34382
26.80767,35459
26.81700,34804
26.82635,37157
26.83568,35634
26.84502,37475
26.85437,35164
26.86370,37670
26.87303,35279
26.88238,36108
26.89172,36166
26.90105,34726
26.91040,34877
26.91973,34428
26.92907,34211
26.93842,35537
26.94775,31940
26.95710,33647
26.96643,31756
26.97577,35060
26.98512,33582
26.99445,34106
27.00378,35376
27.01313,34012
27.02247,34105
27.03180,34740
27.04115,34644
27.05048,33110
27.05982,33948
27.06917,33902
27.07850,33849
27.08783,33145
27.09718,34138
27.10652,32681
27.11585,33329
27.12520,34195
27.13453,33295
27.14388,35989
27.15322,34327
27.16255,36574
27.17190,34560
27.18123,36629
27.19057,36020
27.19992,36374
27.20925,36592
27.21858,37342
27.22793,39790
27.23727,39575
27.24660,38926
27.25595,39683
27.26528,40657
27.27462,41145
27.28397,41493
27.29330,41019
27.30263,40469
27.31198,41056
27.32132,39562
27.33067,40850
27.34000,39223
27.34933,39064
27.35868,39644
27.36802,37574
27.37735,39171
27.38670,37314
27.39603,38009
27.40537,36845
27.41472,35771
27.42405,37792
27.43338,36733
27.44273,37998
27.45207,36556
27.46140,36440
27.47075,34608
27.48008,36716
27.48942,38340
27.49877,39886
27.50810,38413
27.51745,40365
27.52678,40632
27.53612,40058
27.54547,40065
27.55480,38718
27.56413,38402
27.57348,37262
27.58282,38945
27.59215,37364
27.60150,37362
27.61083,36794
27.62017,37807
27.62952,37558
27.63885,36732
27.64818,37185
27.65753,37264
27.66687,43580
27.67620,55630
27.68555,66621
27.69488,60915
27.70423,52844
27.71357,45126
27.72290,44067
27.73225,43021
27.74158,38669
27.75092,39687
27.76027,40052
27.76960,39399
27.77893,39816
27.78828,38294
27.79762,38599
27.80695,40195
27.81630,38249
27.82563,38421
27.83497,40124
27.84432,38331
27.85365,37934
27.86298,38647
27.87233,38573
27.88167,38621
27.89102,39434
27.90035,37887
27.90968,39887
27.91903,35310
27.92837,37364
27.93770,36620
27.94705,38229
27.95638,38869
27.96572,39581
27.97507,37236
27.98440,36318
27.99373,36901
28.00308,35835
28.01242,35699
28.02175,37551
28.03110,38660
28.04043,38331
28.04978,39470
28.05912,38215
28.06845,38160
28.07780,37176
28.08713,38399
28.09647,38474
28.10582,38090
28.11515,38768
28.12448,39464
28.13383,40479
28.14317,41611
28.15250,40553
28.16185,40545
28.17118,39647
28.18052,41051
28.18987,40048
28.19920,40040
28.20853,40320
28.21788,39913
28.22722,40585
28.23657,40281
28.24590,40160
28.25523,38732
28.26458,41052
28.27392,38995
28.28325,40076
28.29260,39200
28.30193,40450
28.31127,40340
28.32062,40793
28.32995,39389
28.33928,39121
28.34863,38244
28.35797,40109
28.36730,40002
28.37665,39159
28.38598,41120
28.39532,39438
28.40467,40537
28.41400,39910
28.42335,40608
28.43268,39253
28.44202,40493
28.45137,42672
28.46070,40374
28.47003,39635
28.47938,39088
28.48872,40808
28.49805,42917
28.50740,42232
28.51673,42973
28.52607,41209
28.53542,39928
28.54475,41658
28.55408,41090
28.56343,43001
28.57277,42415
28.58210,42719
28.59145,42848
28.60078,43075
28.61013,43914
28.61947,43798
28.62880,42367
28.63815,42484
28.64748,43947
28.65682,43646
28.66617,46078
28.67550,49056
28.68483,51660
28.69418,52758
28.70352,48095
28.71285,46761
28.72220,45035
28.73153,44183
28.74087,44164
28.75022,44278
28.75955,44938
28.76890,44770
28.77823,43429
28.78757,45131
28.79692,45224
28.80625,42817
28.81558,43549
28.82493,43736
28.83427,43287
28.84360,44475
28.85295,44228
28.86228,44603
28.87162,45408
28.88097,44161
28.89030,42275
28.89963,44193
28.90898,46500
28.91832,42792
28.92765,43681
28.93700,47044
28.94633,45719
28.95568,44257
28.96502,44998
28.97435,44577
28.98370,43945
28.99303,46086
29.00237,46302
29.01172,46350
29.02105,46954
29.03038,47236
29.03973,46106
29.04907,47424
29.05840,47266
29.06775,47382
29.07708,48093
29.08642,47203
29.09577,46546
29.10510,46647
29.11443,47154
29.12378,46142
29.13312,46552
29.14247,46171
29.15180,47254
29.16113,47551
29.17048,48145
29.17982,47573
29.18915,46486
29.19850,48383
29.20783,51249
29.21717,52596
29.22652,52118
29.23585,48271
29.24518,48619
29.25453,47375
29.26387,47172
29.27320,49116
29.28255,47713
29.29188,48520
29.30122,47419
29.31057,48169
29.31990,50567
29.32925,50070
29.33858,50536
29.34792,49516
29.35727,49723
29.36660,52310
29.37593,49562
29.38528,49877
29.39462,49741
29.40395,53207
29.41330,54039
29.42263,52967
29.43197,52923
29.44132,51150
29.45065,50785
29.45998,55228
29.46933,55474
29.47867,55270
29.48800,59492
29.49735,54301
29.50668,53996
29.51603,53185
29.52537,53530
29.53470,50674
29.54405,49975
29.55338,49432
29.56272,50027
29.57207,47735
29.58140,49813
29.59073,48872
29.60008,49185
29.60942,50271
29.61875,50087
29.62810,50273
29.63743,49042
29.64677,51054
29.65612,51818
29.66545,49610
29.67480,50387
29.68413,48479
29.69347,50060
29.70282,51578
29.71215,50499
29.72148,50101
29.73083,50648
29.74017,50097
29.74950,51172
29.75885,50647
29.76818,49736
29.77752,50653
29.78687,52644
29.79620,52842
29.80553,53821
29.81488,53094
29.82422,50094
29.83355,49785
29.84290,52802
29.85223,53572
29.86158,50606
29.87092,51184
29.88025,52704
29.88960,48666
29.89893,52838
29.90827,49631
29.91762,52392
29.92695,49870
29.93628,52424
29.94563,51230
29.95497,51452
29.96430,50890
29.97365,52665
29.98298,52427
29.99232,50488
30.00167,52286
30.01100,52061
30.02033,53210
30.02968,53074
30.03902,53448
30.04837,49884
30.05770,50683
30.06703,47576
30.07638,51089
30.08572,51163
30.09505,50311
30.10440,48764
30.11373,51809
30.12307,52962
30.13242,55562
30.14175,55148
30.15108,53188
30.16043,54534
30.16977,53554
30.17910,52768
30.18845,52100
30.19778,54998
30.20712,52832
30.21647,51693
30.22580,50767
30.23515,55966
30.24448,52261
30.25382,50806
30.26317,50869
30.27250,51934
30.28183,51014
30.29118,51682
30.30052,51838
30.30985,53297
30.31920,52949
30.32853,53149
30.33787,53822
30.34722,53715
30.35655,53458
30.36588,53502
30.37523,55894
30.38457,57138
30.39392,59276
30.40325,60419
30.41258,63135
30.42193,62455
30.43127,58949
30.44060,60513
30.44995,56341
30.45928,55103
30.46862,55332
30.47797,55077
30.48730,53585
30.49663,54235
30.50598,54525
30.51532,54597
30.52465,54312
30.53400,55480
30.54333,53009
30.55267,55262
30.56202,55597
30.57135,56428
30.58070,57017
30.59003,55540
30.59937,59178
30.60872,60575
30.61805,62768
30.62738,66071
30.63673,68180
30.64607,69213
30.65540,71321
30.66475,70837
30.67408,72543
30.68342,71427
30.69277,69885
30.70210,70273
30.71143,68598
30.72078,66067
30.73012,61115
30.73945,61208
30.74880,61428
30.75813,60004
30.76748,59413
30.77682,56863
30.78615,58780
30.79550,58881
30.80483,57733
30.81417,56347
30.82352,58456
30.83285,59079
30.84218,57900
30.85153,59553
30.86087,59874
30.87020,61263
30.87955,60729
30.88888,62198
30.89822,64608
30.90757,64261
30.91690,64695
30.92623,66158
30.93558,65289
30.94492,66111
30.95427,66822
30.96360,64803
30.97293,67659
30.98228,67198
30.99162,64485
31.00095,65511
31.01030,64168
31.01963,63786
31.02897,64305
31.03832,63253
31.04765,62296
31.05698,65279
31.06633,64406
31.07567,64473
31.08500,62480
31.09435,64295
31.10368,64600
31.11302,64594
31.12237,61849
31.13170,64495
31.14105,61812
31.15038,67863
31.15972,64242
31.16907,67235
31.17840,65765
31.18773,66806
31.19708,67210
31.20642,66404
31.21575,67190
31.22510,67417
31.23443,68639
31.24377,69542
31.25312,67127
31.26245,69012
31.27178,67030
31.28113,68604
31.29047,66868
31.29980,68261
31.30915,68056
31.31848,65861
31.32783,64965
31.33717,66780
31.34650,66376
31.35585,66167
31.36518,65920
