D:\数据\20211118\ZS1E-Z-000007.D Fri Nov 19 04:03:36 2021
Start of data points
0.09752,43057
0.10685,42572
0.11618,43516
0.12553,42177
0.13487,40678
0.14420,44741
0.15355,42134
0.16288,42714
0.17223,43695
0.18157,43284
0.19090,41976
0.20025,42230
0.20958,41109
0.21892,40050
0.22827,40363
0.23760,40104
0.24693,39675
0.25628,39881
0.26562,38109
0.27495,38751
0.28430,39207
0.29363,39918
0.30297,39849
0.31232,38158
0.32165,39782
0.33098,38141
0.34033,40507
0.34967,38052
0.35902,38800
0.36835,39817
0.37768,38446
0.38703,39390
0.39637,38936
0.40570,38453
0.41505,39765
0.42438,38161
0.43372,36326
0.44307,34824
0.45240,31679
0.46173,27059
0.47108,22747
0.48042,15529
0.48975,14828
0.49910,14166
0.50843,14240
0.51777,14009
0.52712,12912
0.53645,13427
0.54580,12575
0.55513,13706
0.56447,11355
0.57382,12069
0.58315,12452
0.59248,13680
0.60183,13132
0.61117,12590
0.62050,12861
0.62985,12007
0.63918,11804
0.64852,11675
0.65787,12260
0.66720,11577
0.67653,11246
0.68588,11093
0.69522,11951
0.70457,11643
0.71390,12335
0.72323,11672
0.73258,11120
0.74192,12137
0.75125,11109
0.76060,10420
0.76993,10213
0.77927,11091
0.78862,11273
0.79795,10598
0.80728,11687
0.81663,11147
0.82597,10374
0.83530,10126
0.84465,11176
0.85398,10969
0.86332,10131
0.87267,11168
0.88200,10398
0.89135,10106
0.90068,10783
0.91002,10869
0.91937,9766
0.92870,10307
0.93803,10878
0.94738,9462
0.95672,10798
0.96605,10433
0.97540,10375
0.98473,11533
0.99407,11124
1.00342,10743
1.01275,10331
1.02208,10707
1.03143,9754
1.04077,10186
1.05010,11201
1.05945,10839
1.06878,9811
1.07813,8707
1.08747,10604
1.09680,9006
1.10615,10328
1.11548,9585
1.12482,10331
1.13417,10315
1.14350,10600
1.15283,11064
1.16218,11005
1.17152,10397
1.18085,9683
1.19020,9884
1.19953,9766
1.20887,9847
1.21822,9588
1.22755,9554
1.23688,9749
1.24623,9686
1.25557,9166
1.26492,9900
1.27425,10061
1.28358,9096
1.29293,9546
1.30227,10209
1.31160,9922
1.32095,10129
1.33028,9006
1.33962,8988
1.34897,9821
1.35830,10261
1.36763,10167
1.37698,9194
1.38632,8560
1.39565,11170
1.40500,9644
1.41433,8600
1.42368,9941
1.43302,9187
1.44235,9279
1.45170,9584
1.46103,8993
1.47037,9182
1.47972,8058
1.48905,8828
1.49838,8889
1.50773,9473
1.51707,8405
1.52640,9200
1.53575,8589
1.54508,9803
1.55442,8884
1.56377,8265
1.57310,9623
1.58243,9654
1.59178,9115
1.60112,13652
1.61047,20762
1.61980,28839
1.62913,35066
1.63848,43013
1.64782,58683
1.65715,69705
1.66650,68979
1.67583,66527
1.68517,56924
1.69452,47572
1.70385,38086
1.71318,31462
1.72253,28468
1.73187,30404
1.74120,34677
1.75055,36447
1.75988,42131
1.76922,49400
1.77857,50766
1.78790,51235
1.79725,51794
1.80658,50780
1.81592,52158
1.82527,48489
1.83460,47994
1.84393,48788
1.85328,48367
1.86262,50645
1.87195,56423
1.88130,86844
1.89063,148526
1.89997,209846
1.90932,237396
1.91865,315711
1.92798,621630
1.93733,1314402
1.94667,2301424
1.95600,2953780
1.96535,2839205
1.97468,2274686
1.98403,1689068
1.99337,1278265
2.00270,1036613
2.01205,899730
2.02138,793405
2.03072,654163
2.04007,502760
2.04940,364767
2.05873,274153
2.06808,205615
2.07742,158271
2.08675,136270
2.09610,169177
2.10543,205622
2.11477,169637
2.12412,130181
2.13345,119547
2.14278,147296
2.15213,166306
2.16147,146485
2.17082,130885
2.18015,126988
2.18948,172933
2.19883,250384
2.20817,225792
2.21750,156702
2.22685,125640
2.23618,147259
2.24552,287452
2.25487,1029107
2.26420,2704049
2.27353,2993403
2.28288,2228532
2.29222,1410922
2.30155,949585
2.31090,2313435
2.32023,8181325
2.32957,1.184792E+07
2.33892,8399225
2.34825,3997617
2.35760,1700244
2.36693,779648
2.37627,424385
2.38562,311258
2.39495,263126
2.40428,221742
2.41363,193748
2.42297,178806
2.43230,185979
2.44165,191026
2.45098,163605
2.46032,137893
2.46967,146434
2.47900,169380
2.48833,157897
2.49768,129972
2.50702,117790
2.51637,103299
2.52570,101935
2.53503,99359
2.54438,98506
2.55372,116035
2.56305,137941
2.57240,168614
2.58173,238395
2.59107,229067
2.60042,185720
2.60975,161102
2.61908,162176
2.62843,220640
2.63777,280292
2.64710,253415
2.65645,210164
2.66578,174616
2.67512,140195
2.68447,111873
2.69380,92563
2.70315,83768
2.71248,84466
2.72182,102435
2.73117,142673
2.74050,183911
2.74983,230130
2.75918,254960
2.76852,264281
2.77785,256463
2.78720,279870
2.79653,295151
2.80587,272652
2.81522,233671
2.82455,214607
2.83388,194500
2.84323,163248
2.85257,139679
2.86190,139190
2.87125,185247
2.88058,232379
2.88993,216289
2.89927,167918
2.90860,126360
2.91795,110686
2.92728,101114
2.93662,94682
2.94597,85770
2.95530,80325
2.96463,80468
2.97398,78375
2.98332,74735
2.99265,77578
3.00200,83431
3.01133,98248
3.02067,112711
3.03002,111725
3.03935,134194
3.04868,176927
3.05803,181878
3.06737,186195
3.07672,199172
3.08605,200475
3.09538,164038
3.10473,117443
3.11407,91746
3.12340,80522
3.13275,75280
3.14208,74656
3.15142,76981
3.16077,82987
3.17010,85652
3.17943,85372
3.18878,79338
3.19812,76413
3.20745,77135
3.21680,79470
3.22613,77797
3.23548,72385
3.24482,73805
3.25415,74582
3.26350,80314
3.27283,81228
3.28217,74012
3.29152,71817
3.30085,72045
3.31018,78576
3.31953,76468
3.32887,75254
3.33820,76081
3.34755,70776
3.35688,68802
3.36622,67388
3.37557,64980
3.38490,63454
3.39423,61146
3.40358,61817
3.41292,66401
3.42227,76787
3.43160,82089
3.44093,82294
3.45028,88079
3.45962,101876
3.46895,94523
3.47830,84109
3.48763,80381
3.49697,77691
3.50632,76048
3.51565,73927
3.52498,70516
3.53433,68509
3.54367,65365
3.55300,78860
3.56235,168899
3.57168,378653
3.58102,577597
3.59037,519916
3.59970,319114
3.60905,187813
3.61838,149062
3.62772,146339
3.63707,125113
3.64640,109504
3.65573,101415
3.66508,96219
3.67442,102663
3.68375,119184
3.69310,120968
3.70243,100609
3.71177,79493
3.72112,78053
3.73045,88735
3.73978,100096
3.74913,99352
3.75847,85585
3.76780,76404
3.77715,69962
3.78648,67926
3.79583,64726
3.80517,76857
3.81450,172497
3.82385,490194
3.83318,858709
3.84252,950411
3.85187,851214
3.86120,673313
3.87053,396311
3.87988,197098
3.88922,129090
3.89855,137410
3.90790,188006
3.91723,201873
3.92657,161248
3.93592,124603
3.94525,126115
3.95458,176053
3.96393,182217
3.97327,148254
3.98262,114162
3.99195,88619
4.00128,78605
4.01063,104556
4.01997,107190
4.02930,106254
4.03865,113120
4.04798,135176
4.05732,176172
4.06667,180091
4.07600,167824
4.08533,164415
4.09468,174482
4.10402,168413
4.11335,141757
4.12270,111125
4.13203,94757
4.14138,81905
4.15072,78870
4.16005,77041
4.16940,77237
4.17873,72378
4.18807,70805
4.19742,69162
4.20675,70598
4.21608,72739
4.22543,71907
4.23477,71690
4.24410,67216
4.25345,67221
4.26278,66159
4.27212,70114
4.28147,89291
4.29080,95604
4.30013,93533
4.30948,85810
4.31882,82169
4.32817,86149
4.33750,90565
4.34683,92467
4.35618,86215
4.36552,76855
4.37485,68187
4.38420,66310
4.39353,74557
4.40287,74333
4.41222,70831
4.42155,67128
4.43088,62487
4.44023,61374
4.44957,61149
4.45890,56872
4.46825,61838
4.47758,73474
4.48692,98334
4.49627,117604
4.50560,111933
4.51495,90155
4.52428,72625
4.53362,68703
4.54297,68162
4.55230,73446
4.56163,70849
4.57098,68356
4.58032,64887
4.58965,66370
4.59900,66725
4.60833,64875
4.61767,64780
4.62702,64994
4.63635,62892
4.64568,66793
4.65503,74446
4.66437,80891
4.67370,78017
4.68305,73673
4.69238,74410
4.70173,83445
4.71107,93539
4.72040,87899
4.72975,75833
4.73908,69065
4.74842,71177
4.75777,70673
4.76710,72360
4.77643,68514
4.78578,67163
4.79512,65823
4.80445,63568
4.81380,65004
4.82313,66571
4.83247,70221
4.84182,74024
4.85115,76870
4.86050,73264
4.86983,72015
4.87917,82310
4.88852,90686
4.89785,93096
4.90718,92406
4.91653,94295
4.92587,90215
4.93520,82630
4.94455,76966
4.95388,73211
4.96322,68525
4.97257,64155
4.98190,64024
4.99123,58897
5.00058,59078
5.00992,61099
5.01925,61685
5.02860,64127
5.03793,67884
5.04728,67742
5.05662,68630
5.06595,66631
5.07530,64487
5.08463,67759
5.09397,70654
5.10332,70826
5.11265,67735
5.12198,64127
5.13133,62339
5.14067,65484
5.15000,81390
5.15935,93031
5.16868,92532
5.17802,83242
5.18737,98121
5.19670,133450
5.20603,137879
5.21538,106348
5.22472,82058
5.23407,73294
5.24340,74087
5.25273,77767
5.26208,74743
5.27142,86163
5.28075,169446
5.29010,377182
5.29943,560630
5.30877,513985
5.31812,332710
5.32745,206848
5.33678,163006
5.34613,128521
5.35547,96470
5.36480,77704
5.37415,68190
5.38348,73690
5.39282,96006
5.40217,113928
5.41150,113591
5.42085,101824
5.43018,87789
5.43952,74214
5.44887,63528
5.45820,60673
5.46753,58807
5.47688,60989
5.48622,60559
5.49555,61882
5.50490,64006
5.51423,67791
5.52357,72209
5.53292,87875
5.54225,105276
5.55158,104727
5.56093,87304
5.57027,73806
5.57960,66410
5.58895,62118
5.59828,61387
5.60763,60917
5.61697,58116
5.62630,58217
5.63565,57236
5.64498,56310
5.65432,58612
5.66367,62466
5.67300,66146
5.68233,81660
5.69168,84754
5.70102,81539
5.71035,74798
5.71970,75246
5.72903,70737
5.73837,69636
5.74772,74672
5.75705,89880
5.76638,102950
5.77573,120576
5.78507,121011
5.79442,100255
5.80375,76001
5.81308,64651
5.82243,66916
5.83177,84153
5.84110,103718
5.85045,104583
5.85978,78144
5.86912,61835
5.87847,55861
5.88780,51911
5.89713,47422
5.90648,54483
5.91582,104419
5.92515,217273
5.93450,320621
5.94383,300299
5.95318,227595
5.96252,190282
5.97185,137484
5.98120,95952
5.99053,69405
5.99987,55119
6.00922,46785
6.01855,42546
6.02788,38735
6.03723,35914
6.04657,36870
6.05590,39599
6.06525,39378
6.07458,40860
6.08392,37716
6.09327,33614
6.10260,31422
6.11193,31766
6.12128,33957
6.13062,42184
6.13997,50503
6.14930,56829
6.15863,48750
6.16798,38192
6.17732,33653
6.18665,32921
6.19600,32308
6.20533,30098
6.21467,31629
6.22402,31052
6.23335,37955
6.24268,44120
6.25203,46059
6.26137,42841
6.27070,48548
6.28005,79427
6.28938,92977
6.29872,73558
6.30807,48948
6.31740,35273
6.32675,28569
6.33608,29332
6.34542,28141
6.35477,28999
6.36410,30197
6.37343,35929
6.38278,55407
6.39212,108152
6.40145,293965
6.41080,980974
6.42013,2080705
6.42947,2283197
6.43882,1402781
6.44815,544767
6.45748,171822
6.46683,72882
6.47617,54049
6.48550,50003
6.49485,50002
6.50418,46472
6.51353,42371
6.52287,39600
6.53220,37324
6.54155,35978
6.55088,30797
6.56022,30680
6.56957,28301
6.57890,29004
6.58823,30501
6.59758,34653
6.60692,41776
6.61625,43528
6.62560,45205
6.63493,47308
6.64427,48947
6.65362,48316
6.66295,44501
6.67230,44982
6.68163,40731
6.69097,37660
6.70032,42243
6.70965,50180
6.71898,49678
6.72833,45191
6.73767,37239
6.74700,33427
6.75635,31150
6.76568,30014
6.77502,29814
6.78437,34946
6.79370,41733
6.80303,51095
6.81238,51505
6.82172,46982
6.83105,38240
6.84040,33439
6.84973,35755
6.85908,39440
6.86842,35963
6.87775,33384
6.88710,30292
6.89643,30192
6.90577,34733
6.91512,37740
6.92445,39557
6.93378,37242
6.94313,32344
6.95247,30350
6.96180,34047
6.97115,34517
6.98048,34960
6.98982,33485
6.99917,32455
7.00850,31266
7.01783,29976
7.02718,31295
7.03652,30076
7.04587,27110
7.05520,26009
7.06453,24963
7.07388,25686
7.08322,27510
7.09255,30113
7.10190,33739
7.11123,38410
7.12057,40662
7.12992,39291
7.13925,35015
7.14858,32353
7.15793,30951
7.16727,31259
7.17660,30255
7.18595,30338
7.19528,32302
7.20462,31801
7.21397,32105
7.22330,37115
7.23265,53125
7.24198,89551
7.25132,127064
7.26067,119120
7.27000,84793
7.27933,67044
7.28868,64423
7.29802,56929
7.30735,49512
7.31670,39075
7.32603,31924
7.33537,29741
7.34472,28527
7.35405,28289
7.36338,27970
7.37273,28151
7.38207,30281
7.39140,37761
7.40075,81735
7.41008,173979
7.41943,256428
7.42877,244766
7.43810,160545
7.44745,87450
7.45678,49362
7.46612,35971
7.47547,32501
7.48480,39882
7.49413,47476
7.50348,46468
7.51282,41405
7.52215,32795
7.53150,31161
7.54083,31156
7.55017,29240
7.55952,28932
7.56885,31931
7.57820,35325
7.58753,36573
7.59687,37365
7.60622,38321
7.61555,38965
7.62488,40997
7.63423,38964
7.64357,38491
7.65290,34831
7.66225,32098
7.67158,31888
7.68092,33471
7.69027,38978
7.69960,40631
7.70893,46335
7.71828,55572
7.72762,51302
7.73695,42228
7.74630,39512
7.75563,42940
7.76498,47838
7.77432,44031
7.78365,43174
7.79300,42399
7.80233,43401
7.81167,38197
7.82102,33143
7.83035,29685
7.83968,30919
7.84903,34569
7.85837,48397
7.86770,85835
7.87705,134598
7.88638,142373
7.89572,104700
7.90507,69974
7.91440,67538
7.92373,104499
7.93308,137124
7.94242,112678
7.95177,89213
7.96110,100479
7.97043,114221
7.97978,144277
7.98912,217495
7.99845,243829
8.00780,191566
8.01713,111566
8.02647,75577
8.03582,62195
8.04515,70751
8.05448,79932
8.06383,74366
8.07317,55193
8.08250,47031
8.09185,58843
8.10118,90361
8.11052,107564
8.11987,92181
8.12920,68046
8.13855,51281
8.14788,46598
8.15722,44500
8.16657,41895
8.17590,39579
8.18523,40083
8.19458,40562
8.20392,39102
8.21325,40035
8.22260,43824
8.23193,46169
8.24127,50836
8.25062,56870
8.25995,61042
8.26928,61433
8.27863,54763
8.28797,43451
8.29732,40112
8.30665,41642
8.31598,41690
8.32533,40069
8.33467,37783
8.34400,38465
8.35335,35385
8.36268,35885
8.37202,36802
8.38137,43364
8.39070,51165
8.40003,54587
8.40938,52532
8.41872,49867
8.42805,51880
8.43740,53558
8.44673,51936
8.45607,46703
8.46542,45670
8.47475,45272
8.48410,47453
8.49343,41390
8.50277,41112
8.51212,43747
8.52145,41119
8.53078,37703
8.54013,39993
8.54947,42851
8.55880,47513
8.56815,56771
8.57748,62547
8.58682,58912
8.59617,51640
8.60550,49489
8.61483,48904
8.62418,48113
8.63352,46130
8.64285,50158
8.65220,47965
8.66153,44436
8.67088,46313
8.68022,46613
8.68955,48164
8.69890,48378
8.70823,49893
8.71757,52039
8.72692,44077
8.73625,40761
8.74558,52113
8.75493,83538
8.76427,108664
8.77360,101944
8.78295,73998
8.79228,53860
8.80162,53970
8.81097,69122
8.82030,88016
8.82963,86678
8.83898,66737
8.84832,47989
8.85767,42726
8.86700,44022
8.87633,53182
8.88568,61567
8.89502,64787
8.90435,61072
8.91370,55527
8.92303,53345
8.93237,58867
8.94172,58644
8.95105,57041
8.96038,48546
8.96973,47501
8.97907,51600
8.98840,53569
8.99775,51148
9.00708,58116
9.01642,63401
9.02577,58240
9.03510,48173
9.04445,49402
9.05378,52716
9.06312,57635
9.07247,66842
9.08180,80654
9.09113,102392
9.10048,115684
9.10982,105788
9.11915,76602
9.12850,58459
9.13783,59659
9.14717,65928
9.15652,67492
9.16585,57306
9.17518,49378
9.18453,48665
9.19387,49045
9.20320,52192
9.21255,68100
9.22188,102655
9.23123,183053
9.24057,258578
9.24990,259679
9.25925,177042
9.26858,104382
9.27792,69368
9.28727,58909
9.29660,54154
9.30593,48968
9.31528,52282
9.32462,71336
9.33395,122186
9.34330,158016
9.35263,140963
9.36197,121422
9.37132,202459
9.38065,344430
9.39000,386608
9.39933,309056
9.40867,197251
9.41802,125380
9.42735,106370
9.43668,105920
9.44603,83072
9.45537,62666
9.46470,51169
9.47405,45603
9.48338,43607
9.49272,53927
9.50207,71525
9.51140,80672
9.52073,73265
9.53008,58471
9.53942,59443
9.54875,66473
9.55810,89356
9.56743,154713
9.57678,201162
9.58612,167055
9.59545,99887
9.60480,93138
9.61413,113038
9.62347,103113
9.63282,75899
9.64215,66384
9.65148,63046
9.66083,54156
9.67017,52393
9.67950,56195
9.68885,61828
9.69818,63049
9.70752,60206
9.71687,49818
9.72620,85950
9.73553,336488
9.74488,1065692
9.75422,1866839
9.76357,1857041
9.77290,1086406
9.78223,460641
9.79158,222422
9.80092,154028
9.81025,116888
9.81960,104577
9.82893,116672
9.83827,146434
9.84762,200383
9.85695,243962
9.86628,217435
9.87563,155792
9.88497,124618
9.89430,151352
9.90365,168075
9.91298,197168
9.92232,319026
9.93167,433062
9.94100,354341
9.95035,204078
9.95968,107799
9.96902,88450
9.97837,175566
9.98770,539151
9.99703,1080963
10.00638,1212672
10.01572,765106
10.02505,297541
10.03440,112030
10.04373,73168
10.05307,66773
10.06242,67991
10.07175,80665
10.08108,96391
10.09043,110679
10.09977,119566
10.10912,240092
10.11845,1320851
10.12778,6072074
10.13713,1.352343E+07
10.14647,1.498222E+07
10.15580,9437419
10.16515,5813361
10.17448,7045317
10.18382,7858974
10.19317,4557261
10.20250,1228001
10.21183,234126
10.22118,98567
10.23052,90841
10.23985,113689
10.24920,161860
10.25853,180305
10.26787,142034
10.27722,91391
10.28655,69872
10.29590,69415
10.30523,65091
10.31457,63314
10.32392,65082
10.33325,63722
10.34258,60660
10.35193,56687
10.36127,56686
10.37060,58533
10.37995,56420
10.38928,52975
10.39862,49501
10.40797,47043
10.41730,49454
10.42663,50119
10.43598,50295
10.44532,49843
10.45465,55672
10.46400,72869
10.47333,87691
10.48268,88930
10.49202,72594
10.50135,58605
10.51070,51752
10.52003,49677
10.52937,48170
10.53872,48808
10.54805,51928
10.55738,56881
10.56673,62426
10.57607,74996
10.58540,82427
10.59475,77812
10.60408,68641
10.61342,60643
10.62277,55996
10.63210,67563
10.64143,97775
10.65078,115634
10.66012,92794
10.66947,65834
10.67880,58971
10.68813,66026
10.69748,65129
10.70682,61364
10.71615,61274
10.72550,71791
10.73483,80799
10.74417,72756
10.75352,79009
10.76285,128750
10.77218,201150
10.78153,229128
10.79087,185051
10.80020,141222
10.80955,145940
10.81888,164114
10.82822,139246
10.83757,94453
10.84690,63987
10.85625,55072
10.86558,57080
10.87492,61553
10.88427,72728
10.89360,86384
10.90293,87178
10.91228,76890
10.92162,64323
10.93095,70720
10.94030,80480
10.94963,80745
10.95897,71529
10.96832,58451
10.97765,57376
10.98698,56249
10.99633,52858
11.00567,51408
11.01502,52737
11.02435,49795
11.03368,47685
11.04303,50654
11.05237,50516
11.06170,48275
11.07105,46475
11.08038,50190
11.08972,53311
11.09907,51883
11.10840,57989
11.11773,77563
11.12708,84921
11.13642,72307
11.14575,62291
11.15510,56350
11.16443,55708
11.17377,52962
11.18312,51490
11.19245,53052
11.20180,54796
11.21113,57907
11.22047,60456
11.22982,62593
11.23915,61306
11.24848,56292
11.25783,51146
11.26717,58084
11.27650,63712
11.28585,61213
11.29518,58323
11.30452,55723
11.31387,54757
11.32320,53160
11.33253,55181
11.34188,79324
11.35122,120380
11.36055,164973
11.36990,173505
11.37923,137650
11.38858,93703
11.39792,79881
11.40725,89219
11.41660,100395
11.42593,86342
11.43527,68447
11.44462,57439
11.45395,53025
11.46328,67336
11.47263,96011
11.48197,127908
11.49130,118574
11.50065,83060
11.50998,60632
11.51932,55134
11.52867,51088
11.53800,52630
11.54733,51530
11.55668,63088
11.56602,87199
11.57537,160019
11.58470,251853
11.59403,266965
11.60338,202621
11.61272,141895
11.62205,114590
11.63140,105122
11.64073,100889
11.65007,93004
11.65942,80024
11.66875,75406
11.67808,80872
11.68743,77922
11.69677,68071
11.70610,65864
11.71545,69287
11.72478,71388
11.73412,68541
11.74347,68063
11.75280,67629
11.76215,68002
11.77148,69899
11.78082,69100
11.79017,78586
11.79950,86254
11.80883,85702
11.81818,69030
11.82752,62595
11.83685,63465
11.84620,72845
11.85553,76024
11.86487,72509
11.87422,71825
11.88355,79646
11.89288,84215
11.90223,80727
11.91157,80862
11.92092,83687
11.93025,74111
11.93958,74018
11.94893,92518
11.95827,111258
11.96760,104279
11.97695,84059
11.98628,73823
11.99562,73202
12.00497,74344
12.01430,95973
12.02363,132209
12.03298,135718
12.04232,112120
12.05165,87881
12.06100,76764
12.07033,70443
12.07967,62720
12.08902,65275
12.09835,69166
12.10770,75802
12.11703,76758
12.12637,72831
12.13572,69822
12.14505,73584
12.15438,75308
12.16373,83551
12.17307,145754
12.18240,297786
12.19175,405313
12.20108,327823
12.21042,168536
12.21977,90682
12.22910,94373
12.23843,126307
12.24778,148133
12.25712,120725
12.26645,111120
12.27580,209219
12.28513,425350
12.29448,559841
12.30382,398304
12.31315,192673
12.32250,103750
12.33183,83446
12.34117,94412
12.35052,110648
12.35985,108927
12.36918,88599
12.37853,78007
12.38787,93301
12.39720,150717
12.40655,221157
12.41588,227273
12.42522,173445
12.43457,130837
12.44390,111560
12.45323,94739
12.46258,93937
12.47192,107205
12.48127,109446
12.49060,113579
12.49993,114022
12.50928,114561
12.51862,112121
12.52795,111837
12.53730,120537
12.54663,119103
12.55597,106877
12.56532,103389
12.57465,117659
12.58398,158472
12.59333,189159
12.60267,186049
12.61200,142371
12.62135,98690
12.63068,85658
12.64002,94124
12.64937,109740
12.65870,118873
12.66805,110537
12.67738,96475
12.68672,81300
12.69607,71436
12.70540,69859
12.71473,76898
12.72408,87513
12.73342,94855
12.74275,97169
12.75210,97346
12.76143,107749
12.77077,113777
12.78012,96855
12.78945,79643
12.79878,68195
12.80813,64972
12.81747,70477
12.82682,74830
12.83615,76234
12.84548,79335
12.85483,77704
12.86417,71482
12.87350,70847
12.88285,72974
12.89218,74445
12.90152,78888
12.91087,81579
12.92020,75791
12.92953,65785
12.93888,67680
12.94822,79192
12.95755,88084
12.96690,84802
12.97623,74164
12.98557,62794
12.99492,55223
13.00425,53204
13.01360,55043
13.02293,58900
13.03227,75603
13.04162,101890
13.05095,114456
13.06028,104953
13.06963,94355
13.07897,105805
13.08830,116289
13.09765,100706
13.10698,83594
13.11632,77138
13.12567,72277
13.13500,79695
13.14433,93201
13.15368,96624
13.16302,92025
13.17235,87023
13.18170,98661
13.19103,226406
13.20038,1152257
13.20972,5111525
13.21905,1.261546E+07
13.22840,1.693647E+07
13.23773,1.181372E+07
13.24707,4499597
13.25642,1065078
13.26575,346969
13.27508,207444
13.28443,146345
13.29377,127349
13.30310,127824
13.31245,118445
13.32178,110875
13.33112,118420
13.34047,114515
13.34980,108986
13.35913,105482
13.36848,103458
13.37782,91501
13.38717,80838
13.39650,89553
13.40583,127756
13.41518,144096
13.42452,115779
13.43385,85949
13.44320,91199
13.45253,107974
13.46187,112851
13.47122,97626
13.48055,88315
13.48988,87558
13.49923,79343
13.50857,71172
13.51790,83821
13.52725,163744
13.53658,296126
13.54593,334161
13.55527,214279
13.56460,113539
13.57395,75024
13.58328,64383
13.59262,62843
13.60197,61662
13.61130,66364
13.62063,64772
13.62998,65468
13.63932,71199
13.64865,69081
13.65800,68974
13.66733,72714
13.67667,66909
13.68602,67628
13.69535,62529
13.70468,61403
13.71403,65456
13.72337,69627
13.73272,61848
13.74205,52560
13.75138,52178
13.76073,54975
13.77007,58018
13.77940,57939
13.78875,56675
13.79808,58104
13.80742,73876
13.81677,88528
13.82610,94266
13.83543,78691
13.84478,64959
13.85412,58751
13.86345,63301
13.87280,71150
13.88213,80517
13.89147,84346
13.90082,112301
13.91015,200152
13.91950,407598
13.92883,687772
13.93817,655551
13.94752,355932
13.95685,158541
13.96618,102734
13.97553,90602
13.98487,80025
13.99420,73907
14.00355,75518
14.01288,75524
14.02222,73293
14.03157,66739
14.04090,71596
14.05023,154567
14.05958,860683
14.06892,3983296
14.07825,1.024334E+07
14.08760,1.612247E+07
14.09693,1.392492E+07
14.10628,5304485
14.11562,913181
14.12495,155937
14.13430,89614
14.14363,85501
14.15297,89170
14.16232,93716
14.17165,106617
14.18098,129269
14.19033,165664
14.19967,264942
14.20900,340135
14.21835,278660
14.22768,153238
14.23702,82139
14.24637,62445
14.25570,57650
14.26503,61089
14.27438,74580
14.28372,84070
14.29307,79815
14.30240,67773
14.31173,66668
14.32108,83622
14.33042,129998
14.33975,178845
14.34910,177226
14.35843,136038
14.36777,96304
14.37712,75926
14.38645,64350
14.39578,65723
14.40513,69327
14.41447,68971
14.42380,59192
14.43315,55797
14.44248,61477
14.45182,81997
14.46117,140736
14.47050,218771
14.47985,268517
14.48918,221563
14.49852,141821
14.50787,84546
14.51720,66919
14.52653,57025
14.53588,53475
14.54522,56173
14.55455,59663
14.56390,66920
14.57323,69446
14.58257,68653
14.59192,63163
14.60125,59657
14.61058,59294
14.61993,57118
14.62927,59413
14.63862,68569
14.64795,98405
14.65728,152566
14.66663,189566
14.67597,164454
14.68530,118053
14.69465,82701
14.70398,66457
14.71332,59994
14.72267,57087
14.73200,59343
14.74133,65173
14.75068,66607
14.76002,63283
14.76935,65547
14.77870,70555
14.78803,76828
14.79737,90389
14.80672,109291
14.81605,115153
14.82540,98785
14.83473,85288
14.84407,73245
14.85342,70090
14.86275,78913
14.87208,111270
14.88143,142589
14.89077,146748
14.90010,105856
14.90945,71974
14.91878,60484
14.92812,61986
14.93747,67378
14.94680,71109
14.95613,79844
14.96548,89856
14.97482,118016
14.98415,134011
14.99350,121458
15.00283,97925
15.01218,101156
15.02152,114769
15.03085,110382
15.04020,93475
15.04953,98834
15.05887,109751
15.06822,118211
15.07755,131526
15.08688,131428
15.09623,102437
15.10557,71944
15.11490,67861
15.12425,73505
15.13358,101631
15.14292,137093
15.15227,135784
15.16160,102335
15.17093,71871
15.18028,63111
15.18962,67142
15.19897,83615
15.20830,119555
15.21763,194059
15.22698,286434
15.23632,336849
15.24565,307580
15.25500,223759
15.26433,142707
15.27367,94279
15.28302,74635
15.29235,72007
15.30168,69936
15.31103,66827
15.32037,64609
15.32970,68698
15.33905,79836
15.34838,85024
15.35773,82778
15.36707,83245
15.37640,100113
15.38575,112201
15.39508,100237
15.40442,74125
15.41377,61721
15.42310,63033
15.43243,73602
15.44178,82531
15.45112,76521
15.46045,64600
15.46980,65310
15.47913,66282
15.48847,68214
15.49782,72521
15.50715,91899
15.51648,149388
15.52583,244240
15.53517,287362
15.54452,210390
15.55385,117812
15.56318,75026
15.57253,60048
15.58187,58130
15.59120,56828
15.60055,57364
15.60988,64999
15.61922,72549
15.62857,80111
15.63790,95365
15.64723,103062
15.65658,108667
15.66592,121901
15.67525,134947
15.68460,120575
15.69393,91729
15.70327,92427
15.71262,124506
15.72195,138936
15.73130,110625
15.74063,79437
15.74997,83565
15.75932,112752
15.76865,136209
15.77798,135472
15.78733,105694
15.79667,86953
15.80600,79654
15.81535,96279
15.82468,140796
15.83402,232941
15.84337,376109
15.85270,477356
15.86203,432149
15.87138,254153
15.88072,143763
15.89005,125009
15.89940,142527
15.90873,168111
15.91808,162423
15.92742,129388
15.93675,97073
15.94610,76521
15.95543,68209
15.96477,67674
15.97412,75891
15.98345,104362
15.99278,169375
16.00213,224362
16.01147,214003
16.02080,144887
16.03015,86484
16.03948,67409
16.04882,68511
16.05817,71503
16.06750,76671
16.07683,75636
16.08618,74633
16.09552,67581
16.10487,66645
16.11420,73669
16.12353,87113
16.13288,99410
16.14222,93419
16.15155,78973
16.16090,70718
16.17023,70269
16.17957,66347
16.18892,61741
16.19825,64658
16.20758,73837
16.21693,95335
16.22627,109403
16.23560,110056
16.24495,97885
16.25428,85377
16.26362,83464
16.27297,118371
16.28230,404927
16.29165,1632329
16.30098,4275655
16.31032,6293242
16.31967,4941376
16.32900,2127958
16.33833,571182
16.34768,140828
16.35702,73942
16.36635,63252
16.37570,59952
16.38503,55044
16.39437,56910
16.40372,55916
16.41305,62816
16.42238,64735
16.43173,68435
16.44107,65039
16.45042,65698
16.45975,88449
16.46908,110260
16.47843,112033
16.48777,92718
16.49710,82918
16.50645,76482
16.51578,78359
16.52512,83522
16.53447,81062
16.54380,81465
16.55313,70665
16.56248,64728
16.57182,60590
16.58115,66366
16.59050,79980
16.59983,83832
16.60917,77857
16.61852,68511
16.62785,76988
16.63720,95090
16.64653,107860
16.65587,99510
16.66522,87271
16.67455,73631
16.68388,65918
16.69323,74051
16.70257,93478
16.71190,104555
16.72125,93349
16.73058,74392
16.73992,69333
16.74927,108020
16.75860,197849
16.76793,236822
16.77728,169251
16.78662,97231
16.79595,70034
16.80530,64088
16.81463,68841
16.82398,75713
16.83332,88034
16.84265,105406
16.85200,117632
16.86133,110069
16.87067,81256
16.88002,68703
16.88935,59361
16.89868,62295
16.90803,71853
16.91737,97947
16.92670,130851
16.93605,130578
16.94538,100006
16.95472,89954
16.96407,98827
16.97340,111585
16.98273,109184
16.99208,91649
17.00142,76686
17.01077,70318
17.02010,65750
17.02943,81403
17.03878,136379
17.04812,176220
17.05745,152158
17.06680,111262
17.07613,94206
17.08547,93287
17.09482,87515
17.10415,83670
17.11348,76127
17.12283,63201
17.13217,65123
17.14150,74541
17.15085,84848
17.16018,78011
17.16953,63989
17.17887,61481
17.18820,63979
17.19755,66492
17.20688,63051
17.21622,58503
17.22557,54114
17.23490,52997
17.24423,56490
17.25358,55996
17.26292,58794
17.27225,65271
17.28160,70510
17.29093,85380
17.30027,90343
17.30962,87035
17.31895,82881
17.32828,91664
17.33763,98211
17.34697,87628
17.35632,74304
17.36565,68530
17.37498,80177
17.38433,155010
17.39367,314578
17.40300,398284
17.41235,292132
17.42168,149117
17.43102,88780
17.44037,76481
17.44970,74037
17.45903,76149
17.46838,77299
17.47772,73323
17.48705,82195
17.49640,172486
17.50573,747417
17.51507,2622877
17.52442,4945689
17.53375,5028979
17.54310,2577935
17.55243,658234
17.56177,144852
17.57112,80977
17.58045,87035
17.58978,101581
17.59913,106581
17.60847,97605
17.61780,80755
17.62715,73057
17.63648,72721
17.64582,76111
17.65517,75406
17.66450,94072
17.67383,114694
17.68318,129318
17.69252,138958
17.70185,144299
17.71120,153138
17.72053,170045
17.72988,182050
17.73922,152979
17.74855,113593
17.75790,100550
17.76723,112634
17.77657,115718
17.78592,110346
17.79525,95332
17.80458,85392
17.81393,79243
17.82327,69718
17.83260,63758
17.84195,64606
17.85128,76332
17.86062,97296
17.86997,123556
17.87930,133681
17.88863,114972
17.89798,108953
17.90732,102820
17.91667,89206
17.92600,79642
17.93533,74745
17.94468,85541
17.95402,82417
17.96335,74885
17.97270,67268
17.98203,64023
17.99137,60760
18.00072,61714
18.01005,62853
18.01938,68182
18.02873,70508
18.03807,69457
18.04740,67373
18.05675,72596
18.06608,73437
18.07543,72184
18.08477,70032
18.09410,65917
18.10345,76784
18.11278,100131
18.12212,129447
18.13147,134463
18.14080,119840
18.15013,108262
18.15948,100469
18.16882,92380
18.17815,85997
18.18750,81516
18.19683,75160
18.20617,74035
18.21552,71608
18.22485,73363
18.23418,77212
18.24353,78664
18.25287,74214
18.26222,66656
18.27155,62615
18.28088,69581
18.29023,79923
18.29957,94982
18.30890,101740
18.31825,107602
18.32758,100409
18.33692,97146
18.34627,101249
18.35560,122268
18.36493,144938
18.37428,148976
18.38362,138621
18.39295,120930
18.40230,136092
18.41163,174657
18.42097,198965
18.43032,152918
18.43965,108426
18.44900,98852
18.45833,114480
18.46767,114238
18.47702,95118
18.48635,84013
18.49568,98568
18.50503,139838
18.51437,205771
18.52370,226983
18.53305,191819
18.54238,130987
18.55172,110983
18.56107,122442
18.57040,125009
18.57973,102753
18.58908,81816
18.59842,73846
18.60775,79032
18.61710,100268
18.62643,124540
18.63578,119023
18.64512,109183
18.65445,93846
18.66380,93097
18.67313,95690
18.68247,102002
18.69182,102447
18.70115,102325
18.71048,115023
18.71983,128155
18.72917,137792
18.73850,127308
18.74785,106835
18.75718,94116
18.76652,86620
18.77587,78298
18.78520,66512
18.79455,70466
18.80388,71283
18.81322,75030
18.82257,78045
18.83190,79050
18.84123,80233
18.85058,75667
18.85992,78152
18.86925,78635
18.87860,79537
18.88793,78068
18.89727,74862
18.90662,78471
18.91595,103264
18.92528,137638
18.93463,138775
18.94397,119323
18.95330,116917
18.96265,142191
18.97198,154895
18.98133,155477
18.99067,131633
19.00000,101974
19.00935,88916
19.01868,81441
19.02802,80997
19.03737,84164
19.04670,101303
19.05603,166524
19.06538,263225
19.07472,413868
19.08405,669805
19.09340,897003
19.10273,775278
19.11207,450135
19.12142,212045
19.13075,108804
19.14008,75824
19.14943,64059
19.15877,63701
19.16812,61438
19.17745,63150
19.18678,63971
19.19613,74298
19.20547,88466
19.21480,100294
19.22415,103173
19.23348,102007
19.24282,95158
19.25217,87861
19.26150,80271
19.27083,73527
19.28018,75755
19.28952,87470
19.29885,105370
19.30820,130330
19.31753,190675
19.32687,237541
19.33622,206555
19.34555,140372
19.35490,100739
19.36423,80028
19.37357,68184
19.38292,65093
19.39225,63316
19.40158,84762
19.41093,77746
19.42027,81059
19.42960,75708
19.43895,72006
19.44828,63586
19.45762,65623
19.46697,65473
19.47630,74241
19.48563,81613
19.49498,90196
19.50432,96975
19.51365,90079
19.52300,77793
19.53233,69091
19.54168,69561
19.55102,73600
19.56035,66645
19.56970,70866
19.57903,74470
19.58837,88529
19.59772,94468
19.60705,94833
19.61638,81981
19.62573,71831
19.63507,78127
19.64440,93783
19.65375,101809
19.66308,93828
19.67242,75558
19.68177,71908
19.69110,83438
19.70043,96839
19.70978,109681
19.71912,111917
19.72847,125285
19.73780,162546
19.74713,182468
19.75648,157131
19.76582,113698
19.77515,95169
19.78450,95579
19.79383,95199
19.80317,90097
19.81252,74943
19.82185,70604
19.83118,69956
19.84053,71489
19.84987,71754
19.85920,66284
19.86855,71948
19.87788,94500
19.88723,129296
19.89657,140861
19.90590,113627
19.91525,88983
19.92458,79491
19.93392,75658
19.94327,75264
19.95260,72323
19.96193,79349
19.97128,82666
19.98062,82731
19.98995,75774
19.99930,70192
20.00863,68162
20.01797,69136
20.02732,74243
20.03665,80764
20.04598,79878
20.05533,83976
20.06467,77925
20.07402,73517
20.08335,74938
20.09268,77360
20.10203,75655
20.11137,70095
20.12070,63425
20.13005,60014
20.13938,61008
20.14872,65242
20.15807,81022
20.16740,95560
20.17673,97577
20.18608,81683
20.19542,75810
20.20475,68414
20.21410,67961
20.22343,70155
20.23277,78955
20.24212,83655
20.25145,82423
20.26080,83438
20.27013,75522
20.27947,69700
20.28882,72877
20.29815,74139
20.30748,81916
20.31683,78406
20.32617,72884
20.33550,62630
20.34485,60685
20.35418,60315
20.36352,67686
20.37287,71853
20.38220,71313
20.39153,68549
20.40088,65828
20.41022,61435
20.41955,59798
20.42890,62358
20.43823,61188
20.44758,61891
20.45692,66402
20.46625,67363
20.47560,83967
20.48493,102734
20.49427,97344
20.50362,81091
20.51295,68730
20.52228,64965
20.53163,62945
20.54097,65037
20.55030,68862
20.55965,80848
20.56898,121592
20.57832,271480
20.58767,497703
20.59700,536374
20.60635,329276
20.61568,153962
20.62502,96306
20.63437,106674
20.64370,178633
20.65303,283194
20.66238,285576
20.67172,203095
20.68105,127112
20.69040,95094
20.69973,88050
20.70907,82620
20.71842,78660
20.72775,80166
20.73708,79730
20.74643,79908
20.75577,78222
20.76510,73857
20.77445,72807
20.78378,71581
20.79313,75354
20.80247,83477
20.81180,88209
20.82115,82987
20.83048,77875
20.83982,73351
20.84917,66766
20.85850,66081
20.86783,68504
20.87718,65344
20.88652,63493
20.89585,69649
20.90520,74096
20.91453,78868
20.92387,75317
20.93322,70336
20.94255,69127
20.95188,64411
20.96123,62847
20.97057,61454
20.97992,60229
20.98925,61287
20.99858,59703
21.00793,63419
21.01727,64804
21.02660,65639
21.03595,64334
21.04528,60431
21.05462,63374
21.06397,65979
21.07330,67816
21.08263,65889
21.09198,67565
21.10132,65277
21.11065,71312
21.12000,72955
21.12933,77566
21.13867,81439
21.14802,81055
21.15735,81421
21.16670,76841
21.17603,80830
21.18537,92789
21.19472,108414
21.20405,106489
21.21338,87649
21.22273,75861
21.23207,72039
21.24140,69555
21.25075,66048
21.26008,66531
21.26942,72730
21.27877,88911
21.28810,124034
21.29743,152577
21.30678,149485
21.31612,114517
21.32545,85275
21.33480,76142
21.34413,70018
21.35348,68533
21.36282,70474
21.37215,74886
21.38150,74934
21.39083,75788
21.40017,77033
21.40952,79069
21.41885,82013
21.42818,81437
21.43753,80383
21.44687,78328
21.45620,75320
21.46555,72496
21.47488,71116
21.48422,72644
21.49357,79375
21.50290,80501
21.51225,82870
21.52158,78615
21.53092,73316
21.54027,72543
21.54960,74061
21.55893,86579
21.56828,117675
21.57762,164126
21.58695,205678
21.59630,177934
21.60563,121656
21.61497,88958
21.62432,82856
21.63365,84100
21.64298,87165
21.65233,84055
21.66167,77385
21.67100,76169
21.68035,85278
21.68968,100946
21.69903,106230
21.70837,113419
21.71770,104224
21.72705,97021
21.73638,94872
21.74572,89444
21.75507,82044
21.76440,74467
21.77373,70591
21.78308,69030
21.79242,72927
21.80175,74133
21.81110,81986
21.82043,89636
21.82977,100195
21.83912,98633
21.84845,90356
21.85778,81607
21.86713,77152
21.87647,78751
21.88582,85134
21.89515,98954
21.90448,112108
21.91383,103627
21.92317,92914
21.93250,81430
21.94185,76112
21.95118,72641
21.96052,77986
21.96987,86754
21.97920,96700
21.98853,111402
21.99788,125612
22.00722,129348
22.01655,118078
22.02590,94424
22.03523,81649
22.04457,87504
22.05392,96016
22.06325,105697
22.07260,98331
22.08193,94757
22.09127,89209
22.10062,84055
22.10995,81337
22.11928,78545
22.12863,77430
22.13797,75518
22.14730,76348
22.15665,87467
22.16598,107278
22.17532,140669
22.18467,161299
22.19400,148350
22.20333,112624
22.21268,95191
22.22202,94838
22.23135,100437
22.24070,104096
22.25003,99436
22.25938,95060
22.26872,91007
22.27805,109870
22.28740,131412
22.29673,160402
22.30607,160647
22.31542,142728
22.32475,113518
22.33408,94311
22.34343,88931
22.35277,95229
22.36210,110424
22.37145,124887
22.38078,129853
22.39012,129227
22.39947,125795
22.40880,111738
22.41815,100446
22.42748,95522
22.43682,104406
22.44617,113680
22.45550,116536
22.46483,108236
22.47418,103639
22.48352,95889
22.49285,93947
22.50220,86929
22.51153,89414
22.52087,91830
22.53022,93444
22.53955,89363
22.54888,88098
22.55823,88841
22.56757,97054
22.57690,107825
22.58625,118040
22.59558,125702
22.60493,124162
22.61427,121760
22.62360,121833
22.63295,115208
22.64228,112606
22.65162,107695
22.66097,95220
22.67030,91035
22.67963,93053
22.68898,100836
22.69832,120445
22.70765,129942
22.71700,119373
22.72633,106061
22.73567,111766
22.74502,125915
22.75435,128119
22.76368,129612
22.77303,124790
22.78237,116024
22.79172,105724
22.80105,110166
22.81038,128275
22.81973,140121
22.82907,125046
22.83840,116520
22.84775,107139
22.85708,102287
22.86642,97852
22.87577,98728
22.88510,107256
22.89443,102056
22.90378,101819
22.91312,99074
22.92245,107030
22.93180,114466
22.94113,119258
22.95047,113654
22.95982,100372
22.96915,96333
22.97850,95059
22.98783,90109
22.99717,88030
23.00652,85722
23.01585,82596
23.02518,80275
23.03453,81145
23.04387,83006
23.05320,85404
23.06255,87019
23.07188,86896
23.08122,84991
23.09057,84281
23.09990,81885
23.10923,80331
23.11858,76007
23.12792,77374
23.13725,80397
23.14660,78718
23.15593,80748
23.16528,81268
23.17462,83552
23.18395,82969
23.19330,84251
23.20263,81353
23.21197,78773
23.22132,77996
23.23065,82538
23.23998,79740
23.24933,88509
23.25867,94447
23.26800,97599
23.27735,100341
23.28668,90022
23.29602,87408
23.30537,82165
23.31470,80499
23.32405,83181
23.33338,97244
23.34272,118286
23.35207,126462
23.36140,116742
23.37073,94103
23.38008,86873
23.38942,87386
23.39875,90518
23.40810,89830
23.41743,91154
23.42677,86848
23.43612,87137
23.44545,82919
23.45478,83931
23.46413,84079
23.47347,85467
23.48280,84822
23.49215,78703
23.50148,77172
23.51083,79549
23.52017,78810
23.52950,80656
23.53885,84217
23.54818,81672
23.55752,82219
23.56687,82952
23.57620,82113
23.58553,85125
23.59488,86329
23.60422,89618
23.61355,85937
23.62290,80642
23.63223,78582
23.64157,78601
23.65092,76154
23.66025,73555
23.66958,75614
23.67893,77211
23.68827,83743
23.69762,89346
23.70695,97425
23.71628,102653
23.72563,109539
23.73497,114802
23.74430,121194
23.75365,113677
23.76298,97915
23.77232,87107
23.78167,82122
23.79100,84779
23.80033,79309
23.80968,79684
23.81902,77748
23.82835,79832
23.83770,78393
23.84703,78339
23.85637,76929
23.86572,79990
23.87505,78240
23.88440,80889
23.89373,81164
23.90307,81502
23.91242,80760
23.92175,80885
23.93108,82064
23.94043,79967
23.94977,81093
23.95910,82627
23.96845,83916
23.97778,84963
23.98712,78460
23.99647,77824
24.00580,77469
24.01513,81620
24.02448,83187
24.03382,81889
24.04317,78979
24.05250,79428
24.06183,76087
24.07118,76112
24.08052,76321
24.08985,81487
24.09920,84819
24.10853,83244
24.11787,80361
24.12722,77540
24.13655,76876
24.14588,76884
24.15523,80935
24.16457,79423
24.17390,78332
24.18325,81023
24.19258,81049
24.20192,79594
24.21127,77894
24.22060,77586
24.22995,78542
24.23928,81236
24.24862,80452
24.25797,82133
24.26730,82603
24.27663,79933
24.28598,79815
24.29532,83262
24.30465,83837
24.31400,84879
24.32333,91292
24.33267,97448
24.34202,97960
24.35135,94185
24.36068,88386
24.37003,85962
24.37937,86499
24.38870,87628
24.39805,87251
24.40738,89740
24.41673,92360
24.42607,88369
24.43540,87284
24.44475,84766
24.45408,85130
24.46342,86738
24.47277,85550
24.48210,85092
24.49143,84736
24.50078,91358
24.51012,87220
24.51945,88194
24.52880,89375
24.53813,88586
24.54747,89144
24.55682,91038
24.56615,93186
24.57548,90654
24.58483,89053
24.59417,86011
24.60352,86185
24.61285,91476
24.62218,99217
24.63153,99761
24.64087,98240
24.65020,92044
24.65955,92263
24.66888,93886
24.67822,97332
24.68757,101529
24.69690,99754
24.70623,99076
24.71558,98219
24.72492,97816
24.73425,98990
24.74360,89176
24.75293,88875
24.76227,88638
24.77162,87963
24.78095,86882
24.79030,84164
24.79963,83327
24.80897,85070
24.81832,87850
24.82765,89873
24.83698,89390
24.84633,87123
24.85567,85655
24.86500,87119
24.87435,83981
24.88368,89265
24.89302,88996
24.90237,89983
24.91170,92711
24.92103,87588
24.93038,89056
24.93972,93699
24.94905,89059
24.95840,95245
24.96773,98040
24.97708,101544
24.98642,97352
24.99575,96796
25.00510,94602
25.01443,91689
25.02377,94876
25.03312,90005
25.04245,90417
25.05178,92156
25.06113,88508
25.07047,90036
25.07980,90998
25.08915,91849
25.09848,95458
25.10782,92629
25.11717,94238
25.12650,93593
25.13585,93570
25.14518,98496
25.15452,104351
25.16387,106253
25.17320,106583
25.18253,98188
25.19188,92622
25.20122,96469
25.21055,96869
25.21990,99634
25.22923,99000
25.23857,97102
25.24792,95950
25.25725,97161
25.26658,95207
25.27593,96609
25.28527,92905
25.29460,94300
25.30395,96082
25.31328,97817
25.32263,103493
25.33197,120723
25.34130,152760
25.35065,165276
25.35998,145131
25.36932,127466
25.37867,118511
25.38800,113645
25.39733,111239
25.40668,106217
25.41602,107075
25.42535,106468
25.43470,105007
25.44403,105771
25.45337,104987
25.46272,105585
25.47205,109686
25.48138,117480
25.49073,126810
25.50007,138460
25.50942,132651
25.51875,126612
25.52808,122493
25.53743,116110
25.54677,121806
25.55610,118629
25.56545,117013
25.57478,120055
25.58412,118289
25.59347,114615
25.60280,111641
25.61213,111953
25.62148,111940
25.63082,112489
25.64015,109125
25.64950,115070
25.65883,119664
25.66817,124715
25.67752,125031
25.68685,119901
25.69620,114611
25.70553,113657
25.71487,110397
25.72422,113684
25.73355,117551
25.74288,118538
25.75223,121899
25.76157,121606
25.77090,124037
25.78025,119902
25.78958,117700
25.79892,121504
25.80827,122291
25.81760,129984
25.82693,132087
25.83628,128715
25.84562,134358
25.85497,136122
25.86430,132341
25.87363,123687
25.88298,124470
25.89232,121282
25.90165,125540
25.91100,122000
25.92033,120128
25.92967,122848
25.93902,125209
25.94835,134249
25.95768,141807
25.96703,150368
25.97637,149868
25.98570,139008
25.99505,130652
26.00438,126037
26.01372,127744
26.02307,127300
26.03240,128707
26.04175,131869
26.05108,138669
26.06042,137585
26.06977,143222
26.07910,140982
26.08843,138904
26.09778,135987
26.10712,132682
26.11645,132051
26.12580,130576
26.13513,134286
26.14447,138565
26.15382,149930
26.16315,155938
26.17248,152199
26.18183,151364
26.19117,145511
26.20050,138168
26.20985,133889
26.21918,128558
26.22853,129609
26.23787,131644
26.24720,132385
26.25655,129547
26.26588,133142
26.27522,130139
26.28457,133993
26.29390,131452
26.30323,133056
26.31258,136277
26.32192,139417
26.33125,140477
26.34060,139293
26.34993,137312
26.35927,135891
26.36862,136619
26.37795,138641
26.38728,137336
26.39663,134477
26.40597,134542
26.41532,131336
26.42465,134741
26.43398,137880
26.44333,142159
26.45267,148141
26.46200,152540
26.47135,160547
26.48068,155499
26.49002,154329
26.49937,159057
26.50870,155900
26.51803,163090
26.52738,163780
26.53672,170044
26.54605,181896
26.55540,186729
26.56473,178286
26.57407,174775
26.58342,171184
26.59275,169493
26.60210,173397
26.61143,172305
26.62077,173841
26.63012,166492
26.63945,162874
26.64878,155733
26.65813,159796
26.66747,161519
26.67680,163444
26.68615,165219
26.69548,160738
26.70482,157866
26.71417,156358
26.72350,153056
26.73283,155552
26.74218,158285
26.75152,156355
26.76085,161265
26.77020,160201
26.77953,163398
26.78888,161629
26.79822,165433
26.80755,165086
26.81690,167115
26.82623,164207
26.83557,165869
26.84492,167352
26.85425,168800
26.86358,168899
26.87293,169833
26.88227,169012
26.89160,166628
26.90095,164209
26.91028,161223
26.91962,165329
26.92897,164489
26.93830,167409
26.94765,164610
26.95698,165418
26.96632,164272
26.97567,165644
26.98500,168492
26.99433,168684
27.00368,172313
27.01302,178414
27.02235,181717
27.03170,176538
27.04103,172444
27.05037,176801
27.05972,181160
27.06905,183230
27.07838,185086
27.08773,175593
27.09707,179697
27.10640,176069
27.11575,175412
27.12508,174994
27.13443,177563
27.14377,179279
27.15310,180378
27.16245,185083
27.17178,186019
27.18112,179830
27.19047,175001
27.19980,172769
27.20913,171658
27.21848,173636
27.22782,175820
27.23715,178198
27.24650,177155
27.25583,188639
27.26517,201505
27.27452,210777
27.28385,199262
27.29318,188932
27.30253,179721
27.31187,176956
27.32122,183729
27.33055,182363
27.33988,181966
27.34923,181737
27.35857,184224
27.36790,182455
27.37725,187262
27.38658,184767
27.39592,184500
27.40527,186409
27.41460,189980
27.42393,189558
27.43328,193911
27.44262,197263
27.45195,198108
27.46130,196462
27.47063,197036
27.47997,195491
27.48932,199213
27.49865,210211
27.50800,220298
27.51733,225255
27.52667,237080
27.53602,243504
27.54535,255489
27.55468,253862
27.56403,248405
27.57337,242074
27.58270,230397
27.59205,224541
27.60138,221545
27.61072,211871
27.62007,208533
27.62940,207117
27.63873,205172
27.64808,205471
27.65742,208022
27.66677,215249
27.67610,217749
27.68543,230265
27.69478,234881
27.70412,227749
27.71345,221277
27.72280,219843
27.73213,215001
27.74147,216190
27.75082,215013
27.76015,213587
27.76948,212486
27.77883,217630
27.78817,222902
27.79750,220402
27.80685,220607
27.81618,218415
27.82552,216592
27.83487,222070
27.84420,224746
27.85355,229345
27.86288,227100
27.87222,232482
27.88157,235088
27.89090,243310
27.90023,242779
27.90958,231680
27.91892,228029
27.92825,228414
27.93760,227671
27.94693,231790
27.95627,227389
27.96562,227192
27.97495,231092
27.98428,229693
27.99363,229611
28.00297,232395
28.01230,227500
28.02165,230318
28.03098,230556
28.04033,233571
28.04967,229547
28.05900,231367
28.06835,232396
28.07768,241290
28.08702,236327
28.09637,240450
28.10570,244455
28.11503,243983
28.12438,257784
28.13372,269667
28.14305,274885
28.15240,264070
28.16173,255579
28.17107,257521
28.18042,259035
28.18975,255463
28.19908,256266
28.20843,251898
28.21777,260994
28.22712,259747
28.23645,262974
28.24578,261743
28.25513,266076
28.26447,260349
28.27380,261066
28.28315,257951
28.29248,265240
28.30182,259965
28.31117,257560
28.32050,261746
28.32983,261374
28.33918,261181
28.34852,259643
28.35785,263481
28.36720,263179
28.37653,267726
28.38587,269863
28.39522,266379
28.40455,266299
28.41390,272209
28.42323,271006
28.43257,273069
28.44192,274122
28.45125,272901
28.46058,270171
28.46993,279108
28.47927,277612
28.48860,280350
28.49795,280127
28.50728,277581
28.51662,286038
28.52597,281011
28.53530,284410
28.54463,291571
28.55398,285971
28.56332,290771
28.57267,285378
28.58200,295327
28.59133,299939
28.60068,309493
28.61002,316510
28.61935,324360
28.62870,326191
28.63803,324103
28.64737,321001
28.65672,319316
28.66605,335121
28.67538,381634
28.68473,473195
28.69407,542558
28.70340,495257
28.71275,408816
28.72208,345104
28.73142,324860
28.74077,314914
28.75010,318485
28.75945,320399
28.76878,315392
28.77812,316536
28.78747,313910
28.79680,313739
28.80613,318699
28.81548,316189
28.82482,320104
28.83415,321313
28.84350,323649
28.85283,322822
28.86217,323633
28.87152,323551
28.88085,320051
28.89018,327977
28.89953,326280
28.90887,328246
28.91820,330243
28.92755,330702
28.93688,333976
28.94623,334780
28.95557,331885
28.96490,338611
28.97425,337503
28.98358,343880
28.99292,339867
29.00227,346449
29.01160,339999
29.02093,347644
29.03028,346037
29.03962,357094
29.04895,358801
29.05830,360826
29.06763,355953
29.07697,341288
29.08632,348031
29.09565,348888
29.10498,347040
29.11433,349795
29.12367,345054
29.13302,344762
29.14235,348177
29.15168,349523
29.16103,350548
29.17037,351909
29.17970,345048
29.18905,356620
29.19838,369901
29.20772,403204
29.21707,429728
29.22640,424383
29.23573,396192
29.24508,368619
29.25442,357149
29.26375,364941
29.27310,359620
29.28243,361021
29.29178,354508
29.30112,357965
29.31045,360100
29.31980,362686
29.32913,366807
29.33847,363915
29.34782,362116
29.35715,362040
29.36648,354769
29.37583,367745
29.38517,366524
29.39450,362615
29.40385,359127
29.41318,360912
29.42252,364218
29.43187,367024
29.44120,366711
29.45053,372603
29.45988,391019
29.46922,436006
29.47857,469692
29.48790,467571
29.49723,430051
29.50658,395579
29.51592,375997
29.52525,363686
29.53460,365195
29.54393,367730
29.55327,368180
29.56262,369888
29.57195,365841
29.58128,366558
29.59063,364618
29.59997,363670
29.60930,361156
29.61865,366469
29.62798,366913
29.63732,366008
29.64667,364211
29.65600,359668
29.66535,366895
29.67468,369134
29.68402,369514
29.69337,369498
29.70270,366713
29.71203,373693
29.72138,368582
29.73072,368645
29.74005,374561
29.74940,374958
29.75873,378640
29.76807,371366
29.77742,367608
29.78675,364094
29.79608,376163
29.80543,364733
29.81477,367689
29.82410,363477
29.83345,363934
29.84278,359721
29.85213,360765
29.86147,362071
29.87080,361515
29.88015,357772
29.88948,362354
29.89882,369735
29.90817,365583
29.91750,366881
29.92683,369453
29.93618,366007
29.94552,367805
29.95485,371679
29.96420,368662
29.97353,367396
29.98287,372054
29.99222,374600
30.00155,370384
30.01088,376162
30.02023,373814
30.02957,365257
30.03892,364638
30.04825,367236
30.05758,366755
30.06693,367678
30.07627,369911
30.08560,377147
30.09495,371162
30.10428,376068
30.11362,378753
30.12297,381260
30.13230,391823
30.14163,399864
30.15098,407717
30.16032,411100
30.16965,419191
30.17900,427999
30.18833,430369
30.19767,428789
30.20702,423721
30.21635,414795
30.22570,404504
30.23503,396309
30.24437,381000
30.25372,380805
30.26305,379380
30.27238,376702
30.28173,374525
30.29107,370506
30.30040,370058
30.30975,372902
30.31908,373749
30.32842,375876
30.33777,380302
30.34710,395043
30.35643,437217
30.36578,538760
30.37512,697732
30.38447,835737
30.39380,847042
30.40313,792182
30.41248,720351
30.42182,673859
30.43115,594733
30.44050,525062
30.44983,464842
30.45917,435260
30.46852,425858
30.47785,421373
30.48718,418768
30.49653,410818
30.50587,411910
30.51520,410061
30.52455,408698
30.53388,403277
30.54322,396220
30.55257,398545
30.56190,389914
30.57125,390920
30.58058,394581
30.58992,399698
30.59927,398761
30.60860,401951
30.61793,406842
30.62728,404102
30.63662,413603
30.64595,422661
30.65530,434187
30.66463,443494
30.67397,441612
30.68332,431628
30.69265,421890
30.70198,412896
30.71133,411047
30.72067,396167
30.73000,395665
30.73935,391285
30.74868,388893
30.75803,389384
30.76737,395936
30.77670,396087
30.78605,405405
30.79538,409168
30.80472,417464
30.81407,414746
30.82340,414564
30.83273,408096
30.84208,406164
30.85142,403300
30.86075,400251
30.87010,397754
30.87943,396396
30.88877,398191
30.89812,396496
30.90745,399209
30.91678,399425
30.92613,398254
30.93547,399715
30.94482,391762
30.95415,402773
30.96348,388727
30.97283,396505
30.98217,398415
30.99150,399470
31.00085,393124
31.01018,387336
31.01952,390497
31.02887,385446
31.03820,389637
31.04753,391126
31.05688,390544
31.06622,386612
31.07555,382646
31.08490,384948
31.09423,385694
31.10358,382004
31.11292,380158
31.12225,383747
31.13160,385977
31.14093,379063
31.15027,382971
31.15962,380421
31.16895,382464
31.17828,385041
31.18763,384989
31.19697,391167
31.20630,387058
31.21565,396248
31.22498,390988
31.23432,392074
31.24367,385193
31.25300,386841
31.26233,391406
31.27168,387124
31.28102,390776
31.29037,390689
31.29970,387388
31.30903,387108
31.31838,387691
31.32772,386183
31.33705,389173
31.34640,392651
31.35573,387560
31.36507,389161
