D:\数据\20211207\ZS1E-Z-000052.D Tue Dec 07 21:07:59 2021
Start of data points
0.09763,28795
0.10697,27676
0.11632,28907
0.12565,30021
0.13498,29487
0.14433,28788
0.15367,28837
0.16300,29502
0.17235,29069
0.18168,29001
0.19102,29847
0.20037,28085
0.20970,29871
0.21903,29805
0.22838,29615
0.23772,29004
0.24705,28968
0.25640,29271
0.26573,28158
0.27507,28523
0.28442,26795
0.29375,28415
0.30310,28169
0.31243,28438
0.32177,28530
0.33112,28545
0.34045,27879
0.34978,27510
0.35913,28275
0.36847,29012
0.37780,28043
0.38715,29138
0.39648,27625
0.40582,28641
0.41517,25453
0.42450,22964
0.43383,17826
0.44318,15136
0.45252,9799
0.46185,5805
0.47120,6328
0.48053,6124
0.48988,5634
0.49922,6078
0.50855,5696
0.51790,6129
0.52723,6115
0.53657,5627
0.54592,5289
0.55525,5848
0.56458,5812
0.57393,5951
0.58327,5539
0.59260,5015
0.60195,5389
0.61128,5089
0.62062,4326
0.62997,5140
0.63930,4897
0.64863,5550
0.65798,5484
0.66732,4605
0.67667,5121
0.68600,4669
0.69533,4735
0.70468,5216
0.71402,5463
0.72335,4179
0.73270,5117
0.74203,5010
0.75137,4592
0.76072,4537
0.77005,5993
0.77938,4990
0.78873,4380
0.79807,5082
0.80740,5708
0.81675,5158
0.82608,4899
0.83543,4218
0.84477,4623
0.85410,4819
0.86345,5017
0.87278,4509
0.88212,5014
0.89147,4449
0.90080,5259
0.91013,5327
0.91948,4861
0.92882,4784
0.93815,4726
0.94750,5091
0.95683,4744
0.96617,4976
0.97552,5627
0.98485,4687
0.99418,4669
1.00353,4921
1.01287,5071
1.02222,5138
1.03155,4202
1.04088,5090
1.05023,4408
1.05957,4648
1.06890,5377
1.07825,4504
1.08758,4602
1.09692,4658
1.10627,4444
1.11560,5040
1.12493,5097
1.13428,5002
1.14362,4170
1.15295,4523
1.16230,4339
1.17163,4428
1.18097,4224
1.19032,4497
1.19965,4911
1.20900,4460
1.21833,4565
1.22767,4229
1.23702,4854
1.24635,4909
1.25568,3885
1.26503,4127
1.27437,3951
1.28370,4753
1.29305,4006
1.30238,4414
1.31172,3836
1.32107,4524
1.33040,4635
1.33973,4226
1.34908,4795
1.35842,4547
1.36775,4634
1.37710,4473
1.38643,4044
1.39578,4474
1.40512,4399
1.41445,4124
1.42380,4628
1.43313,3687
1.44247,4234
1.45182,4100
1.46115,3528
1.47048,5007
1.47983,3626
1.48917,4273
1.49850,4648
1.50785,4387
1.51718,4796
1.52652,4822
1.53587,3577
1.54520,4020
1.55455,4544
1.56388,4186
1.57322,4435
1.58257,5319
1.59190,10976
1.60123,18208
1.61058,23960
1.61992,31022
1.62925,43587
1.63860,59729
1.64793,67229
1.65727,61554
1.66662,55594
1.67595,44190
1.68528,40285
1.69463,31438
1.70397,23737
1.71330,19452
1.72265,21411
1.73198,24312
1.74133,27654
1.75067,29070
1.76000,31822
1.76935,32955
1.77868,34267
1.78802,35226
1.79737,35738
1.80670,35745
1.81603,36604
1.82538,35742
1.83472,34082
1.84405,33768
1.85340,35574
1.86273,36162
1.87207,41357
1.88142,57330
1.89075,96226
1.90008,143855
1.90943,172817
1.91877,211932
1.92812,378818
1.93745,756430
1.94678,1265702
1.95613,1642044
1.96547,1608171
1.97480,1321375
1.98415,969186
1.99348,700134
2.00282,568226
2.01217,507777
2.02150,488317
2.03083,453604
2.04018,382886
2.04952,275369
2.05885,209791
2.06820,163871
2.07753,130968
2.08687,114992
2.09622,98669
2.10555,85737
2.11490,79730
2.12423,83520
2.13357,94485
2.14292,138530
2.15225,173850
2.16158,159470
2.17093,134792
2.18027,125813
2.18960,156041
2.19895,195959
2.20828,170178
2.21762,118829
2.22697,110756
2.23630,153706
2.24563,286854
2.25498,1173373
2.26432,3067408
2.27365,3168776
2.28300,2261983
2.29233,1399521
2.30168,1026874
2.31102,3163251
2.32035,1.067501E+07
2.32970,1.411663E+07
2.33903,9532816
2.34837,4437170
2.35772,1880311
2.36705,849366
2.37638,484585
2.38573,392259
2.39507,319082
2.40440,244298
2.41375,197934
2.42308,164813
2.43242,147073
2.44177,135338
2.45110,117426
2.46045,111967
2.46978,130068
2.47912,145072
2.48847,130515
2.49780,108003
2.50713,86803
2.51648,79630
2.52582,72797
2.53515,70260
2.54450,73548
2.55383,93115
2.56317,122362
2.57252,130087
2.58185,171954
2.59118,167499
2.60053,147333
2.60987,135080
2.61920,169804
2.62855,245932
2.63788,268022
2.64723,206630
2.65657,155359
2.66590,123454
2.67525,100584
2.68458,83761
2.69392,71293
2.70327,64795
2.71260,64795
2.72193,83407
2.73128,122940
2.74062,157284
2.74995,187283
2.75930,214299
2.76863,251998
2.77797,292303
2.78732,342327
2.79665,349995
2.80598,278947
2.81533,234347
2.82467,226606
2.83402,209967
2.84335,164682
2.85268,145768
2.86203,167722
2.87137,191199
2.88070,210761
2.89005,182497
2.89938,142769
2.90872,113601
2.91807,102651
2.92740,95548
2.93673,80471
2.94608,71551
2.95542,65658
2.96475,61467
2.97410,61255
2.98343,60803
2.99277,60024
3.00212,67274
3.01145,76132
3.02080,77142
3.03013,75877
3.03947,102635
3.04882,164558
3.05815,178580
3.06748,180441
3.07683,179269
3.08617,148703
3.09550,105940
3.10485,78519
3.11418,63617
3.12352,57825
3.13287,57029
3.14220,56963
3.15153,60675
3.16088,67727
3.17022,73030
3.17957,71501
3.18890,66921
3.19823,62296
3.20758,59888
3.21692,63413
3.22625,67317
3.23560,63600
3.24493,57159
3.25427,58860
3.26362,59256
3.27295,59089
3.28228,54528
3.29163,55127
3.30097,62450
3.31030,68102
3.31965,65961
3.32898,60511
3.33832,57543
3.34767,52142
3.35700,55452
3.36635,55772
3.37568,51243
3.38502,51103
3.39437,48234
3.40370,49738
3.41303,62683
3.42238,77813
3.43172,76754
3.44105,73629
3.45040,78163
3.45973,90486
3.46907,84831
3.47842,74130
3.48775,66248
3.49708,66782
3.50643,67018
3.51577,61040
3.52510,56547
3.53445,54602
3.54378,57209
3.55313,95991
3.56247,233024
3.57180,433151
3.58115,483926
3.59048,343525
3.59982,192667
3.60917,114605
3.61850,88864
3.62783,101564
3.63718,101239
3.64652,88650
3.65585,78089
3.66520,74791
3.67453,80268
3.68387,85408
3.69322,79161
3.70255,66929
3.71188,57934
3.72123,59065
3.73057,62876
3.73992,62168
3.74925,61919
3.75858,58191
3.76793,55016
3.77727,51753
3.78660,49712
3.79595,53940
3.80528,99385
3.81462,248902
3.82397,433931
3.83330,427849
3.84263,264793
3.85198,136220
3.86132,79032
3.87065,67715
3.88000,62409
3.88933,62409
3.89867,63583
3.90802,70459
3.91735,68946
3.92670,71441
3.93603,75673
3.94537,86930
3.95472,116158
3.96405,134426
3.97338,116837
3.98273,91033
3.99207,71851
4.00140,60289
4.01075,57303
4.02008,54431
4.02942,68704
4.03877,123973
4.04810,224509
4.05743,280684
4.06678,219477
4.07612,147412
4.08547,122589
4.09480,125044
4.10413,120489
4.11348,102632
4.12282,81594
4.13215,69551
4.14150,62223
4.15083,59522
4.16017,57967
4.16952,54566
4.17885,54822
4.18818,49885
4.19753,50424
4.20687,52985
4.21620,57714
4.22555,58922
4.23488,53288
4.24422,51050
4.25357,50319
4.26290,49460
4.27225,51060
4.28158,56783
4.29092,75609
4.30027,71830
4.30960,64422
4.31893,60777
4.32828,63076
4.33762,66835
4.34695,69230
4.35630,62103
4.36563,57461
4.37497,52704
4.38432,58449
4.39365,77376
4.40298,81955
4.41233,69189
4.42167,57823
4.43100,49718
4.44035,45280
4.44968,47057
4.45903,47241
4.46837,52375
4.47770,63815
4.48705,71820
4.49638,69168
4.50572,60386
4.51507,54028
4.52440,52174
4.53373,50434
4.54308,53057
4.55242,58843
4.56175,55569
4.57110,54910
4.58043,51412
4.58977,50400
4.59912,48004
4.60845,46339
4.61778,46195
4.62713,45536
4.63647,46526
4.64582,48816
4.65515,57152
4.66448,64689
4.67383,64930
4.68317,62056
4.69250,67008
4.70185,83151
4.71118,95992
4.72052,82022
4.72987,62245
4.73920,49785
4.74853,47130
4.75788,51279
4.76722,54943
4.77655,52952
4.78590,53184
4.79523,49561
4.80458,49218
4.81392,50338
4.82325,46954
4.83260,49536
4.84193,54869
4.85127,54583
4.86062,54146
4.86995,56345
4.87928,65378
4.88863,68879
4.89797,67936
4.90730,64509
4.91665,63388
4.92598,58205
4.93532,56518
4.94467,51899
4.95400,51965
4.96333,50553
4.97268,45791
4.98202,45814
4.99137,44300
5.00070,47013
5.01003,49690
5.01938,50833
5.02872,53858
5.03805,55788
5.04740,57113
5.05673,54367
5.06607,52589
5.07542,52229
5.08475,54336
5.09408,55816
5.10343,54924
5.11277,52462
5.12210,48713
5.13145,47465
5.14078,49902
5.15012,55114
5.15947,58078
5.16880,55483
5.17815,51873
5.18748,50387
5.19682,65128
5.20617,75743
5.21550,73231
5.22483,61346
5.23418,55774
5.24352,54559
5.25285,56320
5.26220,53289
5.27153,63795
5.28087,105186
5.29022,193291
5.29955,257022
5.30888,223693
5.31823,147764
5.32757,104956
5.33690,88746
5.34625,75231
5.35558,61540
5.36493,53018
5.37427,53709
5.38360,55452
5.39295,63006
5.40228,70621
5.41162,69655
5.42097,63772
5.43030,57864
5.43963,50716
5.44898,49083
5.45832,45069
5.46765,45813
5.47700,46792
5.48633,47610
5.49567,47281
5.50502,47889
5.51435,49574
5.52368,55001
5.53303,59971
5.54237,63261
5.55172,63196
5.56105,57655
5.57038,52804
5.57973,49059
5.58907,45193
5.59840,45857
5.60775,47177
5.61708,47021
5.62642,43978
5.63577,44460
5.64510,44283
5.65443,45093
5.66378,44320
5.67312,48412
5.68245,49503
5.69180,51486
5.70113,54462
5.71047,62348
5.71982,66773
5.72915,68455
5.73850,61766
5.74783,59876
5.75717,70286
5.76652,71935
5.77585,66538
5.78518,69132
5.79453,68711
5.80387,64042
5.81320,54686
5.82255,53316
5.83188,59587
5.84122,65069
5.85057,64188
5.85990,56955
5.86923,48637
5.87858,48097
5.88792,47560
5.89727,44807
5.90660,45169
5.91593,64817
5.92528,113064
5.93462,150127
5.94395,134745
5.95330,110721
5.96263,107986
5.97197,91555
5.98132,70052
5.99065,56006
5.99998,51239
6.00933,50005
6.01867,48295
6.02800,44160
6.03735,43508
6.04668,38611
6.05602,33229
6.06537,30486
6.07470,29062
6.08405,27170
6.09338,24976
6.10272,24908
6.11207,29123
6.12140,34478
6.13073,53489
6.14008,82655
6.14942,89227
6.15875,64867
6.16810,39177
6.17743,25436
6.18677,21633
6.19612,20769
6.20545,21644
6.21478,19956
6.22413,21141
6.23347,25724
6.24280,27142
6.25215,27996
6.26148,25553
6.27083,25023
6.28017,34606
6.28950,45467
6.29885,41822
6.30818,31464
6.31752,23631
6.32687,19047
6.33620,18248
6.34553,18426
6.35488,17443
6.36422,18628
6.37355,19086
6.38290,27817
6.39223,42720
6.40157,77294
6.41092,193074
6.42025,357231
6.42958,366415
6.43893,214749
6.44827,86796
6.45762,37360
6.46695,26371
6.47628,26210
6.48563,28636
6.49497,29950
6.50430,27788
6.51365,23046
6.52298,22045
6.53232,20939
6.54167,20229
6.55100,17550
6.56033,17876
6.56968,18065
6.57902,18493
6.58835,19268
6.59770,19618
6.60703,22193
6.61638,24411
6.62572,26075
6.63505,29448
6.64440,30127
6.65373,27947
6.66307,29350
6.67242,30746
6.68175,30131
6.69108,26207
6.70043,24105
6.70977,27160
6.71910,34943
6.72845,34622
6.73778,30381
6.74712,26971
6.75647,24403
6.76580,22837
6.77513,23468
6.78448,26398
6.79382,33606
6.80317,42529
6.81250,44781
6.82183,36224
6.83118,26211
6.84052,23963
6.84985,24876
6.85920,30975
6.86853,30139
6.87787,27225
6.88722,28415
6.89655,25928
6.90588,26652
6.91523,28520
6.92457,31793
6.93390,26636
6.94325,24351
6.95258,23569
6.96192,25360
6.97127,26024
6.98060,28062
6.98995,25817
6.99928,24638
7.00862,23249
7.01797,23693
7.02730,24565
7.03663,21753
7.04598,18442
7.05532,16234
7.06465,16472
7.07400,16194
7.08333,17156
7.09267,18726
7.10202,22194
7.11135,25505
7.12068,27429
7.13003,26602
7.13937,26515
7.14870,24004
7.15805,21479
7.16738,20067
7.17673,19049
7.18607,18958
7.19540,18084
7.20475,20965
7.21408,21977
7.22342,24396
7.23277,44426
7.24210,91388
7.25143,129788
7.26078,110107
7.27012,62603
7.27945,39062
7.28880,31612
7.29813,30413
7.30747,27913
7.31682,22489
7.32615,19711
7.33548,18186
7.34483,18982
7.35417,17799
7.36352,17824
7.37285,18860
7.38218,21293
7.39153,33924
7.40087,77676
7.41020,158113
7.41955,209389
7.42888,194991
7.43822,122288
7.44757,62926
7.45690,33571
7.46623,22231
7.47558,21491
7.48492,24432
7.49425,33037
7.50360,34476
7.51293,29187
7.52228,23920
7.53162,21471
7.54095,18576
7.55030,18188
7.55963,20028
7.56897,23808
7.57832,24867
7.58765,24502
7.59698,23871
7.60633,23645
7.61567,24003
7.62500,26214
7.63435,26793
7.64368,27247
7.65302,26732
7.66237,23404
7.67170,20958
7.68103,20965
7.69038,22357
7.69972,22190
7.70907,23597
7.71840,23301
7.72773,25471
7.73708,25041
7.74642,26508
7.75575,28328
7.76510,31037
7.77443,31615
7.78377,33054
7.79312,32702
7.80245,33006
7.81178,30400
7.82113,24940
7.83047,22318
7.83980,21313
7.84915,25952
7.85848,39098
7.86782,71795
7.87717,105732
7.88650,102424
7.89585,74397
7.90518,53103
7.91452,69302
7.92387,107124
7.93320,120400
7.94253,90728
7.95188,52182
7.96122,50723
7.97055,64820
7.97990,75716
7.98923,85736
7.99857,78652
8.00792,58068
8.01725,42149
8.02658,38365
8.03593,39639
8.04527,45430
8.05460,50402
8.06395,44098
8.07328,31350
8.08263,26177
8.09197,32618
8.10130,49095
8.11065,60121
8.11998,52709
8.12932,39214
8.13867,29878
8.14800,25004
8.15733,24460
8.16668,23260
8.17602,23073
8.18535,22546
8.19470,22096
8.20403,22681
8.21337,25106
8.22272,23398
8.23205,24177
8.24140,28386
8.25073,33507
8.26007,33824
8.26942,28079
8.27875,26231
8.28808,24245
8.29743,22415
8.30677,21682
8.31610,22124
8.32545,22643
8.33478,21036
8.34412,22064
8.35347,21195
8.36280,19748
8.37213,20986
8.38148,19063
8.39082,23934
8.40015,33304
8.40950,35387
8.41883,36754
8.42818,35045
8.43752,32546
8.44685,29346
8.45620,28780
8.46553,27896
8.47487,29663
8.48422,29898
8.49355,27651
8.50288,27672
8.51223,26928
8.52157,24970
8.53090,24311
8.54025,25693
8.54958,27220
8.55892,27497
8.56827,30639
8.57760,28444
8.58693,27279
8.59628,29906
8.60562,35320
8.61497,35659
8.62430,33168
8.63363,31167
8.64298,29700
8.65232,31409
8.66165,38557
8.67100,41637
8.68033,37382
8.68967,30913
8.69902,26176
8.70835,27574
8.71768,26152
8.72703,24385
8.73637,24199
8.74570,29050
8.75505,39991
8.76438,44233
8.77372,40523
8.78307,34155
8.79240,37251
8.80175,71652
8.81108,150254
8.82042,212264
8.82977,177278
8.83910,91378
8.84843,43615
8.85778,30468
8.86712,27726
8.87645,30311
8.88580,31510
8.89513,30462
8.90447,30438
8.91382,28609
8.92315,28779
8.93248,29339
8.94183,31389
8.95117,27915
8.96050,24876
8.96985,24648
8.97918,26561
8.98853,28398
8.99787,27305
9.00720,31133
9.01655,33423
9.02588,33071
9.03522,29727
9.04457,31975
9.05390,32591
9.06323,36489
9.07258,40047
9.08192,45067
9.09125,50690
9.10060,53466
9.10993,44281
9.11927,34955
9.12862,37408
9.13795,46970
9.14728,57673
9.15663,50841
9.16597,37372
9.17532,29384
9.18465,27655
9.19398,28658
9.20333,28839
9.21267,32518
9.22200,43001
9.23135,70968
9.24068,97552
9.25002,94364
9.25937,64381
9.26870,45061
9.27803,36954
9.28738,31530
9.29672,30869
9.30605,28470
9.31540,32334
9.32473,40391
9.33408,56137
9.34342,67464
9.35275,60649
9.36210,88782
9.37143,203353
9.38077,333871
9.39012,319451
9.39945,216019
9.40878,121709
9.41813,73786
9.42747,61905
9.43680,54000
9.44615,47583
9.45548,35226
9.46482,30443
9.47417,26411
9.48350,27759
9.49283,29765
9.50218,35869
9.51152,37062
9.52087,31493
9.53020,30761
9.53953,35330
9.54888,43892
9.55822,58511
9.56755,76858
9.57690,81403
9.58623,61596
9.59557,43718
9.60492,46704
9.61425,47272
9.62358,40456
9.63293,33503
9.64227,37014
9.65160,47399
9.66095,71076
9.67028,81808
9.67962,63940
9.68897,44074
9.69830,32821
9.70765,29743
9.71698,49217
9.72632,134326
9.73567,369602
9.74500,626186
9.75433,691921
9.76368,485892
9.77302,261902
9.78235,150388
9.79170,113726
9.80103,90929
9.81037,69302
9.81972,61595
9.82905,69923
9.83838,84800
9.84773,94990
9.85707,104028
9.86640,102913
9.87575,109642
9.88508,132327
9.89443,138816
9.90377,131722
9.91310,122308
9.92245,146132
9.93178,158249
9.94112,122837
9.95047,79097
9.95980,54378
9.96913,45275
9.97848,56362
9.98782,101057
9.99715,162123
10.00650,168196
10.01583,116304
10.02517,70438
10.03452,50554
10.04385,43221
10.05320,40678
10.06253,45039
10.07187,54360
10.08122,64553
10.09055,62839
10.09988,55423
10.10923,49728
10.11857,81627
10.12790,175157
10.13725,279529
10.14658,329447
10.15592,657785
10.16527,1788376
10.17460,2815070
10.18393,2176709
10.19328,843472
10.20262,192272
10.21195,58548
10.22130,40783
10.23063,45764
10.23998,65716
10.24932,97836
10.25865,98223
10.26800,70249
10.27733,47443
10.28667,42777
10.29602,51801
10.30535,71794
10.31468,75640
10.32403,63453
10.33337,44004
10.34270,36882
10.35205,33717
10.36138,35082
10.37072,34961
10.38007,32459
10.38940,29226
10.39873,29920
10.40808,29565
10.41742,30952
10.42677,32833
10.43610,34560
10.44543,34795
10.45478,37087
10.46412,41461
10.47345,41974
10.48280,35970
10.49213,31580
10.50147,28504
10.51082,26520
10.52015,28621
10.52948,27703
10.53883,29661
10.54817,36416
10.55750,45282
10.56685,49542
10.57618,44455
10.58552,38959
10.59487,43204
10.60420,45393
10.61355,44653
10.62288,38690
10.63222,35887
10.64157,37483
10.65090,37185
10.66023,33832
10.66958,35509
10.67892,39410
10.68825,41491
10.69760,41647
10.70693,51819
10.71627,89825
10.72562,133050
10.73495,124572
10.74428,84582
10.75363,101334
10.76297,204532
10.77230,263188
10.78165,220984
10.79098,299449
10.80033,760684
10.80967,1428648
10.81900,1462217
10.82835,832447
10.83768,283963
10.84702,90494
10.85637,51532
10.86570,60066
10.87503,107892
10.88438,172789
10.89372,178583
10.90305,125882
10.91240,76921
10.92173,48736
10.93107,45127
10.94042,44264
10.94975,43058
10.95910,44868
10.96843,45278
10.97777,40798
10.98712,36661
10.99645,31317
11.00578,33451
11.01513,35224
11.02447,32024
11.03380,31927
11.04315,31011
11.05248,29206
11.06182,28069
11.07117,30682
11.08050,31829
11.08983,32853
11.09918,32883
11.10852,40201
11.11785,50154
11.12720,53554
11.13653,46768
11.14588,39708
11.15522,38449
11.16455,36608
11.17390,40449
11.18323,40094
11.19257,36298
11.20192,32085
11.21125,31046
11.22058,28417
11.22993,31063
11.23927,32233
11.24860,30624
11.25795,31223
11.26728,35341
11.27662,35622
11.28597,34501
11.29530,31130
11.30463,30297
11.31398,30995
11.32332,29284
11.33267,34591
11.34200,40089
11.35133,50537
11.36068,61168
11.37002,59577
11.37935,51622
11.38870,43558
11.39803,47689
11.40737,80966
11.41672,151602
11.42605,184593
11.43538,141615
11.44473,75735
11.45407,42058
11.46340,37582
11.47275,47004
11.48208,53257
11.49142,45323
11.50077,36667
11.51010,32011
11.51945,27931
11.52878,28906
11.53812,27595
11.54747,29464
11.55680,38229
11.56613,64610
11.57548,125538
11.58482,190986
11.59415,184589
11.60350,127320
11.61283,87540
11.62217,69741
11.63152,58507
11.64085,54373
11.65018,46882
11.65953,47103
11.66887,45990
11.67822,45240
11.68755,47657
11.69688,56112
11.70623,80482
11.71557,90552
11.72490,75569
11.73425,55952
11.74358,43096
11.75292,38875
11.76227,37472
11.77160,36978
11.78093,40429
11.79028,43967
11.79962,45333
11.80895,42056
11.81830,37801
11.82763,36962
11.83697,36738
11.84632,38216
11.85565,37898
11.86500,38622
11.87433,39320
11.88367,41837
11.89302,42588
11.90235,37604
11.91168,35298
11.92103,31294
11.93037,33497
11.93970,38919
11.94905,50439
11.95838,56185
11.96772,48728
11.97707,38039
11.98640,34099
11.99573,35089
12.00508,51552
12.01442,86153
12.02375,120239
12.03310,116166
12.04243,84412
12.05178,61516
12.06112,47050
12.07045,40312
12.07980,37755
12.08913,32650
12.09847,34782
12.10782,35437
12.11715,35092
12.12648,32246
12.13583,32903
12.14517,34837
12.15450,36976
12.16385,42953
12.17318,65125
12.18252,117089
12.19187,202136
12.20120,301364
12.21053,304446
12.21988,194498
12.22922,96875
12.23857,65912
12.24790,52409
12.25723,47406
12.26658,64594
12.27592,137059
12.28525,254324
12.29460,260635
12.30393,165510
12.31327,79135
12.32262,52876
12.33195,47467
12.34128,46779
12.35063,43595
12.35997,43899
12.36930,39400
12.37865,39663
12.38798,41292
12.39732,41561
12.40667,44830
12.41600,43769
12.42535,42494
12.43468,40270
12.44402,38845
12.45337,37760
12.46270,39862
12.47203,41286
12.48138,44049
12.49072,45538
12.50005,47293
12.50940,48231
12.51873,45189
12.52807,45932
12.53742,46612
12.54675,48665
12.55608,45518
12.56543,47662
12.57477,51842
12.58410,53263
12.59345,45020
12.60278,39868
12.61213,38368
12.62147,39487
12.63080,42044
12.64015,51613
12.64948,59230
12.65882,58142
12.66817,57605
12.67750,46544
12.68683,41101
12.69618,33957
12.70552,33646
12.71485,35874
12.72420,39266
12.73353,39954
12.74287,38968
12.75222,40572
12.76155,42889
12.77090,42951
12.78023,41170
12.78957,38466
12.79892,37301
12.80825,38459
12.81758,38833
12.82693,38556
12.83627,39407
12.84560,40134
12.85495,38803
12.86428,36001
12.87362,33808
12.88297,32545
12.89230,34681
12.90163,39298
12.91098,39375
12.92032,37344
12.92965,32680
12.93900,33414
12.94833,36177
12.95768,38242
12.96702,37266
12.97635,32468
12.98570,30975
12.99503,30357
13.00437,33707
13.01372,35366
13.02305,37381
13.03238,47749
13.04173,55196
13.05107,53527
13.06040,45597
13.06975,43179
13.07908,49555
13.08842,62904
13.09777,66102
13.10710,54787
13.11643,44753
13.12578,39709
13.13512,47160
13.14447,55079
13.15380,68847
13.16313,77111
13.17248,79163
13.18182,74863
13.19115,71076
13.20050,109448
13.20983,262914
13.21917,455972
13.22852,449467
13.23785,261863
13.24718,133051
13.25653,110929
13.26587,94532
13.27520,70135
13.28455,61076
13.29388,68706
13.30322,119674
13.31257,236327
13.32190,298308
13.33125,237014
13.34058,129286
13.34992,75955
13.35927,59180
13.36860,55852
13.37793,51693
13.38728,49434
13.39662,50042
13.40595,54347
13.41530,53559
13.42463,46594
13.43397,41638
13.44332,47494
13.45265,53245
13.46198,51567
13.47133,48023
13.48067,48954
13.49002,64868
13.49935,87581
13.50868,115854
13.51803,154197
13.52737,190097
13.53670,225527
13.54605,214502
13.55538,152944
13.56472,107419
13.57407,77542
13.58340,53866
13.59273,42106
13.60208,38016
13.61142,44984
13.62075,149600
13.63010,953038
13.63943,4282383
13.64877,1.10996E+07
13.65812,1.968521E+07
13.66745,2.39498E+07
13.67680,1.641495E+07
13.68613,5057575
13.69547,1004230
13.70482,320393
13.71415,209821
13.72348,165538
13.73283,140269
13.74217,121764
13.75150,109906
13.76085,104362
13.77018,105232
13.77952,95491
13.78887,85711
13.79820,80952
13.80753,88440
13.81688,92404
13.82622,83635
13.83555,71792
13.84490,60686
13.85423,60096
13.86358,63031
13.87292,69138
13.88225,71706
13.89160,78208
13.90093,102557
13.91027,166856
13.91962,275957
13.92895,336519
13.93828,255430
13.94763,132204
13.95697,83811
13.96630,77225
13.97565,80279
13.98498,106360
13.99432,161609
14.00367,195051
14.01300,156996
14.02233,95570
14.03168,63165
14.04102,71189
14.05037,232356
14.05970,1201888
14.06903,3757383
14.07838,6633321
14.08772,6092334
14.09705,2664761
14.10640,571049
14.11573,148160
14.12507,141137
14.13442,149445
14.14375,118060
14.15308,81283
14.16243,69613
14.17177,68785
14.18110,74734
14.19045,108844
14.19978,172973
14.20912,185027
14.21847,124909
14.22780,68218
14.23715,47859
14.24648,42885
14.25582,39750
14.26517,42254
14.27450,46949
14.28383,49829
14.29318,44794
14.30252,42057
14.31185,40375
14.32120,46643
14.33053,56116
14.33987,66244
14.34922,67404
14.35855,56651
14.36788,46214
14.37723,41125
14.38657,40657
14.39592,37332
14.40525,39478
14.41458,37510
14.42393,36173
14.43327,37628
14.44260,36075
14.45195,37984
14.46128,46954
14.47062,50233
14.47997,53303
14.48930,51387
14.49863,44380
14.50798,42715
14.51732,38377
14.52665,34970
14.53600,32306
14.54533,35237
14.55467,38111
14.56402,41775
14.57335,44234
14.58270,42059
14.59203,39105
14.60137,37163
14.61072,35328
14.62005,37245
14.62938,37861
14.63873,44577
14.64807,61492
14.65740,85836
14.66675,96969
14.67608,79062
14.68542,59548
14.69477,45206
14.70410,41806
14.71343,39423
14.72278,39416
14.73212,40687
14.74145,39531
14.75080,41627
14.76013,42560
14.76948,41643
14.77882,46720
14.78815,49373
14.79750,46871
14.80683,42076
14.81617,40536
14.82552,42004
14.83485,40258
14.84418,36483
14.85353,35177
14.86287,39745
14.87220,49564
14.88155,56905
14.89088,54904
14.90022,49322
14.90957,49378
14.91890,47989
14.92823,44053
14.93758,41735
14.94692,39496
14.95627,50209
14.96560,83051
14.97493,141833
14.98428,167154
14.99362,128148
15.00295,78768
15.01230,57216
15.02163,49720
15.03097,45068
15.04032,42359
15.04965,41859
15.05898,45351
15.06833,45580
15.07767,43177
15.08700,40778
15.09635,38376
15.10568,36280
15.11503,36906
15.12437,42339
15.13370,46935
15.14305,50676
15.15238,48946
15.16172,43238
15.17107,41710
15.18040,41725
15.18973,44053
15.19908,50082
15.20842,64385
15.21775,88097
15.22710,96336
15.23643,78065
15.24577,63412
15.25512,51399
15.26445,45853
15.27378,46054
15.28313,45469
15.29247,42250
15.30182,39917
15.31115,36843
15.32048,41620
15.32983,44128
15.33917,48669
15.34850,47954
15.35785,46348
15.36718,47847
15.37652,57101
15.38587,57680
15.39520,49801
15.40453,37951
15.41388,36479
15.42322,36320
15.43255,41288
15.44190,41050
15.45123,40122
15.46057,38248
15.46992,38765
15.47925,37576
15.48860,42575
15.49793,48287
15.50727,50657
15.51662,59668
15.52595,67960
15.53528,64672
15.54463,55803
15.55397,44477
15.56330,40213
15.57265,35280
15.58198,33849
15.59132,36488
15.60067,35395
15.61000,35678
15.61933,38760
15.62868,40625
15.63802,44197
15.64735,49352
15.65670,49369
15.66603,65180
15.67538,149311
15.68472,413408
15.69405,750499
15.70340,788248
15.71273,501716
15.72207,274867
15.73142,169918
15.74075,107631
15.75008,75742
15.75943,70241
15.76877,66276
15.77810,64606
15.78745,56618
15.79678,55679
15.80612,76170
15.81547,151559
15.82480,250852
15.83413,295956
15.84348,287966
15.85282,262817
15.86217,177681
15.87150,102110
15.88083,71492
15.89018,71078
15.89952,75581
15.90885,80059
15.91820,76611
15.92753,63746
15.93687,50908
15.94622,47308
15.95555,44969
15.96488,44137
15.97423,47845
15.98357,58483
15.99290,78048
16.00225,89499
16.01158,82522
16.02092,58992
16.03027,50366
16.03960,45466
16.04895,45393
16.05828,47285
16.06762,49901
16.07697,49608
16.08630,47868
16.09563,47350
16.10498,50262
16.11432,52644
16.12365,55953
16.13300,58029
16.14233,52146
16.15167,50130
16.16102,48660
16.17035,49283
16.17968,46786
16.18903,43705
16.19837,43946
16.20772,51143
16.21705,52170
16.22638,57176
16.23573,58217
16.24507,58459
16.25440,52166
16.26375,50211
16.27308,55951
16.28242,94970
16.29177,227883
16.30110,416598
16.31043,467756
16.31978,289956
16.32912,129938
16.33845,64650
16.34780,47427
16.35713,40356
16.36647,38157
16.37582,37223
16.38515,36833
16.39450,38378
16.40383,40370
16.41317,42619
16.42252,44891
16.43185,43698
16.44118,45793
16.45053,49590
16.45987,54651
16.46920,59850
16.47855,52724
16.48788,45015
16.49722,44800
16.50657,45155
16.51590,53005
16.52523,55711
16.53458,53286
16.54392,50763
16.55325,46695
16.56260,43817
16.57193,40733
16.58128,43956
16.59062,47601
16.59995,45130
16.60930,44540
16.61863,46700
16.62797,54978
16.63732,62087
16.64665,65725
16.65598,62043
16.66533,55504
16.67467,47930
16.68400,52226
16.69335,58284
16.70268,69925
16.71202,69123
16.72137,60482
16.73070,48473
16.74003,54187
16.74938,87116
16.75872,121557
16.76807,111649
16.77740,72238
16.78673,50069
16.79608,45179
16.80542,44545
16.81475,49607
16.82410,55217
16.83343,67297
16.84277,70746
16.85212,65174
16.86145,54127
16.87078,49112
16.88013,43923
16.88947,45205
16.89880,47570
16.90815,57147
16.91748,74321
16.92683,84291
16.93617,73691
16.94550,64692
16.95485,69281
16.96418,74111
16.97352,73924
16.98287,66387
16.99220,56152
17.00153,50123
17.01088,49881
17.02022,54711
17.02955,77917
17.03890,114971
17.04823,119473
17.05757,87294
17.06692,61285
17.07625,54100
17.08558,51552
17.09493,48561
17.10427,46490
17.11362,46444
17.12295,50050
17.13228,57089
17.14163,74679
17.15097,74365
17.16030,59456
17.16965,46957
17.17898,46176
17.18832,47745
17.19767,48850
17.20700,43201
17.21633,43298
17.22568,47764
17.23502,50755
17.24435,48713
17.25370,46616
17.26303,49032
17.27237,52177
17.28172,64025
17.29105,73880
17.30040,71873
17.30973,64446
17.31907,63802
17.32842,65109
17.33775,61785
17.34708,56494
17.35643,48746
17.36577,48904
17.37510,69550
17.38445,134931
17.39378,218005
17.40312,211167
17.41247,137247
17.42180,77422
17.43113,59928
17.44048,56654
17.44982,57078
17.45915,60643
17.46850,60263
17.47783,59144
17.48718,79630
17.49652,241410
17.50585,932811
17.51520,2291496
17.52453,2874904
17.53387,1866230
17.54322,640831
17.55255,151548
17.56188,67772
17.57123,60137
17.58057,66122
17.58990,70157
17.59925,65054
17.60858,59503
17.61792,51939
17.62727,49972
17.63660,50935
17.64593,55235
17.65528,54922
17.66462,56034
17.67397,66467
17.68330,84116
17.69263,99109
17.70198,98706
17.71132,83596
17.72065,68387
17.73000,61399
17.73933,54633
17.74867,52756
17.75802,59221
17.76735,66596
17.77668,73773
17.78603,69351
17.79537,61486
17.80470,57728
17.81405,51297
17.82338,48746
17.83273,46420
17.84207,51371
17.85140,57368
17.86075,72126
17.87008,100791
17.87942,128443
17.88877,140903
17.89810,134719
17.90743,103576
17.91678,69282
17.92612,54761
17.93545,50571
17.94480,52801
17.95413,53630
17.96347,58629
17.97282,61992
17.98215,57513
17.99148,55046
18.00083,51031
18.01017,49665
18.01952,51724
18.02885,54040
18.03818,69564
18.04753,122688
18.05687,230804
18.06620,312342
18.07555,269632
18.08488,150889
18.09422,77967
18.10357,62110
18.11290,70121
18.12223,74141
18.13158,70661
18.14092,60519
18.15025,55669
18.15960,52956
18.16893,55386
18.17827,57129
18.18762,57899
18.19695,57569
18.20630,52795
18.21563,49572
18.22497,51253
18.23432,52729
18.24365,49085
18.25298,58307
18.26233,85845
18.27167,122810
18.28100,133378
18.29035,101136
18.29968,79591
18.30902,68889
18.31837,67948
18.32770,65678
18.33703,64625
18.34638,73407
18.35572,82922
18.36505,100118
18.37440,105127
18.38373,96512
18.39308,94552
18.40242,117770
18.41175,155020
18.42110,143532
18.43043,104436
18.43977,76444
18.44912,74190
18.45845,74354
18.46778,71565
18.47713,67128
18.48647,68605
18.49580,71565
18.50515,89722
18.51448,107573
18.52382,105342
18.53317,88389
18.54250,69102
18.55185,59584
18.56118,60535
18.57052,62537
18.57987,59410
18.58920,59231
18.59853,61124
18.60788,65839
18.61722,73467
18.62655,72133
18.63590,66407
18.64523,66036
18.65457,63499
18.66392,62983
18.67325,69827
18.68258,82031
18.69193,94512
18.70127,112729
18.71060,116379
18.71995,104789
18.72928,97259
18.73863,97808
18.74797,111570
18.75730,121333
18.76665,107323
18.77598,77011
18.78532,58738
18.79467,55318
18.80400,53457
18.81333,52304
18.82268,52985
18.83202,52849
18.84135,50406
18.85070,48895
18.86003,45084
18.86937,44429
18.87872,44536
18.88805,43581
18.89738,46450
18.90673,53515
18.91607,63723
18.92542,71457
18.93475,72417
18.94408,67243
18.95343,64575
18.96277,71800
18.97210,76099
18.98145,73872
18.99078,68642
19.00012,84154
19.00947,150080
19.01880,247553
19.02813,271759
19.03748,201672
19.04682,128198
19.05615,108846
19.06550,112091
19.07483,133256
19.08417,186205
19.09352,210691
19.10285,172167
19.11220,112015
19.12153,72248
19.13087,53484
19.14022,47246
19.14955,46181
19.15888,43253
19.16823,42608
19.17757,41727
19.18690,44326
19.19625,47904
19.20558,52906
19.21492,56553
19.22427,61461
19.23360,66272
19.24293,62150
19.25228,58089
19.26162,54900
19.27095,60686
19.28030,62801
19.28963,63573
19.29898,64399
19.30832,75187
19.31765,97403
19.32700,105762
19.33633,82899
19.34567,66457
19.35502,52277
19.36435,43951
19.37368,43771
19.38303,42584
19.39237,42510
19.40170,46019
19.41105,49716
19.42038,44958
19.42972,43431
19.43907,41690
19.44840,38868
19.45773,40015
19.46708,45169
19.47642,51811
19.48577,51705
19.49510,55615
19.50443,57309
19.51378,54551
19.52312,50701
19.53245,49711
19.54180,49269
19.55113,46375
19.56047,41957
19.56982,43220
19.57915,46574
19.58848,52152
19.59783,51549
19.60717,54221
19.61650,57632
19.62585,61878
19.63518,65455
19.64453,63495
19.65387,59372
19.66320,50844
19.67255,45610
19.68188,42520
19.69122,44323
19.70057,49563
19.70990,53370
19.71923,56649
19.72858,67192
19.73792,73443
19.74725,72468
19.75660,62471
19.76593,53584
19.77527,52154
19.78462,56242
19.79395,54010
19.80328,50146
19.81263,46145
19.82197,44705
19.83132,45881
19.84065,47361
19.84998,43067
19.85933,47084
19.86867,51426
19.87800,64839
19.88735,75925
19.89668,69578
19.90602,56255
19.91537,47822
19.92470,49931
19.93403,47480
19.94338,44179
19.95272,43794
19.96205,45031
19.97140,47172
19.98073,46926
19.99007,44160
19.99942,40855
20.00875,41859
20.01810,40139
20.02743,44187
20.03677,44886
20.04612,45204
20.05545,45823
20.06478,46356
20.07413,46501
20.08347,45956
20.09280,48668
20.10215,44984
20.11148,41604
20.12082,39277
20.13017,39590
20.13950,39356
20.14883,46902
20.15818,55113
20.16752,58533
20.17685,53217
20.18620,46050
20.19553,43339
20.20488,42575
20.21422,42536
20.22355,43160
20.23290,43244
20.24223,41732
20.25157,41384
20.26092,41672
20.27025,39945
20.27958,40076
20.28893,41273
20.29827,40578
20.30760,39748
20.31695,38292
20.32628,36557
20.33562,35679
20.34497,37882
20.35430,37679
20.36365,40019
20.37298,40901
20.38232,40670
20.39167,40778
20.40100,39708
20.41033,38279
20.41968,39161
20.42902,38363
20.43835,41940
20.44770,40970
20.45703,41347
20.46637,46900
20.47572,53290
20.48505,60517
20.49438,55385
20.50373,48253
20.51307,44636
20.52240,41470
20.53175,41839
20.54108,45311
20.55043,50014
20.55977,59075
20.56910,104431
20.57845,224625
20.58778,312957
20.59712,255797
20.60647,139040
20.61580,73474
20.62513,58841
20.63448,71745
20.64382,107235
20.65315,140121
20.66250,123447
20.67183,88348
20.68117,67771
20.69052,57778
20.69985,53654
20.70918,52728
20.71853,55968
20.72787,66260
20.73722,67553
20.74655,63919
20.75588,54239
20.76523,49990
20.77457,44901
20.78390,45337
20.79325,45978
20.80258,52486
20.81192,53834
20.82127,50786
20.83060,46105
20.83993,43960
20.84928,44395
20.85862,41508
20.86795,40759
20.87730,38908
20.88663,38122
20.89597,41212
20.90532,44407
20.91465,46880
20.92400,42831
20.93333,40908
20.94267,40663
20.95202,42525
20.96135,39454
20.97068,39617
20.98003,38671
20.98937,38341
20.99870,41334
21.00805,40342
21.01738,39531
21.02672,38707
21.03607,38688
21.04540,37480
21.05473,40946
21.06408,41443
21.07342,39839
21.08275,41991
21.09210,41262
21.10143,40812
21.11078,41926
21.12012,45925
21.12945,45669
21.13880,43798
21.14813,42341
21.15747,43475
21.16682,44121
21.17615,55713
21.18548,74787
21.19483,85373
21.20417,75643
21.21350,56879
21.22285,48157
21.23218,44982
21.24152,40627
21.25087,43321
21.26020,39730
21.26953,43262
21.27888,45229
21.28822,50298
21.29757,50490
21.30690,48036
21.31623,44348
21.32558,40995
21.33492,40637
21.34425,39495
21.35360,41909
21.36293,44772
21.37227,42418
21.38162,42312
21.39095,45694
21.40028,45497
21.40963,50038
21.41897,49983
21.42830,51834
21.43765,50533
21.44698,46909
21.45633,47318
21.46567,45075
21.47500,46956
21.48435,49077
21.49368,52708
21.50302,51254
21.51237,49077
21.52170,47017
21.53103,44245
21.54038,44503
21.54972,44368
21.55905,52374
21.56840,64470
21.57773,81934
21.58707,87376
21.59642,74747
21.60575,57738
21.61508,51153
21.62443,53051
21.63377,51423
21.64312,52184
21.65245,49797
21.66178,47241
21.67113,51663
21.68047,64055
21.68980,75873
21.69915,77786
21.70848,71983
21.71782,68531
21.72717,67223
21.73650,62016
21.74583,55093
21.75518,50262
21.76452,47003
21.77385,41606
21.78320,44831
21.79253,43594
21.80187,47017
21.81122,55671
21.82055,63058
21.82990,65494
21.83923,59366
21.84857,51949
21.85792,47182
21.86725,43451
21.87658,44428
21.88593,49949
21.89527,54827
21.90460,58875
21.91395,56693
21.92328,52838
21.93262,48347
21.94197,44569
21.95130,46300
21.96063,49286
21.96998,53768
21.97932,63447
21.98865,68143
21.99800,75990
22.00733,71643
22.01668,61506
22.02602,51853
22.03535,53497
22.04470,59518
22.05403,66062
22.06337,65722
22.07272,63345
22.08205,59476
22.09138,57118
22.10073,54935
22.11007,49816
22.11940,48194
22.12875,45952
22.13808,46883
22.14742,48789
22.15677,58356
22.16610,72422
22.17545,81437
22.18478,79421
22.19412,66660
22.20347,53571
22.21280,52932
22.22213,55134
22.23148,64490
22.24082,66891
22.25015,65955
22.25950,61094
22.26883,61716
22.27817,71227
22.28752,87794
22.29685,90950
22.30618,88439
22.31553,74524
22.32487,61970
22.33420,55890
22.34355,53853
22.35288,63345
22.36223,71118
22.37157,76538
22.38090,80608
22.39025,73826
22.39958,64326
22.40892,59702
22.41827,52588
22.42760,59267
22.43693,63901
22.44628,65559
22.45562,63254
22.46495,58437
22.47430,54914
22.48363,53765
22.49297,49603
22.50232,48472
22.51165,49462
22.52098,49725
22.53033,52871
22.53967,50069
22.54902,47913
22.55835,49583
22.56768,56061
22.57703,62678
22.58637,69501
22.59570,69585
22.60505,69842
22.61438,73127
22.62372,72740
22.63307,70098
22.64240,65920
22.65173,58342
22.66108,51709
22.67042,50293
22.67975,52646
22.68910,63192
22.69843,70930
22.70777,70117
22.71712,62806
22.72645,62498
22.73580,69917
22.74513,78201
22.75447,77966
22.76382,78186
22.77315,71685
22.78248,65736
22.79183,63985
22.80117,69295
22.81050,81329
22.81985,81453
22.82918,75253
22.83852,73492
22.84787,67695
22.85720,64530
22.86653,57374
22.87588,57591
22.88522,58895
22.89455,57376
22.90390,57867
22.91323,57948
22.92258,64516
22.93192,68566
22.94125,69392
22.95060,60696
22.95993,56402
22.96927,57399
22.97862,52943
22.98795,49850
22.99728,46982
23.00663,47515
23.01597,46531
23.02530,44701
23.03465,48238
23.04398,49825
23.05332,53334
23.06267,52373
23.07200,49874
23.08135,50134
23.09068,46879
23.10002,47345
23.10937,44149
23.11870,45392
23.12803,42726
23.13738,45483
23.14672,44690
23.15605,45719
23.16540,47621
23.17473,47430
23.18407,48801
23.19342,46055
23.20275,46188
23.21208,43503
23.22143,47099
23.23077,47102
23.24010,50535
23.24945,55376
23.25878,59715
23.26813,61495
23.27747,59871
23.28680,55001
23.29615,53021
23.30548,46298
23.31482,46094
23.32417,50057
23.33350,57727
23.34283,66255
23.35218,69987
23.36152,58977
23.37085,50249
23.38020,49027
23.38953,47459
23.39887,50349
23.40822,48722
23.41755,47859
23.42688,47060
23.43623,50104
23.44557,49881
23.45492,51485
23.46425,52983
23.47358,49381
23.48293,48703
23.49227,46238
23.50160,44431
23.51095,45639
23.52028,46620
23.52962,51763
23.53897,57000
23.54830,54274
23.55763,49345
23.56698,46062
23.57632,45823
23.58565,45954
23.59500,46319
23.60433,48130
23.61367,44774
23.62302,43086
23.63235,41600
23.64170,41333
23.65103,42524
23.66037,43834
23.66972,41791
23.67905,41831
23.68838,45836
23.69773,49552
23.70707,53308
23.71640,56164
23.72575,57098
23.73508,58002
23.74442,57351
23.75377,56056
23.76310,51055
23.77243,48774
23.78178,46969
23.79112,45467
23.80047,45215
23.80980,45730
23.81913,43732
23.82848,46736
23.83782,41951
23.84715,43408
23.85650,45512
23.86583,45895
23.87517,43556
23.88452,43801
23.89385,44260
23.90318,44699
23.91253,43940
23.92187,46026
23.93120,45644
23.94055,43371
23.94988,43481
23.95922,43647
23.96857,43049
23.97790,42359
23.98725,42046
23.99658,41791
24.00592,41453
24.01527,45585
24.02460,45324
24.03393,44749
24.04328,43831
24.05262,42111
24.06195,43018
24.07130,40859
24.08063,41912
24.08997,43089
24.09932,44996
24.10865,44918
24.11798,43760
24.12733,45178
24.13667,43120
24.14600,43466
24.15535,42028
24.16468,44303
24.17403,42873
24.18337,42534
24.19270,41217
24.20205,42009
24.21138,41139
24.22072,43877
24.23007,43760
24.23940,43063
24.24873,43086
24.25808,42723
24.26742,43633
24.27675,44898
24.28610,44174
24.29543,43567
24.30477,46101
24.31412,48946
24.32345,52146
24.33278,55173
24.34213,53594
24.35147,51351
24.36082,49306
24.37015,44435
24.37948,49009
24.38883,49631
24.39817,51740
24.40750,50356
24.41685,49678
24.42618,46845
24.43552,45503
24.44487,46826
24.45420,45277
24.46353,43499
24.47288,43741
24.48222,47545
24.49155,46061
24.50090,45212
24.51023,45120
24.51957,46290
24.52892,44477
24.53825,46844
24.54760,46988
24.55693,49707
24.56627,47242
24.57562,45705
24.58495,47705
24.59428,46383
24.60363,47243
24.61297,47292
24.62230,51109
24.63165,48121
24.64098,48239
24.65032,48359
24.65967,47962
24.66900,49383
24.67833,49431
24.68768,50436
24.69702,47082
24.70637,50159
24.71570,49004
24.72503,49813
24.73438,49293
24.74372,47012
24.75305,44893
24.76240,45425
24.77173,45578
24.78107,46717
24.79042,44482
24.79975,44354
24.80908,44028
24.81843,48426
24.82777,46817
24.83710,50346
24.84645,47050
24.85578,46599
24.86512,48254
24.87447,49211
24.88380,50799
24.89315,49255
24.90248,48631
24.91182,50209
24.92117,47800
24.93050,47591
24.93983,47387
24.94918,51337
24.95852,51091
24.96785,52043
24.97720,52327
24.98653,49981
24.99587,49703
25.00522,49460
25.01455,48531
25.02388,46802
25.03323,45960
25.04257,48132
25.05190,45366
25.06125,45349
25.07058,48110
25.07993,48298
25.08927,48937
25.09860,48969
25.10795,48955
25.11728,48008
25.12662,50445
25.13597,51542
25.14530,52653
25.15463,55807
25.16398,56153
25.17332,53759
25.18265,49407
25.19200,49534
25.20133,51119
25.21067,49877
25.22002,51090
25.22935,49520
25.23868,49613
25.24803,50663
25.25737,52550
25.26672,52399
25.27605,52696
25.28538,51160
25.29473,53065
25.30407,53860
25.31340,55285
25.32275,69709
25.33208,101201
25.34142,119598
25.35077,106388
25.36010,85492
25.36943,76902
25.37878,67856
25.38812,64685
25.39745,63038
25.40680,60228
25.41613,58822
25.42547,58645
25.43482,57004
25.44415,57220
25.45350,59548
25.46283,60396
25.47217,61329
25.48152,69489
25.49085,75571
25.50018,76986
25.50953,73438
25.51887,71623
25.52820,71315
25.53755,66646
25.54688,65795
25.55622,65224
25.56557,66051
25.57490,64099
25.58423,61221
25.59358,61713
25.60292,61051
25.61227,59772
25.62160,58642
25.63093,58511
25.64028,60546
25.64962,63386
25.65895,65723
25.66830,66765
25.67763,64036
25.68697,62239
25.69632,61405
25.70565,60510
25.71498,60046
25.72433,60563
25.73367,60605
25.74300,62402
25.75235,64856
25.76168,64086
25.77102,63148
25.78037,61998
25.78970,59993
25.79905,66006
25.80838,69719
25.81772,74522
25.82707,69968
25.83640,65995
25.84573,66126
25.85508,62695
25.86442,59681
25.87375,61293
25.88310,57348
25.89243,58941
25.90177,61435
25.91112,58918
25.92045,57113
25.92978,56386
25.93913,59791
25.94847,63249
25.95780,68649
25.96715,69964
25.97648,66946
25.98583,64261
25.99517,64509
26.00450,64416
26.01385,65249
26.02318,63255
26.03252,64351
26.04187,66449
26.05120,67402
26.06053,69427
26.06988,70005
26.07922,68367
26.08855,67293
26.09790,64509
26.10723,63604
26.11657,62766
26.12592,61444
26.13525,63731
26.14458,64929
26.15393,71313
26.16327,72036
26.17262,69090
26.18195,68755
26.19128,66687
26.20063,64233
26.20997,59931
26.21930,61192
26.22865,59862
26.23798,59847
26.24732,60783
26.25667,60384
26.26600,61055
26.27533,59741
26.28468,63330
26.29402,63699
26.30335,61914
26.31270,64727
26.32203,64022
26.33137,65999
26.34072,65082
26.35005,63421
26.35940,64381
26.36873,65787
26.37807,62354
26.38742,63412
26.39675,60862
26.40608,61647
26.41543,63759
26.42477,62774
26.43410,60903
26.44345,62620
26.45278,65313
26.46212,70386
26.47147,71882
26.48080,66184
26.49013,66724
26.49948,66854
26.50882,65392
26.51817,68250
26.52750,67743
26.53683,73994
26.54618,77651
26.55552,80087
26.56485,75097
26.57420,71780
26.58353,71233
26.59287,71579
26.60222,70831
26.61155,70908
26.62088,68019
26.63023,66336
26.63957,66875
26.64890,67801
26.65825,66078
26.66758,69551
26.67692,70939
26.68627,69330
26.69560,66192
26.70495,63743
26.71428,66475
26.72362,64009
26.73297,65652
26.74230,67845
26.75163,64968
26.76098,69967
26.77032,69949
26.77965,70431
26.78900,72606
26.79833,71995
26.80767,70371
26.81702,71592
26.82635,68828
26.83568,73306
26.84503,72590
26.85437,74897
26.86370,76680
26.87305,73487
26.88238,75360
26.89173,71500
26.90107,72642
26.91040,71207
26.91975,72186
26.92908,70386
26.93842,69173
26.94777,70892
26.95710,72950
26.96643,71606
26.97578,72337
26.98512,71984
26.99445,70893
27.00380,71498
27.01313,73450
27.02247,72056
27.03182,72471
27.04115,71815
27.05048,70854
27.05983,73841
27.06917,75102
27.07852,73567
27.08785,69962
27.09718,71295
27.10653,73177
27.11587,69629
27.12520,72561
27.13455,73439
27.14388,72666
27.15322,74222
27.16257,72131
27.17190,72636
27.18123,76125
27.19058,71381
27.19992,72115
27.20925,69036
27.21860,70256
27.22793,70553
27.23728,73997
27.24662,78640
27.25595,80498
27.26530,88127
27.27463,85398
27.28397,84068
27.29332,77741
27.30265,75122
27.31198,75580
27.32133,70489
27.33067,74486
27.34000,70445
27.34935,74890
27.35868,73994
27.36802,72342
27.37737,71946
27.38670,73587
27.39603,75371
27.40538,71233
27.41472,73816
27.42407,75842
27.43340,77180
27.44273,78743
27.45208,78579
27.46142,77472
27.47075,77162
27.48010,76137
27.48943,78639
27.49877,77488
27.50812,77930
27.51745,80199
27.52678,80123
27.53613,78332
27.54547,78600
27.55480,80123
27.56415,75912
27.57348,76514
27.58282,77380
27.59217,78135
27.60150,78814
27.61085,75023
27.62018,74519
27.62952,77008
27.63887,77645
27.64820,79275
27.65753,78583
27.66688,84484
27.67622,99255
27.68555,113653
27.69490,115118
27.70423,101825
27.71357,94037
27.72292,87668
27.73225,87327
27.74158,85505
27.75093,85566
27.76027,84940
27.76960,82578
27.77895,86139
27.78828,87000
27.79763,88305
27.80697,84890
27.81630,88531
27.82565,85249
27.83498,86421
27.84432,88453
27.85367,86333
27.86300,88541
27.87233,87163
27.88168,91128
27.89102,90464
27.90035,88722
27.90970,86974
27.91903,87400
27.92837,91881
27.93772,91985
27.94705,92926
27.95638,87959
27.96573,89158
27.97507,88176
27.98442,88400
27.99375,87556
28.00308,87306
28.01243,86818
28.02177,86695
28.03110,87706
28.04045,89169
28.04978,83657
28.05912,84610
28.06847,88493
28.07780,87036
28.08713,85617
28.09648,88182
28.10582,88278
28.11515,94153
28.12450,96170
28.13383,98654
28.14317,101564
28.15252,97952
28.16185,92296
28.17120,93411
28.18053,94859
28.18987,94989
28.19922,93506
28.20855,92953
28.21788,91441
28.22723,92777
28.23657,92100
28.24590,89043
28.25525,92785
28.26458,92988
28.27392,91041
28.28327,89927
28.29260,92217
28.30193,91483
28.31128,92674
28.32062,89638
28.32997,90160
28.33930,91610
28.34863,89106
28.35798,92291
28.36732,92785
28.37665,90502
28.38600,91753
28.39533,89372
28.40467,93443
28.41402,93434
28.42335,93878
28.43268,92094
28.44203,91965
28.45137,92199
28.46070,95140
28.47005,99264
28.47938,95420
28.48872,98656
28.49807,97249
28.50740,99862
28.51675,100591
28.52608,102304
28.53542,100994
28.54477,106135
28.55410,106643
28.56343,111073
28.57278,108479
28.58212,112589
28.59145,114657
28.60080,118037
28.61013,119385
28.61947,119646
28.62882,116780
28.63815,120028
28.64748,119521
28.65683,121994
28.66617,135719
28.67550,178723
28.68485,240254
28.69418,267194
28.70353,228902
28.71287,174126
28.72220,139662
28.73155,124464
28.74088,120348
28.75022,117984
28.75957,115246
28.76890,113809
28.77823,113629
28.78758,114091
28.79692,112889
28.80625,111196
28.81560,112163
28.82493,108251
28.83427,113476
28.84362,113238
28.85295,110900
28.86228,113811
28.87163,116319
28.88097,111411
28.89032,111509
28.89965,111532
28.90898,111733
28.91833,111507
28.92767,112705
28.93700,114103
28.94635,111150
28.95568,112640
28.96502,111034
28.97437,111642
28.98370,116632
28.99303,117540
29.00238,116456
29.01172,118198
29.02105,115737
29.03040,114635
29.03973,114350
29.04908,118083
29.05842,117815
29.06775,118534
29.07710,115243
29.08643,117661
29.09577,116585
29.10512,117354
29.11445,116010
29.12378,116589
29.13313,116320
29.14247,118343
29.15180,116334
29.16115,119183
29.17048,114557
29.17982,114650
29.18917,119992
29.19850,125025
29.20783,130101
29.21718,135365
29.22652,130325
29.23587,122940
29.24520,118317
29.25453,115655
29.26388,120133
29.27322,116159
29.28255,115862
29.29190,114112
29.30123,112292
29.31057,115109
29.31992,116577
29.32925,118790
29.33858,116667
29.34793,117974
29.35727,115889
29.36660,114682
29.37595,116005
29.38528,115817
29.39462,117669
29.40397,117067
29.41330,117404
29.42265,118494
29.43198,117591
29.44132,118156
29.45067,123928
29.46000,136455
29.46933,144961
29.47868,155065
29.48802,153175
29.49735,142951
29.50670,136038
29.51603,126007
29.52537,126578
29.53472,119935
29.54405,120120
29.55338,117821
29.56273,118704
29.57207,117523
29.58140,119140
29.59075,115400
29.60008,122533
29.60943,116747
29.61877,118503
29.62810,119915
29.63745,117396
29.64678,120118
29.65612,121094
29.66547,119077
29.67480,118719
29.68413,120583
29.69348,118039
29.70282,118304
29.71215,123329
29.72150,122278
29.73083,121568
29.74017,124593
29.74952,125516
29.75885,122855
29.76818,123192
29.77753,119586
29.78687,119927
29.79622,118579
29.80555,117912
29.81488,113187
29.82423,116205
29.83357,113822
29.84290,114799
29.85225,115268
29.86158,117676
29.87092,112986
29.88027,112657
29.88960,114734
29.89893,114428
29.90828,115337
29.91762,116890
29.92695,118136
29.93630,121367
29.94563,118236
29.95497,118172
29.96432,119579
29.97365,129005
29.98300,132759
29.99233,144895
30.00167,147514
30.01102,137888
30.02035,134330
30.02968,130615
30.03903,129477
30.04837,128174
30.05770,127676
30.06705,127553
30.07638,126714
30.08572,124896
30.09507,127842
30.10440,121269
30.11373,125775
30.12308,124381
30.13242,128869
30.14177,126357
30.15110,126871
30.16043,123947
30.16978,126495
30.17912,124083
30.18845,123821
30.19780,126413
30.20713,125470
30.21647,124908
30.22582,123925
30.23515,123097
30.24448,121193
30.25383,124467
30.26317,126419
30.27250,126578
30.28185,126176
30.29118,131009
30.30052,126488
30.30987,125690
30.31920,123227
30.32855,122938
30.33788,130306
30.34722,147151
30.35657,181799
30.36590,229635
30.37523,273452
30.38458,289732
30.39392,271636
30.40325,239291
30.41260,216353
30.42193,200546
30.43127,186618
30.44062,170521
30.44995,160933
30.45928,154446
30.46863,149200
30.47797,150228
30.48730,147226
30.49665,145445
30.50598,145538
30.51533,142079
30.52467,142588
30.53400,143886
30.54335,144344
30.55268,143006
30.56202,139596
30.57137,138029
30.58070,138197
30.59003,140800
30.59938,142786
30.60872,140927
30.61805,145700
30.62740,146588
30.63673,148261
30.64607,151827
30.65542,154768
30.66475,157213
30.67408,154797
30.68343,156761
30.69277,147705
30.70212,148908
30.71145,149061
30.72078,145673
30.73013,144345
30.73947,141500
30.74880,142547
30.75815,139656
30.76748,138583
30.77682,138703
30.78617,138445
30.79550,136240
30.80483,139216
30.81418,139217
30.82352,139854
30.83285,137273
30.84220,139176
30.85153,135094
30.86088,136552
30.87022,139031
30.87955,134445
30.88890,139179
30.89823,140989
30.90757,136084
30.91692,139295
30.92625,138682
30.93558,137546
30.94493,140349
30.95427,139038
30.96360,138310
30.97295,141149
30.98228,138238
30.99162,137771
31.00097,140911
31.01030,140638
31.01963,138467
31.02898,137521
31.03832,139434
31.04767,137609
31.05700,140544
31.06633,139150
31.07568,136757
31.08502,136493
31.09435,136757
31.10370,137953
31.11303,133126
31.12237,132614
31.13172,132386
31.14105,131717
31.15038,132295
31.15973,131982
31.16907,133615
31.17840,133249
31.18775,133765
31.19708,131783
31.20642,132726
31.21577,134560
31.22510,134259
31.23445,134796
31.24378,132860
31.25312,133079
31.26247,129937
31.27180,131823
31.28113,130136
31.29048,131506
31.29982,128054
31.30915,128919
31.31850,133334
31.32783,132427
31.33717,132932
31.34652,132724
31.35585,131132
31.36518,134033
