D:\数据\202112114\ZS1E-TJ-000101.D Tue Dec 14 12:08:48 2021
Start of data points
0.09745,29855
0.10678,29367
0.11613,28154
0.12547,27932
0.13480,28094
0.14415,28661
0.15348,28363
0.16282,28864
0.17217,29200
0.18150,27782
0.19083,27475
0.20018,27931
0.20952,28622
0.21887,28254
0.22820,28567
0.23753,29244
0.24688,28254
0.25622,27904
0.26555,27680
0.27490,27629
0.28423,27354
0.29357,26204
0.30292,27086
0.31225,27593
0.32158,27589
0.33093,27686
0.34027,27906
0.34960,27591
0.35895,27997
0.36828,27601
0.37763,26508
0.38697,26056
0.39630,25309
0.40565,20311
0.41498,18347
0.42432,13634
0.43367,7821
0.44300,6800
0.45233,5697
0.46168,6482
0.47102,6773
0.48035,6819
0.48970,6276
0.49903,5670
0.50837,5549
0.51772,6312
0.52705,5254
0.53638,5604
0.54573,5063
0.55507,5109
0.56442,5130
0.57375,5188
0.58308,5080
0.59243,5564
0.60177,6090
0.61110,5572
0.62045,5409
0.62978,5572
0.63912,5069
0.64847,5197
0.65780,5372
0.66713,5158
0.67648,4826
0.68582,5168
0.69515,4854
0.70450,5089
0.71383,4968
0.72317,5538
0.73252,5423
0.74185,5362
0.75120,5944
0.76053,4248
0.76987,4878
0.77922,4990
0.78855,5133
0.79788,4858
0.80723,5256
0.81657,5145
0.82590,5512
0.83525,4366
0.84458,5509
0.85392,5398
0.86327,4886
0.87260,4974
0.88193,5007
0.89128,5393
0.90062,4783
0.90995,5646
0.91930,5062
0.92863,5103
0.93798,5082
0.94732,5355
0.95665,4890
0.96600,5303
0.97533,5267
0.98467,4838
0.99402,4742
1.00335,5222
1.01268,4992
1.02203,5133
1.03137,4574
1.04070,4591
1.05005,4537
1.05938,4586
1.06872,4956
1.07807,4692
1.08740,5164
1.09673,4809
1.10608,5245
1.11542,5076
1.12477,4744
1.13410,4397
1.14343,5343
1.15278,4809
1.16212,4915
1.17145,5010
1.18080,4561
1.19013,4909
1.19947,5117
1.20882,4521
1.21815,4409
1.22748,4717
1.23683,4976
1.24617,4930
1.25550,3892
1.26485,4920
1.27418,3799
1.28352,4423
1.29287,5313
1.30220,4462
1.31155,4653
1.32088,4885
1.33022,5040
1.33957,4580
1.34890,5393
1.35823,4772
1.36758,4302
1.37692,5060
1.38625,4805
1.39560,4813
1.40493,4487
1.41427,4674
1.42362,4729
1.43295,4491
1.44228,5149
1.45163,4448
1.46097,4547
1.47032,4901
1.47965,4712
1.48898,4736
1.49833,4355
1.50767,4897
1.51700,4901
1.52635,4348
1.53568,3745
1.54502,4262
1.55437,4863
1.56370,4891
1.57303,4647
1.58238,6601
1.59172,13881
1.60105,19253
1.61040,26115
1.61973,31946
1.62907,41125
1.63842,51979
1.64775,57206
1.65710,56173
1.66643,48169
1.67577,41435
1.68512,36445
1.69445,30489
1.70378,22533
1.71313,21217
1.72247,23485
1.73180,26084
1.74115,29554
1.75048,35149
1.75982,41213
1.76917,41761
1.77850,40532
1.78783,40172
1.79718,41779
1.80652,39488
1.81585,38952
1.82520,39024
1.83453,37788
1.84388,36261
1.85322,36201
1.86255,37989
1.87190,43866
1.88123,62903
1.89057,103589
1.89992,146887
1.90925,169964
1.91858,215402
1.92793,387319
1.93727,814784
1.94660,1435363
1.95595,1928633
1.96528,1941035
1.97462,1571499
1.98397,1148968
1.99330,841441
2.00265,662323
2.01198,587163
2.02132,556555
2.03067,499409
2.04000,376838
2.04933,255998
2.05868,182615
2.06802,144664
2.07735,119398
2.08670,96910
2.09603,84698
2.10537,76369
2.11472,71463
2.12405,75718
2.13338,90306
2.14273,126312
2.15207,147736
2.16140,129735
2.17075,112316
2.18008,106027
2.18943,154131
2.19877,202118
2.20810,166638
2.21745,112223
2.22678,101968
2.23612,139113
2.24547,232231
2.25480,782439
2.26413,2440933
2.27348,3072488
2.28282,2355139
2.29215,1512449
2.30150,1057495
2.31083,2326295
2.32017,6623444
2.32952,8080093
2.33885,5080497
2.34818,2279879
2.35753,982118
2.36687,471148
2.37622,286592
2.38555,239251
2.39488,205844
2.40423,171703
2.41357,150599
2.42290,139871
2.43225,145063
2.44158,138663
2.45092,117677
2.46027,110000
2.46960,132453
2.47893,162341
2.48828,149363
2.49762,114368
2.50695,90685
2.51630,79586
2.52563,73502
2.53497,70271
2.54432,70955
2.55365,77037
2.56300,96514
2.57233,436533
2.58167,588814
2.59102,476072
2.60035,342718
2.60968,260022
2.61903,224786
2.62837,221298
2.63770,187637
2.64705,157354
2.65638,135025
2.66572,122083
2.67507,103752
2.68440,87944
2.69373,74161
2.70308,69378
2.71242,71268
2.72175,86901
2.73110,117892
2.74043,129508
2.74978,136115
2.75912,151580
2.76845,169824
2.77780,211730
2.78713,264496
2.79647,258384
2.80582,213982
2.81515,185807
2.82448,193600
2.83383,178431
2.84317,150820
2.85250,143983
2.86185,165298
2.87118,174055
2.88052,207657
2.88987,182185
2.89920,142657
2.90853,114968
2.91788,103457
2.92722,94316
2.93657,84004
2.94590,72936
2.95523,66911
2.96458,63458
2.97392,61119
2.98325,57030
2.99260,57270
3.00193,61669
3.01127,67242
3.02062,69524
3.02995,68845
3.03928,77160
3.04863,139336
3.05797,207331
3.06730,290448
3.07665,297874
3.08598,225652
3.09533,141712
3.10467,92142
3.11400,67493
3.12335,58762
3.13268,57223
3.14202,57149
3.15137,59052
3.16070,69667
3.17003,71803
3.17938,70954
3.18872,70160
3.19805,62995
3.20740,61352
3.21673,60016
3.22607,59365
3.23542,56971
3.24475,56182
3.25408,57908
3.26343,60610
3.27277,57741
3.28212,57005
3.29145,55325
3.30078,62074
3.31013,65846
3.31947,62978
3.32880,56046
3.33815,53600
3.34748,51286
3.35682,55855
3.36617,52529
3.37550,50505
3.38483,47692
3.39418,46988
3.40352,48067
3.41285,62967
3.42220,79762
3.43153,79384
3.44087,71194
3.45022,68081
3.45955,77303
3.46890,75295
3.47823,69205
3.48757,66184
3.49692,67014
3.50625,63599
3.51558,57517
3.52493,55688
3.53427,50845
3.54360,56684
3.55295,101839
3.56228,261491
3.57162,472127
3.58097,502922
3.59030,343486
3.59963,190733
3.60898,118684
3.61832,130519
3.62765,143953
3.63700,129347
3.64633,105728
3.65568,92111
3.66502,83202
3.67435,87615
3.68370,90362
3.69303,83642
3.70237,66520
3.71172,62295
3.72105,65065
3.73038,68143
3.73973,67550
3.74907,60969
3.75840,57709
3.76775,55331
3.77708,51789
3.78642,49428
3.79577,50289
3.80510,68655
3.81445,128892
3.82378,196117
3.83312,185100
3.84247,126489
3.85180,84681
3.86113,64075
3.87048,58387
3.87982,55450
3.88915,56383
3.89850,62988
3.90783,67002
3.91717,65856
3.92652,66833
3.93585,69617
3.94518,78006
3.95453,93240
3.96387,114934
3.97320,106081
3.98255,83156
3.99188,64519
4.00123,57515
4.01057,51905
4.01990,72358
4.02925,79924
4.03858,117606
4.04792,183461
4.05727,209844
4.06660,165308
4.07593,133085
4.08528,144758
4.09462,161171
4.10395,152488
4.11330,123456
4.12263,91740
4.13197,69954
4.14132,62607
4.15065,59255
4.15998,58288
4.16933,55915
4.17867,53806
4.18802,50469
4.19735,50848
4.20668,50657
4.21603,53597
4.22537,53165
4.23470,50964
4.24405,49279
4.25338,47829
4.26272,48045
4.27207,52542
4.28140,56746
4.29073,60480
4.30008,68924
4.30942,68237
4.31875,65378
4.32810,66959
4.33743,68575
4.34677,66652
4.35612,64194
4.36545,55970
4.37480,52436
4.38413,51753
4.39347,60158
4.40282,65350
4.41215,57084
4.42148,54595
4.43083,48511
4.44017,46241
4.44950,44125
4.45885,44872
4.46818,49416
4.47752,57887
4.48687,66347
4.49620,62065
4.50553,56618
4.51488,49889
4.52422,48667
4.53355,48991
4.54290,53338
4.55223,56363
4.56158,54796
4.57092,54390
4.58025,52977
4.58960,49184
4.59893,48585
4.60827,48696
4.61762,45554
4.62695,43512
4.63628,44813
4.64563,49734
4.65497,61397
4.66430,68448
4.67365,68080
4.68298,64632
4.69232,60597
4.70167,61723
4.71100,59883
4.72035,52217
4.72968,49516
4.73902,54993
4.74837,73008
4.75770,69645
4.76703,64290
4.77638,58242
4.78572,56052
4.79505,54617
4.80440,54146
4.81373,54178
4.82307,54129
4.83242,52043
4.84175,52942
4.85108,54858
4.86043,52872
4.86977,57749
4.87910,67429
4.88845,72308
4.89778,67409
4.90713,56434
4.91647,53186
4.92580,50017
4.93515,48996
4.94448,51132
4.95382,50282
4.96317,50473
4.97250,46747
4.98183,46035
4.99118,43917
5.00052,45058
5.00985,47149
5.01920,48922
5.02853,52097
5.03787,55943
5.04722,58378
5.05655,56356
5.06588,52753
5.07523,53161
5.08457,55254
5.09392,57131
5.10325,55401
5.11258,48552
5.12193,48116
5.13127,49256
5.14060,49843
5.14995,51254
5.15928,53415
5.16862,53819
5.17797,50063
5.18730,49432
5.19663,55369
5.20598,65989
5.21532,63118
5.22465,56615
5.23400,54214
5.24333,56881
5.25267,55386
5.26202,58082
5.27135,75462
5.28070,168081
5.29003,324330
5.29937,403968
5.30872,310436
5.31805,170190
5.32738,94545
5.33673,72951
5.34607,62285
5.35540,56637
5.36475,54721
5.37408,56440
5.38342,60905
5.39277,71820
5.40210,73130
5.41143,67706
5.42078,56332
5.43012,52295
5.43947,50022
5.44880,47875
5.45813,45195
5.46748,46077
5.47682,45481
5.48615,47278
5.49550,46133
5.50483,48890
5.51417,51101
5.52352,58575
5.53285,68033
5.54218,69205
5.55153,67988
5.56087,58323
5.57020,52604
5.57955,48218
5.58888,47119
5.59822,46628
5.60757,45371
5.61690,45004
5.62625,44724
5.63558,44990
5.64492,44765
5.65427,45356
5.66360,49159
5.67293,49784
5.68228,50348
5.69162,60312
5.70095,65034
5.71030,64277
5.71963,67340
5.72897,63709
5.73832,59357
5.74765,60381
5.75698,72392
5.76633,71999
5.77567,71335
5.78500,78504
5.79435,80163
5.80368,71902
5.81303,61947
5.82237,55396
5.83170,56859
5.84105,57146
5.85038,49119
5.85972,41363
5.86907,35683
5.87840,36734
5.88773,32659
5.89708,32821
5.90642,44706
5.91575,83143
5.92510,156366
5.93443,192905
5.94377,160019
5.95312,130336
5.96245,118817
5.97178,95019
5.98113,68594
5.99047,44829
5.99982,32925
6.00915,30078
6.01848,27599
6.02783,25733
6.03717,25755
6.04650,23099
6.05585,25172
6.06518,28807
6.07452,31453
6.08387,27433
6.09320,23707
6.10253,21139
6.11188,21028
6.12122,26839
6.13055,39740
6.13990,50360
6.14923,49226
6.15857,35913
6.16792,25616
6.17725,23100
6.18660,21103
6.19593,20814
6.20527,20607
6.21462,19425
6.22395,21423
6.23328,24498
6.24263,27167
6.25197,27181
6.26130,23972
6.27065,24171
6.27998,36447
6.28932,48340
6.29867,46225
6.30800,32137
6.31733,22710
6.32668,19707
6.33602,18728
6.34535,18950
6.35470,19771
6.36403,19829
6.37338,22249
6.38272,29657
6.39205,48376
6.40140,145763
6.41073,461531
6.42007,832992
6.42942,797107
6.43875,427275
6.44808,155480
6.45743,57763
6.46677,35480
6.47610,30629
6.48545,27673
6.49478,25879
6.50412,24212
6.51347,22659
6.52280,23622
6.53215,23705
6.54148,22741
6.55082,21631
6.56017,19159
6.56950,19613
6.57883,19911
6.58818,20357
6.59752,23392
6.60685,25159
6.61620,27592
6.62553,26498
6.63487,27818
6.64422,27712
6.65355,28791
6.66288,30411
6.67223,33111
6.68157,30066
6.69090,27181
6.70025,26338
6.70958,33797
6.71893,39874
6.72827,38055
6.73760,34070
6.74695,28556
6.75628,27541
6.76562,23495
6.77497,24946
6.78430,26026
6.79363,28922
6.80298,33807
6.81232,35755
6.82165,29583
6.83100,25591
6.84033,23604
6.84967,28800
6.85902,31954
6.86835,31935
6.87768,28339
6.88703,24977
6.89637,24214
6.90572,27013
6.91505,31580
6.92438,31755
6.93373,27982
6.94307,24618
6.95240,23958
6.96175,23158
6.97108,23856
6.98042,25284
6.98977,26428
6.99910,24797
7.00843,23214
7.01778,22625
7.02712,23208
7.03645,20955
7.04580,19066
7.05513,17048
7.06447,17435
7.07382,16541
7.08315,16393
7.09250,18945
7.10183,23690
7.11117,24516
7.12052,27382
7.12985,26007
7.13918,23854
7.14853,21402
7.15787,20326
7.16720,17927
7.17655,17708
7.18588,18341
7.19522,18820
7.20457,21488
7.21390,22137
7.22323,26390
7.23258,49587
7.24192,98427
7.25127,135315
7.26060,108865
7.26993,64950
7.27928,43037
7.28862,36998
7.29795,32837
7.30730,28600
7.31663,23937
7.32597,19615
7.33532,19063
7.34465,20021
7.35398,19795
7.36333,19660
7.37267,18293
7.38200,21854
7.39135,42425
7.40068,110510
7.41002,223067
7.41937,282242
7.42870,231904
7.43805,134236
7.44738,67699
7.45672,35540
7.46607,24944
7.47540,20821
7.48473,22300
7.49408,23939
7.50342,28631
7.51275,27544
7.52210,23420
7.53143,20654
7.54077,18571
7.55012,17847
7.55945,18257
7.56878,21525
7.57813,22013
7.58747,23699
7.59680,24867
7.60615,26689
7.61548,27722
7.62483,28854
7.63417,29781
7.64350,29950
7.65285,28006
7.66218,24418
7.67152,22282
7.68087,23118
7.69020,24319
7.69953,24793
7.70888,24848
7.71822,26228
7.72755,25102
7.73690,23896
7.74623,24376
7.75557,27616
7.76492,32160
7.77425,31775
7.78358,33009
7.79293,34882
7.80227,37446
7.81162,32326
7.82095,26219
7.83028,22783
7.83963,24130
7.84897,27668
7.85830,41222
7.86765,74897
7.87698,105135
7.88632,100355
7.89567,72679
7.90500,57951
7.91433,74141
7.92368,116087
7.93302,126336
7.94235,86044
7.95170,49700
7.96103,51601
7.97037,66533
7.97972,73395
7.98905,72815
7.99840,68416
8.00773,53699
8.01707,38243
8.02642,35144
8.03575,39994
8.04508,52055
8.05443,60314
8.06377,47156
8.07310,33147
8.08245,28649
8.09178,36318
8.10112,59028
8.11047,69448
8.11980,56227
8.12913,38866
8.13848,29987
8.14782,28727
8.15717,26068
8.16650,26467
8.17583,25510
8.18518,25080
8.19452,24949
8.20385,28576
8.21320,31970
8.22253,29408
8.23187,27609
8.24122,30205
8.25055,36460
8.25988,37601
8.26923,31566
8.27857,30084
8.28790,26120
8.29725,24797
8.30658,24216
8.31592,24130
8.32527,23153
8.33460,23888
8.34395,24896
8.35328,24306
8.36262,22885
8.37197,22076
8.38130,23226
8.39063,27760
8.39998,36549
8.40932,40602
8.41865,42564
8.42800,40656
8.43733,38526
8.44667,34526
8.45602,30184
8.46535,29759
8.47468,39002
8.48403,28637
8.49337,27928
8.50270,27167
8.51205,27308
8.52138,26570
8.53073,25317
8.54007,25860
8.54940,26949
8.55875,27561
8.56808,29022
8.57742,28926
8.58677,29160
8.59610,29106
8.60543,34747
8.61478,35674
8.62412,35107
8.63345,32220
8.64280,30299
8.65213,29718
8.66147,30804
8.67082,32732
8.68015,32175
8.68948,29971
8.69883,30107
8.70817,32335
8.71752,29341
8.72685,26881
8.73618,25869
8.74553,31870
8.75487,43669
8.76420,48758
8.77355,44567
8.78288,35607
8.79222,33427
8.80157,43435
8.81090,68148
8.82023,82291
8.82958,70329
8.83892,46600
8.84825,32966
8.85760,28975
8.86693,30385
8.87628,32511
8.88562,35269
8.89495,33894
8.90430,33735
8.91363,31973
8.92297,31785
8.93232,32808
8.94165,31954
8.95098,30778
8.96033,26916
8.96967,26379
8.97900,26146
8.98835,26978
8.99768,26140
9.00702,29075
9.01637,30943
9.02570,30469
9.03503,29221
9.04438,30255
9.05372,31151
9.06307,32897
9.07240,37293
9.08173,41464
9.09108,48524
9.10042,51329
9.10975,43297
9.11910,34117
9.12843,31346
9.13777,36931
9.14712,41736
9.15645,39594
9.16578,32885
9.17513,31841
9.18447,31605
9.19380,31133
9.20315,32509
9.21248,36093
9.22182,54479
9.23117,90405
9.24050,117050
9.24985,102652
9.25918,65722
9.26852,45814
9.27787,41220
9.28720,36996
9.29653,34581
9.30588,32911
9.31522,34273
9.32455,45202
9.33390,66784
9.34323,72120
9.35257,59634
9.36192,72839
9.37125,147279
9.38058,237802
9.38993,239032
9.39927,175775
9.40860,108081
9.41795,79025
9.42728,69568
9.43663,64179
9.44597,51432
9.45530,37434
9.46465,30506
9.47398,29245
9.48332,29753
9.49267,35705
9.50200,41995
9.51133,42716
9.52068,35968
9.53002,34536
9.53935,39112
9.54870,51066
9.55803,73876
9.56737,107298
9.57672,106981
9.58605,75644
9.59538,52593
9.60473,53960
9.61407,55788
9.62342,45583
9.63275,39838
9.64208,35548
9.65143,37640
9.66077,38962
9.67010,39241
9.67945,36747
9.68878,36677
9.69812,35497
9.70747,31917
9.71680,39169
9.72613,130802
9.73548,593904
9.74482,1591028
9.75415,2251603
9.76350,1730789
9.77283,849362
9.78218,369709
9.79152,204353
9.80085,148724
9.81020,118060
9.81953,104950
9.82887,104821
9.83822,115194
9.84755,129828
9.85688,129197
9.86623,103202
9.87557,83561
9.88490,90270
9.89425,102884
9.90358,105635
9.91292,89976
9.92227,78670
9.93160,75526
9.94093,74860
9.95028,61254
9.95962,50835
9.96897,52075
9.97830,74007
9.98763,146762
9.99698,208623
10.00632,190939
10.01565,123827
10.02500,74049
10.03433,53125
10.04367,46083
10.05302,45778
10.06235,53237
10.07168,73581
10.08103,87597
10.09037,85825
10.09970,68079
10.10905,60504
10.11838,99112
10.12772,219984
10.13707,333228
10.14640,407925
10.15575,970403
10.16508,2653133
10.17442,4026710
10.18377,3005549
10.19310,1090634
10.20243,225909
10.21178,68379
10.22112,54932
10.23045,50608
10.23980,64037
10.24913,88148
10.25847,92850
10.26782,68270
10.27715,48302
10.28648,44094
10.29583,43670
10.30517,41298
10.31450,38980
10.32385,38348
10.33318,37598
10.34253,36287
10.35187,36815
10.36120,39773
10.37055,43281
10.37988,41264
10.38922,35798
10.39857,33933
10.40790,30969
10.41723,31577
10.42658,32337
10.43592,34778
10.44525,37907
10.45460,41919
10.46393,48002
10.47327,50649
10.48262,48858
10.49195,39957
10.50130,34852
10.51063,32500
10.51997,31185
10.52932,31351
10.53865,32226
10.54798,35424
10.55733,38624
10.56667,39669
10.57600,42919
10.58535,42524
10.59468,39085
10.60402,35833
10.61337,33534
10.62270,35403
10.63203,45448
10.64138,57929
10.65072,58381
10.66005,43512
10.66940,37831
10.67873,42985
10.68808,47913
10.69742,49793
10.70675,43321
10.71610,46471
10.72543,54568
10.73477,53802
10.74412,46881
10.75345,55995
10.76278,99779
10.77213,138677
10.78147,148717
10.79080,244491
10.80015,634463
10.80948,1167900
10.81882,1163166
10.82817,647439
10.83750,215306
10.84683,73214
10.85618,44386
10.86552,42766
10.87487,47405
10.88420,53117
10.89353,60911
10.90288,54725
10.91222,46729
10.92155,44242
10.93090,45008
10.94023,46977
10.94957,44937
10.95892,40716
10.96825,39668
10.97758,39537
10.98693,34877
10.99627,33062
11.00560,33113
11.01495,34695
11.02428,32725
11.03362,30815
11.04297,29383
11.05230,31929
11.06165,32255
11.07098,37743
11.08032,44816
11.08967,42378
11.09900,38695
11.10833,39520
11.11768,49947
11.12702,55015
11.13635,50743
11.14570,47395
11.15503,44455
11.16437,41571
11.17372,38242
11.18305,36418
11.19238,34813
11.20173,31980
11.21107,32345
11.22040,32875
11.22975,34503
11.23908,36954
11.24843,34990
11.25777,36732
11.26710,44982
11.27645,45771
11.28578,39576
11.29512,33462
11.30447,33469
11.31380,31782
11.32313,31550
11.33248,41024
11.34182,53599
11.35115,77084
11.36050,86694
11.36983,83517
11.37917,64625
11.38852,51275
11.39785,54816
11.40718,79087
11.41653,113910
11.42587,114348
11.43522,84673
11.44455,51689
11.45388,38811
11.46323,45163
11.47257,61314
11.48190,69277
11.49125,54571
11.50058,41191
11.50992,31497
11.51927,30571
11.52860,33039
11.53793,29735
11.54728,31021
11.55662,35844
11.56595,53184
11.57530,104281
11.58463,151606
11.59398,147769
11.60332,114329
11.61265,84682
11.62200,67544
11.63133,56889
11.64067,52619
11.65002,54591
11.65935,58405
11.66868,61192
11.67803,57871
11.68737,50375
11.69670,43078
11.70605,39687
11.71538,39859
11.72472,38296
11.73407,37549
11.74340,35659
11.75273,34813
11.76208,36236
11.77142,36634
11.78077,41689
11.79010,50326
11.79943,54321
11.80878,48773
11.81812,44808
11.82745,44713
11.83680,45878
11.84613,44187
11.85547,41825
11.86482,40905
11.87415,43102
11.88348,41139
11.89283,42295
11.90217,39180
11.91150,38053
11.92085,35217
11.93018,36232
11.93952,44094
11.94887,59419
11.95820,72184
11.96755,65452
11.97688,45078
11.98622,37346
11.99557,37973
12.00490,49840
12.01423,75172
12.02358,95724
12.03292,88419
12.04225,63675
12.05160,51174
12.06093,43949
12.07027,38130
12.07962,33759
12.08895,33828
12.09828,35682
12.10763,36418
12.11697,36725
12.12630,34432
12.13565,36320
12.14498,37157
12.15433,39828
12.16367,47773
12.17300,79823
12.18235,126452
12.19168,132175
12.20102,89466
12.21037,54944
12.21970,46546
12.22903,54620
12.23838,63451
12.24772,62015
12.25705,48092
12.26640,50875
12.27573,89422
12.28507,154785
12.29442,163024
12.30375,109426
12.31310,62359
12.32243,48203
12.33177,46733
12.34112,49391
12.35045,50271
12.35978,45806
12.36913,41155
12.37847,44685
12.38780,47246
12.39715,54103
12.40648,52100
12.41582,47280
12.42517,39814
12.43450,40652
12.44383,37116
12.45318,36395
12.46252,38589
12.47185,41802
12.48120,45319
12.49053,47789
12.49988,44899
12.50922,46735
12.51855,48174
12.52790,46923
12.53723,47468
12.54657,51241
12.55592,53261
12.56525,62701
12.57458,67581
12.58393,60485
12.59327,48130
12.60260,39486
12.61195,41628
12.62128,59174
12.63062,93579
12.63997,124466
12.64930,141873
12.65863,150059
12.66798,166726
12.67732,159562
12.68667,115548
12.69600,66097
12.70533,43509
12.71468,43773
12.72402,50243
12.73335,50753
12.74270,45857
12.75203,44281
12.76137,43882
12.77072,41991
12.78005,39314
12.78938,37385
12.79873,41059
12.80807,39653
12.81740,42424
12.82675,42645
12.83608,41512
12.84542,38086
12.85477,35777
12.86410,34760
12.87345,33009
12.88278,33093
12.89212,34366
12.90147,37249
12.91080,40674
12.92013,38139
12.92948,34779
12.93882,33123
12.94815,35555
12.95750,37421
12.96683,38851
12.97617,36571
12.98552,34201
12.99485,33974
13.00418,34977
13.01353,36738
13.02287,43522
13.03220,54846
13.04155,62027
13.05088,56271
13.06023,46364
13.06957,42668
13.07890,44566
13.08825,47890
13.09758,45994
13.10692,45017
13.11627,43627
13.12560,41022
13.13493,46592
13.14428,52365
13.15362,51641
13.16295,50167
13.17230,46343
13.18163,44811
13.19097,50705
13.20032,81693
13.20965,174083
13.21898,282089
13.22833,291788
13.23767,192265
13.24702,133564
13.25635,126857
13.26568,105934
13.27503,82681
13.28437,69623
13.29370,57891
13.30305,50014
13.31238,46074
13.32172,49880
13.33107,52455
13.34040,53854
13.34973,52554
13.35908,50217
13.36842,48871
13.37775,43866
13.38710,40869
13.39643,46439
13.40578,56738
13.41512,53698
13.42445,45317
13.43380,42749
13.44313,46855
13.45247,52945
13.46182,50299
13.47115,47076
13.48048,48124
13.48983,50570
13.49917,45256
13.50850,42631
13.51785,60979
13.52718,105508
13.53652,144614
13.54587,119394
13.55520,72459
13.56453,43809
13.57388,37111
13.58322,37043
13.59257,35016
13.60190,33543
13.61123,33375
13.62058,33695
13.62992,35253
13.63925,40672
13.64860,46121
13.65793,53009
13.66727,50961
13.67662,44516
13.68595,38728
13.69528,35235
13.70463,34813
13.71397,33283
13.72330,32250
13.73265,29232
13.74198,28502
13.75132,29408
13.76067,32933
13.77000,32818
13.77935,31647
13.78868,33062
13.79802,35083
13.80737,43066
13.81670,51341
13.82603,45676
13.83538,37570
13.84472,32092
13.85405,34256
13.86340,34877
13.87273,37555
13.88207,41909
13.89142,56677
13.90075,95300
13.91008,170561
13.91943,306370
13.92877,373778
13.93812,264886
13.94745,120756
13.95678,64318
13.96613,55042
13.97547,50304
13.98480,44724
13.99415,42430
14.00348,42002
14.01282,41667
14.02217,40282
14.03150,39068
14.04083,53792
14.05018,244531
14.05952,1451561
14.06885,4789817
14.07820,8314237
14.08753,7331012
14.09687,3162906
14.10622,663238
14.11555,120859
14.12490,59605
14.13423,53029
14.14357,52504
14.15292,53686
14.16225,56689
14.17158,60443
14.18093,66887
14.19027,77164
14.19960,105984
14.20895,109526
14.21828,80168
14.22762,51740
14.23697,38666
14.24630,33427
14.25563,32662
14.26498,36617
14.27432,39478
14.28365,40958
14.29300,37065
14.30233,37141
14.31168,36782
14.32102,44632
14.33035,60411
14.33970,71988
14.34903,64832
14.35837,52743
14.36772,40082
14.37705,37093
14.38638,35237
14.39573,35739
14.40507,37523
14.41440,35067
14.42375,32958
14.43308,32228
14.44242,39013
14.45177,59197
14.46110,101014
14.47043,135931
14.47978,125899
14.48912,86906
14.49847,57696
14.50780,41777
14.51713,34983
14.52648,31713
14.53582,33494
14.54515,34118
14.55450,34950
14.56383,39791
14.57317,42201
14.58252,40529
14.59185,35697
14.60118,34533
14.61053,34330
14.61987,34034
14.62920,36878
14.63855,41454
14.64788,57677
14.65722,75204
14.66657,85960
14.67590,72929
14.68525,57514
14.69458,43405
14.70392,38804
14.71327,37766
14.72260,34537
14.73193,36254
14.74128,36747
14.75062,37154
14.75995,38513
14.76930,37862
14.77863,39915
14.78797,42008
14.79732,41893
14.80665,41688
14.81598,37979
14.82533,37621
14.83467,37242
14.84400,35674
14.85335,33452
14.86268,38271
14.87203,49548
14.88137,59224
14.89070,55545
14.90005,45442
14.90938,38803
14.91872,37729
14.92807,37987
14.93740,37234
14.94673,37753
14.95608,37964
14.96542,42971
14.97475,49007
14.98410,48936
14.99343,43965
15.00277,41948
15.01212,48781
15.02145,48094
15.03080,46321
15.04013,41770
15.04947,43997
15.05882,49277
15.06815,50399
15.07748,51897
15.08683,47457
15.09617,41639
15.10550,35739
15.11485,37179
15.12418,43082
15.13352,52074
15.14287,56794
15.15220,52636
15.16153,40947
15.17088,34568
15.18022,37265
15.18955,36983
15.19890,45055
15.20823,64566
15.21758,93190
15.22692,110980
15.23625,95451
15.24560,71166
15.25493,50790
15.26427,40152
15.27362,39660
15.28295,41031
15.29228,41780
15.30163,39980
15.31097,39377
15.32030,38591
15.32965,42041
15.33898,44795
15.34832,48080
15.35767,46205
15.36700,46024
15.37633,52762
15.38568,51876
15.39502,44985
15.40437,36463
15.41370,34378
15.42303,38347
15.43238,41737
15.44172,41666
15.45105,38598
15.46040,36594
15.46973,35513
15.47907,36290
15.48842,36262
15.49775,40763
15.50708,46522
15.51643,66332
15.52577,83832
15.53510,82578
15.54445,62296
15.55378,44897
15.56312,35550
15.57247,34517
15.58180,33787
15.59115,33177
15.60048,34200
15.60982,37055
15.61917,39279
15.62850,41688
15.63783,49303
15.64718,52256
15.65652,53047
15.66585,53704
15.67520,55013
15.68453,50855
15.69387,50720
15.70322,61641
15.71255,70483
15.72188,64990
15.73123,49167
15.74057,42457
15.74992,46895
15.75925,57288
15.76858,58261
15.77793,54217
15.78727,47800
15.79660,44554
15.80595,55148
15.81528,106337
15.82462,233423
15.83397,407147
15.84330,480703
15.85263,414079
15.86198,258848
15.87132,132018
15.88065,82820
15.89000,78841
15.89933,85898
15.90867,88264
15.91802,83220
15.92735,63050
15.93670,50886
15.94603,46732
15.95537,44038
15.96472,44268
15.97405,46789
15.98338,59361
15.99273,80638
16.00207,90591
16.01140,78176
16.02075,59023
16.03008,43884
16.03942,43386
16.04877,40756
16.05810,44691
16.06743,46085
16.07678,45525
16.08612,43863
16.09545,42801
16.10480,45126
16.11413,51349
16.12348,56190
16.13282,56307
16.14215,50284
16.15150,42496
16.16083,43555
16.17017,41781
16.17952,38815
16.18885,39872
16.19818,44817
16.20753,50235
16.21687,51781
16.22620,52848
16.23555,51425
16.24488,50874
16.25422,49845
16.26357,47526
16.27290,51445
16.28223,61671
16.29158,105258
16.30092,171758
16.31027,201852
16.31960,147747
16.32893,81996
16.33828,51179
16.34762,42588
16.35695,37653
16.36630,35958
16.37563,31910
16.38497,34324
16.39432,34075
16.40365,37341
16.41298,37440
16.42233,40931
16.43167,40715
16.44100,38368
16.45035,44267
16.45968,48944
16.46902,49532
16.47837,48574
16.48770,44860
16.49705,43565
16.50638,43351
16.51572,44893
16.52507,45847
16.53440,45370
16.54373,45326
16.55308,40493
16.56242,38211
16.57175,35789
16.58110,37607
16.59043,40274
16.59977,40706
16.60912,37885
16.61845,39743
16.62778,47092
16.63713,51903
16.64647,52998
16.65582,50702
16.66515,41350
16.67448,41871
16.68383,40268
16.69317,49256
16.70250,63108
16.71185,60146
16.72118,50913
16.73052,43053
16.73987,50110
16.74920,81590
16.75853,117659
16.76788,104349
16.77722,64072
16.78655,42551
16.79590,37996
16.80523,38246
16.81457,42425
16.82392,50353
16.83325,56339
16.84260,56585
16.85193,51278
16.86127,44772
16.87062,40617
16.87995,37855
16.88928,37708
16.89863,40527
16.90797,47033
16.91730,59097
16.92665,63087
16.93598,59219
16.94532,52661
16.95467,57758
16.96400,63876
16.97333,65297
16.98268,56165
16.99202,47369
17.00135,44614
17.01070,39877
17.02003,45322
17.02938,64028
17.03872,91618
17.04805,95031
17.05740,69725
17.06673,53368
17.07607,47040
17.08542,45676
17.09475,42522
17.10408,43095
17.11343,40164
17.12277,37906
17.13210,40648
17.14145,42628
17.15078,44255
17.16012,40350
17.16947,36844
17.17880,37225
17.18813,35680
17.19748,37096
17.20682,37538
17.21617,36554
17.22550,35315
17.23483,35256
17.24418,36096
17.25352,38469
17.26285,40380
17.27220,45275
17.28153,48224
17.29087,52707
17.30022,48177
17.30955,45232
17.31888,45217
17.32823,49844
17.33757,48909
17.34690,43745
17.35625,41203
17.36558,40060
17.37493,59642
17.38427,120315
17.39360,189906
17.40295,176177
17.41228,106792
17.42162,68023
17.43097,52285
17.44030,45779
17.44963,45817
17.45898,46497
17.46832,46601
17.47765,44584
17.48700,60774
17.49633,212971
17.50567,886931
17.51502,2164475
17.52435,2716009
17.53368,1686563
17.54303,546766
17.55237,126943
17.56172,56516
17.57105,53353
17.58038,57240
17.58973,60946
17.59907,57988
17.60840,50293
17.61775,43509
17.62708,42290
17.63642,42460
17.64577,46134
17.65510,45362
17.66443,53659
17.67378,56936
17.68312,65219
17.69245,75244
17.70180,79148
17.71113,70771
17.72047,61921
17.72982,56064
17.73915,48922
17.74850,49917
17.75783,52270
17.76717,56645
17.77652,60322
17.78585,57527
17.79518,54249
17.80453,52253
17.81387,48909
17.82320,42674
17.83255,42471
17.84188,42113
17.85122,46470
17.86057,57231
17.86990,63282
17.87923,67295
17.88858,58860
17.89792,54503
17.90725,44974
17.91660,42877
17.92593,41106
17.93528,42922
17.94462,44441
17.95395,42974
17.96330,41113
17.97263,40775
17.98197,41428
17.99132,38292
18.00065,39369
18.00998,40443
18.01933,42152
18.02867,43962
18.03800,43644
18.04735,46218
18.05668,47519
18.06602,49799
18.07537,44508
18.08470,38445
18.09403,40085
18.10338,48323
18.11272,59739
18.12207,70451
18.13140,65280
18.14073,55082
18.15008,53037
18.15942,50962
18.16875,49908
18.17810,49712
18.18743,48773
18.19677,47681
18.20612,43636
18.21545,43930
18.22478,45966
18.23413,45460
18.24347,43969
18.25280,40057
18.26215,37890
18.27148,39870
18.28082,44958
18.29017,50141
18.29950,51994
18.30885,54273
18.31818,56725
18.32752,53598
18.33687,54504
18.34620,60932
18.35553,63999
18.36488,70705
18.37422,68989
18.38355,64103
18.39290,63688
18.40223,64401
18.41157,67249
18.42092,66477
18.43025,57031
18.43958,52306
18.44893,58732
18.45827,58614
18.46762,54546
18.47695,48795
18.48628,48630
18.49563,57887
18.50497,72622
18.51430,86224
18.52365,87092
18.53298,71201
18.54232,58422
18.55167,52956
18.56100,56265
18.57033,57592
18.57968,59522
18.58902,70300
18.59835,77598
18.60770,70457
18.61703,64738
18.62637,60528
18.63572,55690
18.64505,51248
18.65440,52960
18.66373,51583
18.67307,53733
18.68242,59556
18.69175,60641
18.70108,63215
18.71043,64517
18.71977,68616
18.72910,70279
18.73845,63374
18.74778,59839
18.75712,54326
18.76647,48899
18.77580,44309
18.78513,42236
18.79448,42905
18.80382,42408
18.81315,44699
18.82250,44905
18.83183,48251
18.84118,45133
18.85052,43129
18.85985,39852
18.86920,41054
18.87853,41172
18.88787,40723
18.89722,42702
18.90655,47952
18.91588,58449
18.92523,64451
18.93457,61828
18.94390,56823
18.95325,59407
18.96258,65684
18.97192,72724
18.98127,73716
18.99060,63215
18.99993,54678
19.00928,48826
19.01862,48097
19.02797,48122
19.03730,48912
19.04663,62564
19.05598,84362
19.06532,101135
19.07465,112611
19.08400,139475
19.09333,156479
19.10267,131811
19.11202,89906
19.12135,61519
19.13068,49463
19.14003,42079
19.14937,39139
19.15870,40403
19.16805,38907
19.17738,38757
19.18673,39191
19.19607,44926
19.20540,49254
19.21475,51308
19.22408,55726
19.23342,51090
19.24277,50729
19.25210,45811
19.26143,40992
19.27078,42244
19.28012,47700
19.28945,54083
19.29880,62058
19.30813,88026
19.31747,118018
19.32682,116055
19.33615,90226
19.34548,64393
19.35483,52432
19.36417,46111
19.37352,40045
19.38285,42318
19.39218,42358
19.40153,43352
19.41087,46155
19.42020,45420
19.42955,41428
19.43888,39277
19.44822,38111
19.45757,38193
19.46690,37757
19.47623,43705
19.48558,44630
19.49492,51321
19.50425,48637
19.51360,44846
19.52293,38953
19.53227,39586
19.54162,39515
19.55095,40291
19.56030,39365
19.56963,40646
19.57897,44692
19.58832,49626
19.59765,51562
19.60698,48247
19.61633,44347
19.62567,46614
19.63500,53457
19.64435,56875
19.65368,55315
19.66302,46706
19.67237,40955
19.68170,42233
19.69103,43821
19.70038,46500
19.70972,48035
19.71905,53603
19.72840,64467
19.73773,79498
19.74708,77377
19.75642,61178
19.76575,52515
19.77510,53393
19.78443,51464
19.79377,50002
19.80312,46479
19.81245,43191
19.82178,43444
19.83113,42406
19.84047,41044
19.84980,38643
19.85915,40304
19.86848,45523
19.87782,59150
19.88717,67513
19.89650,62896
19.90583,49722
19.91518,44393
19.92452,44951
19.93387,40330
19.94320,39007
19.95253,39653
19.96188,37864
19.97122,42630
19.98055,39930
19.98990,40463
19.99923,37038
20.00857,36773
20.01792,38917
20.02725,42848
20.03658,42818
20.04593,44894
20.05527,45877
20.06460,43943
20.07395,43042
20.08328,43787
20.09262,43503
20.10197,41310
20.11130,37906
20.12065,36637
20.12998,34631
20.13932,36187
20.14867,41420
20.15800,49364
20.16733,51314
20.17668,48706
20.18602,42478
20.19535,39596
20.20470,38092
20.21403,39582
20.22337,40795
20.23272,40723
20.24205,39356
20.25138,38857
20.26073,38351
20.27007,38842
20.27942,36551
20.28875,39306
20.29808,41378
20.30743,41813
20.31677,38587
20.32610,34974
20.33545,33427
20.34478,34931
20.35412,37466
20.36347,38380
20.37280,39879
20.38213,39602
20.39148,36914
20.40082,36545
20.41015,34523
20.41950,35014
20.42883,35207
20.43817,34791
20.44752,39457
20.45685,36121
20.46620,41099
20.47553,47915
20.48487,49868
20.49422,45735
20.50355,39047
20.51288,37085
20.52223,36919
20.53157,38214
20.54090,36912
20.55025,42163
20.55958,47852
20.56892,87981
20.57827,176897
20.58760,244328
20.59693,196385
20.60628,105228
20.61562,58426
20.62495,47750
20.63430,45415
20.64363,46069
20.65298,50467
20.66232,49013
20.67165,46046
20.68100,43299
20.69033,44861
20.69967,43592
20.70902,42500
20.71835,45637
20.72768,43434
20.73703,41526
20.74637,42357
20.75570,41410
20.76505,37916
20.77438,38980
20.78372,40519
20.79307,44661
20.80240,49705
20.81173,48894
20.82108,46864
20.83042,41710
20.83977,39612
20.84910,39163
20.85843,39452
20.86778,37195
20.87712,35605
20.88645,36948
20.89580,38429
20.90513,40370
20.91447,42360
20.92382,42143
20.93315,37378
20.94248,37676
20.95183,37903
20.96117,35250
20.97050,32609
20.97985,33988
20.98918,34889
20.99853,34553
21.00787,34777
21.01720,37893
21.02655,36743
21.03588,34543
21.04522,36181
21.05457,37267
21.06390,39949
21.07323,36917
21.08258,38609
21.09192,36948
21.10125,38385
21.11060,38955
21.11993,42127
21.12927,42928
21.13862,43057
21.14795,40724
21.15728,40982
21.16663,43248
21.17597,57135
21.18532,73787
21.19465,86997
21.20398,71193
21.21333,57020
21.22267,45362
21.23200,40031
21.24135,38451
21.25068,38115
21.26002,38061
21.26937,41220
21.27870,50951
21.28803,57117
21.29738,62327
21.30672,55747
21.31605,45217
21.32540,40186
21.33473,38369
21.34407,38525
21.35342,40830
21.36275,40453
21.37210,39040
21.38143,39278
21.39077,40587
21.40012,39899
21.40945,41342
21.41878,42654
21.42813,43760
21.43747,40823
21.44680,39264
21.45615,39991
21.46548,37478
21.47482,37363
21.48417,41498
21.49350,45091
21.50283,47048
21.51218,48552
21.52152,47208
21.53085,42709
21.54020,40166
21.54953,41928
21.55888,47260
21.56822,65481
21.57755,87302
21.58690,92602
21.59623,66742
21.60557,51621
21.61492,44559
21.62425,42900
21.63358,42434
21.64293,43698
21.65227,40954
21.66160,39639
21.67095,42575
21.68028,48382
21.68962,55575
21.69897,55166
21.70830,53027
21.71763,51303
21.72698,53827
21.73632,49095
21.74567,47909
21.75500,43953
21.76433,40542
21.77368,38751
21.78302,38773
21.79235,39859
21.80170,38308
21.81103,46222
21.82037,50199
21.82972,51531
21.83905,47908
21.84838,43175
21.85773,41657
21.86707,40692
21.87640,40304
21.88575,45814
21.89508,51768
21.90443,49530
21.91377,47084
21.92310,44074
21.93245,41315
21.94178,39928
21.95112,41237
21.96047,42439
21.96980,46284
21.97913,54271
21.98848,59540
21.99782,64770
22.00715,64033
22.01650,52988
22.02583,48620
22.03517,47312
22.04452,52030
22.05385,52665
22.06318,53204
22.07253,49441
22.08187,46941
22.09122,46302
22.10055,44996
22.10988,43852
22.11923,43814
22.12857,40627
22.13790,42321
22.14725,42753
22.15658,49158
22.16592,58209
22.17527,66136
22.18460,64188
22.19393,52483
22.20328,45208
22.21262,44145
22.22195,46242
22.23130,52505
22.24063,50312
22.24997,48475
22.25932,48347
22.26865,49329
22.27800,55496
22.28733,65902
22.29667,70024
22.30602,62540
22.31535,55469
22.32468,49211
22.33403,44955
22.34337,46167
22.35270,49889
22.36205,57270
22.37138,60561
22.38072,59491
22.39007,58506
22.39940,54463
22.40873,49640
22.41808,46501
22.42742,46021
22.43675,52024
22.44610,52451
22.45543,52130
22.46478,52104
22.47412,48033
22.48345,45376
22.49280,45002
22.50213,41674
22.51147,43749
22.52082,43907
22.53015,43056
22.53948,45756
22.54883,44874
22.55817,43776
22.56750,46989
22.57685,52242
22.58618,55776
22.59552,54335
22.60487,55423
22.61420,52621
22.62355,54923
22.63288,55688
22.64222,51120
22.65157,51143
22.66090,47179
22.67023,43514
22.67958,46136
22.68892,52634
22.69825,59365
22.70760,55857
22.71693,52319
22.72627,51571
22.73562,54697
22.74495,58386
22.75428,59064
22.76363,56393
22.77297,56327
22.78230,50350
22.79165,50067
22.80098,54922
22.81033,58837
22.81967,57327
22.82900,53586
22.83835,51768
22.84768,51531
22.85702,47785
22.86637,48736
22.87570,46595
22.88503,47590
22.89438,48704
22.90372,47130
22.91305,48123
22.92240,52053
22.93173,54517
22.94107,52151
22.95042,49947
22.95975,47728
22.96908,47078
22.97843,43977
22.98777,41431
22.99712,42505
23.00645,40472
23.01578,40644
23.02513,38756
23.03447,41538
23.04380,41290
23.05315,43463
23.06248,45149
23.07182,42955
23.08117,44182
23.09050,43651
23.09983,39894
23.10918,40970
23.11852,39103
23.12785,38176
23.13720,41421
23.14653,40844
23.15587,40278
23.16522,41137
23.17455,41208
23.18390,42668
23.19323,41362
23.20257,40130
23.21192,38314
23.22125,39768
23.23058,39905
23.23993,40731
23.24927,43258
23.25860,46683
23.26795,47094
23.27728,46421
23.28662,44938
23.29597,41674
23.30530,40206
23.31463,42209
23.32398,44195
23.33332,52129
23.34265,61977
23.35200,60732
23.36133,53831
23.37068,45316
23.38002,43122
23.38935,40844
23.39870,40759
23.40803,42009
23.41737,38389
23.42672,38957
23.43605,40849
23.44538,40578
23.45473,43257
23.46407,41602
23.47340,43069
23.48275,43164
23.49208,40975
23.50142,40635
23.51077,39709
23.52010,40603
23.52945,39094
23.53878,42005
23.54812,40169
23.55747,38258
23.56680,37156
23.57613,38416
23.58548,42009
23.59482,42649
23.60415,40996
23.61350,40099
23.62283,41233
23.63217,37865
23.64152,37326
23.65085,36632
23.66018,37298
23.66953,37043
23.67887,41903
23.68820,45114
23.69755,44159
23.70688,45309
23.71623,44637
23.72557,48892
23.73490,55939
23.74425,53643
23.75358,50094
23.76292,43230
23.77227,41774
23.78160,40855
23.79093,39973
23.80028,40674
23.80962,39270
23.81895,40121
23.82830,39273
23.83763,38116
23.84697,37424
23.85632,37739
23.86565,38159
23.87498,39159
23.88433,39206
23.89367,39530
23.90302,39995
23.91235,41707
23.92168,40682
23.93103,38705
23.94037,38889
23.94970,38578
23.95905,39068
23.96838,37746
23.97772,36418
23.98707,35353
23.99640,37606
24.00573,37667
24.01508,39544
24.02442,39878
24.03375,40071
24.04310,38623
24.05243,37155
24.06177,36604
24.07112,36372
24.08045,38545
24.08980,37228
24.09913,38631
24.10847,39012
24.11782,37543
24.12715,38073
24.13648,37206
24.14583,38513
24.15517,39302
24.16450,38302
24.17385,38802
24.18318,39437
24.19252,37588
24.20187,39626
24.21120,38275
24.22053,38354
24.22988,36719
24.23922,39693
24.24855,39131
24.25790,40417
24.26723,39461
24.27658,39768
24.28592,38816
24.29525,39523
24.30460,39710
24.31393,42941
24.32327,42622
24.33262,43595
24.34195,42278
24.35128,40695
24.36063,39210
24.36997,37940
24.37930,40338
24.38865,41762
24.39798,42792
24.40732,40528
24.41667,42519
24.42600,40679
24.43535,39887
24.44468,39706
24.45402,38642
24.46337,38102
24.47270,41030
24.48203,38513
24.49138,40151
24.50072,41062
24.51005,42385
24.51940,40979
24.52873,42520
24.53807,42784
24.54742,41590
24.55675,43800
24.56608,42037
24.57543,43882
24.58477,41791
24.59410,40317
24.60345,39693
24.61278,42664
24.62213,42560
24.63147,44347
24.64080,41860
24.65015,41402
24.65948,41375
24.66882,44581
24.67817,44305
24.68750,43303
24.69683,44505
24.70618,42551
24.71552,43147
24.72485,42218
24.73420,40172
24.74353,41863
24.75287,40231
24.76222,41059
24.77155,39074
24.78088,42462
24.79023,39407
24.79957,38469
24.80892,41579
24.81825,41451
24.82758,42837
24.83693,39633
24.84627,40492
24.85560,40227
24.86495,42033
24.87428,40639
24.88362,42038
24.89297,45026
24.90230,43653
24.91163,42029
24.92098,42509
24.93032,41718
24.93965,42372
24.94900,41201
24.95833,44996
24.96767,41071
24.97702,43337
24.98635,42006
24.99570,42845
25.00503,42089
25.01437,42643
25.02372,42168
25.03305,41447
25.04238,40589
25.05173,41865
25.06107,40696
25.07040,41603
25.07975,40974
25.08908,40113
25.09842,42492
25.10777,43171
25.11710,43735
25.12643,43131
25.13578,41986
25.14512,44452
25.15445,45977
25.16380,46644
25.17313,45778
25.18248,44194
25.19182,41349
25.20115,42920
25.21050,42534
25.21983,42722
25.22917,42754
25.23852,42800
25.24785,43231
25.25718,42718
25.26653,43139
25.27587,42668
25.28520,43587
25.29455,44357
25.30388,42027
25.31322,48365
25.32257,68696
25.33190,107415
25.34125,140497
25.35058,130383
25.35992,94013
25.36927,71655
25.37860,62209
25.38793,56454
25.39728,57858
25.40662,54613
25.41595,51167
25.42530,51571
25.43463,50297
25.44397,52993
25.45332,49800
25.46265,50554
25.47198,52726
25.48133,55506
25.49067,57622
25.50000,58556
25.50935,55377
25.51868,57174
25.52803,53484
25.53737,53363
25.54670,54205
25.55605,53840
25.56538,53122
25.57472,53008
25.58407,51998
25.59340,50744
25.60273,52634
25.61208,51605
25.62142,48206
25.63075,48717
25.64010,50182
25.64943,52046
25.65877,53937
25.66812,53844
25.67745,52633
25.68678,50043
25.69613,47048
25.70547,46425
25.71482,48297
25.72415,47703
25.73348,48497
25.74283,47487
25.75217,49062
25.76150,48968
25.77085,47862
25.78018,47953
25.78952,50263
25.79887,48522
25.80820,50852
25.81753,53294
25.82688,53732
25.83622,51891
25.84555,49911
25.85490,51297
25.86423,51996
25.87357,48320
25.88292,50709
25.89225,48873
25.90160,47473
25.91093,48627
25.92027,48265
25.92962,48144
25.93895,49645
25.94828,50779
25.95763,53333
25.96697,52836
25.97630,49124
25.98565,51039
25.99498,51719
26.00432,47812
26.01367,49693
26.02300,51386
26.03233,49414
26.04168,51047
26.05102,53882
26.06037,54331
26.06970,55293
26.07903,52629
26.08838,52156
26.09772,51101
26.10705,51385
26.11640,51585
26.12573,52411
26.13507,53930
26.14442,53175
26.15375,55037
26.16308,55740
26.17243,57698
26.18177,55410
26.19110,53342
26.20045,50999
26.20978,51626
26.21912,49434
26.22847,51859
26.23780,47263
26.24715,50546
26.25648,49861
26.26582,49017
26.27517,49337
26.28450,50885
26.29383,51352
26.30318,52964
26.31252,51744
26.32185,53262
26.33120,54347
26.34053,54288
26.34987,51577
26.35922,51404
26.36855,53345
26.37788,51993
26.38723,50991
26.39657,49270
26.40590,51158
26.41525,50551
26.42458,50071
26.43393,51234
26.44327,50381
26.45260,51704
26.46195,53568
26.47128,54305
26.48062,53528
26.48997,54078
26.49930,55094
26.50863,52524
26.51798,54471
26.52732,54818
26.53665,55006
26.54600,58920
26.55533,54841
26.56467,54745
26.57402,53396
26.58335,54522
26.59268,52539
26.60203,53789
26.61137,54900
26.62072,53701
26.63005,56021
26.63938,51508
26.64873,54099
26.65807,54247
26.66740,55052
26.67675,55885
26.68608,56167
26.69542,53961
26.70477,51816
26.71410,53346
26.72343,52501
26.73278,50670
26.74212,54247
26.75145,53616
26.76080,53182
26.77013,55799
26.77947,54983
26.78882,57461
26.79815,56809
26.80750,55812
26.81683,54474
26.82617,56031
26.83552,54886
26.84485,56602
26.85418,55265
26.86353,54875
26.87287,56499
26.88220,56865
26.89155,54253
26.90088,56115
26.91022,55574
26.91957,54960
26.92890,54493
26.93823,54086
26.94758,54386
26.95692,55267
26.96625,55796
26.97560,53391
26.98493,54556
26.99428,54652
27.00362,57608
27.01295,58568
27.02230,57945
27.03163,55031
27.04097,55255
27.05032,58047
27.05965,57035
27.06898,58989
27.07833,58480
27.08767,59360
27.09700,57416
27.10635,58971
27.11568,57197
27.12502,58659
27.13437,57055
27.14370,60134
27.15305,61125
27.16238,59194
27.17172,59360
27.18107,56812
27.19040,57632
27.19973,54822
27.20908,53765
27.21842,54437
27.22775,54799
27.23710,55466
27.24643,58479
27.25577,63574
27.26512,63966
27.27445,64116
27.28378,62078
27.29313,56805
27.30247,57158
27.31180,57094
27.32115,55306
27.33048,54742
27.33983,57973
27.34917,55714
27.35850,55239
27.36785,56023
27.37718,58107
27.38652,56773
27.39587,55538
27.40520,56454
27.41453,56430
27.42388,57474
27.43322,56647
27.44255,56874
27.45190,58736
27.46123,59158
27.47057,56346
27.47992,56429
27.48925,60937
27.49858,61886
27.50793,66444
27.51727,64267
27.52662,66660
27.53595,66843
27.54528,65274
27.55463,64227
27.56397,63044
27.57330,64935
27.58265,59872
27.59198,60218
27.60132,62319
27.61067,58038
27.62000,60185
27.62933,57978
27.63868,59511
27.64802,62206
27.65735,61586
27.66670,67190
27.67603,77985
27.68537,89863
27.69472,83026
27.70405,76550
27.71340,69636
27.72273,66565
27.73207,63689
27.74142,62777
27.75075,63107
27.76008,61103
27.76943,62636
27.77877,63671
27.78810,62439
27.79745,63413
27.80678,63730
27.81612,62964
27.82547,62268
27.83480,60065
27.84413,61650
27.85348,61060
27.86282,61082
27.87217,61197
27.88150,62442
27.89083,63180
27.90018,62184
27.90952,63230
27.91885,65270
27.92820,71300
27.93753,73540
27.94687,68568
27.95622,65498
27.96555,65089
27.97488,64257
27.98423,62307
27.99357,63042
28.00290,64103
28.01225,63533
28.02158,62986
28.03092,63015
28.04027,61279
28.04960,64109
28.05895,64767
28.06828,67334
28.07762,64907
28.08697,63596
28.09630,66334
28.10563,69022
28.11498,70105
28.12432,72993
28.13365,79981
28.14300,78183
28.15233,73134
28.16167,69976
28.17102,68580
28.18035,69361
28.18968,66726
28.19903,64396
28.20837,66326
28.21770,64879
28.22705,67156
28.23638,67499
28.24573,63959
28.25507,66639
28.26440,65386
28.27375,65685
28.28308,65148
28.29242,65124
28.30177,66145
28.31110,66188
28.32043,62951
28.32978,64127
28.33912,62029
28.34845,63694
28.35780,63372
28.36713,63483
28.37647,64305
28.38582,64959
28.39515,66440
28.40448,65453
28.41383,66287
28.42317,68796
28.43252,67739
28.44185,66308
28.45118,65932
28.46053,65289
28.46987,67987
28.47920,67921
28.48855,68211
28.49788,67409
28.50722,69049
28.51657,66259
28.52590,67909
28.53523,68476
28.54458,66795
28.55392,67852
28.56325,68098
28.57260,66213
28.58193,69374
28.59127,70906
28.60062,76095
28.60995,74733
28.61930,75146
28.62863,74217
28.63797,73093
28.64732,70273
28.65665,75563
28.66598,86234
28.67533,101715
28.68467,127251
28.69400,134958
28.70335,119310
28.71268,100356
28.72202,88743
28.73137,82154
28.74070,77562
28.75003,77959
28.75938,75749
28.76872,74255
28.77807,74294
28.78740,73373
28.79673,75997
28.80608,72932
28.81542,73669
28.82475,70725
28.83410,71954
28.84343,71572
28.85277,74680
28.86212,71525
28.87145,71793
28.88078,73767
28.89013,72501
28.89947,75066
28.90880,73635
28.91815,73939
28.92748,73852
28.93682,72874
28.94617,75374
28.95550,75647
28.96485,76094
28.97418,81536
28.98352,80652
28.99287,79625
29.00220,79241
29.01153,77409
29.02088,76386
29.03022,74293
29.03955,76827
29.04890,76162
29.05823,76861
29.06757,77508
29.07692,76251
29.08625,76859
29.09558,76595
29.10493,76336
29.11427,77488
29.12360,80005
29.13295,75477
29.14228,74770
29.15163,74813
29.16097,74805
29.17030,73664
29.17965,77930
29.18898,81612
29.19832,92380
29.20767,111723
29.21700,124102
29.22633,111987
29.23568,97550
29.24502,89042
29.25435,84884
29.26370,82984
29.27303,82866
29.28237,82558
29.29172,80745
29.30105,79449
29.31038,79910
29.31973,79692
29.32907,80207
29.33842,80494
29.34775,80706
29.35708,79561
29.36643,84105
29.37577,79051
29.38510,80532
29.39445,81889
29.40378,82841
29.41312,78502
29.42247,79524
29.43180,83435
29.44113,80751
29.45048,81008
29.45982,83116
29.46915,86522
29.47850,84935
29.48783,87222
29.49718,83019
29.50652,82360
29.51585,84111
29.52520,82992
29.53453,81855
29.54387,79505
29.55322,80336
29.56255,80245
29.57188,82209
29.58123,78778
29.59057,78869
29.59990,78867
29.60925,80854
29.61858,77029
29.62792,79363
29.63727,80703
29.64660,78821
29.65593,77524
29.66528,78388
29.67462,79089
29.68397,79811
29.69330,76000
29.70263,78566
29.71198,78950
29.72132,77743
29.73065,80346
29.74000,84476
29.74933,81714
29.75867,81697
29.76802,83433
29.77735,82564
29.78668,80177
29.79603,80736
29.80537,78174
29.81470,78947
29.82405,77935
29.83338,79267
29.84272,80111
29.85207,78316
29.86140,77399
29.87075,78153
29.88008,79012
29.88942,77940
29.89877,81019
29.90810,80932
29.91743,83202
29.92678,88055
29.93612,89781
29.94545,88983
29.95480,88298
29.96413,95748
29.97347,114557
29.98282,143681
29.99215,167503
30.00148,165382
30.01083,150224
30.02017,127370
30.02950,118902
30.03885,114269
30.04818,105498
30.05753,109957
30.06687,107409
30.07620,104444
30.08555,105591
30.09488,104518
30.10422,101960
30.11357,103016
30.12290,100551
30.13223,103894
30.14158,104715
30.15092,108542
30.16025,105523
30.16960,105011
30.17893,107489
30.18827,107525
30.19762,102385
30.20695,103252
30.21628,103038
30.22563,100150
30.23497,99014
30.24432,97699
30.25365,97326
30.26298,98333
30.27233,99884
30.28167,99949
30.29100,100124
30.30035,102002
30.30968,98540
30.31902,95838
30.32837,94493
30.33770,94270
30.34703,96319
30.35638,95297
30.36572,96894
30.37505,99617
30.38440,110038
30.39373,127299
30.40307,155309
30.41242,179855
30.42175,184919
30.43110,165224
30.44043,138466
30.44977,121742
30.45912,111826
30.46845,104673
30.47778,103655
30.48713,99074
30.49647,97346
30.50580,99572
30.51515,97503
30.52448,94064
30.53382,95530
30.54317,92138
30.55250,93877
30.56183,91677
30.57118,94341
30.58052,97087
30.58987,94241
30.59920,97171
30.60853,101546
30.61788,100043
30.62722,102804
30.63655,107701
30.64590,110147
30.65523,113263
30.66457,115226
30.67392,115539
30.68325,113229
30.69258,109121
30.70193,108961
30.71127,105554
30.72060,103893
30.72995,101685
30.73928,100175
30.74862,100038
30.75797,96831
30.76730,96471
30.77665,97464
30.78598,98553
30.79532,98392
30.80467,100456
30.81400,98415
30.82333,98612
30.83268,102939
30.84202,96851
30.85135,99736
30.86070,100636
30.87003,102397
30.87937,101480
30.88872,102873
30.89805,100915
30.90738,101885
30.91673,105307
30.92607,104629
30.93540,105128
30.94475,106087
30.95408,106366
30.96343,103377
30.97277,100538
30.98210,103214
30.99145,102697
31.00078,101625
31.01012,101584
31.01947,99503
31.02880,98905
31.03813,95852
31.04748,95609
31.05682,99082
31.06615,97776
31.07550,95063
31.08483,97330
31.09417,95666
31.10352,98326
31.11285,97078
31.12218,96373
31.13153,96717
31.14087,95870
31.15022,95087
31.15955,95648
31.16888,96493
31.17823,97671
31.18757,98026
31.19690,98442
31.20625,95509
31.21558,97784
31.22492,95129
31.23427,96957
31.24360,96431
31.25293,96648
31.26228,96575
31.27162,97394
31.28095,96690
31.29030,96767
31.29963,96677
31.30898,97049
31.31832,95299
31.32765,95112
31.33700,94775
31.34633,98664
31.35567,96489
31.36502,94253
