D:\数据\20211129\ZS1E-TJ-000030.D Mon Nov 29 15:15:30 2021
Start of data points
0.09773,34037
0.10707,34046
0.11642,35199
0.12575,33899
0.13510,34854
0.14443,34536
0.15377,35145
0.16312,33872
0.17245,34520
0.18178,36312
0.19113,34285
0.20047,34168
0.20980,34723
0.21915,32575
0.22848,32138
0.23782,30885
0.24717,31508
0.25650,33154
0.26583,32308
0.27518,32406
0.28452,32915
0.29385,32234
0.30320,32380
0.31253,33252
0.32188,32816
0.33122,32022
0.34055,33145
0.34990,32314
0.35923,32046
0.36857,31751
0.37792,32833
0.38725,34571
0.39658,31738
0.40593,32021
0.41527,30813
0.42460,31983
0.43395,32522
0.44328,29435
0.45262,24530
0.46197,19544
0.47130,13776
0.48065,9737
0.48998,8251
0.49932,8837
0.50867,9442
0.51800,8068
0.52733,9097
0.53668,8519
0.54602,9524
0.55535,7724
0.56470,8844
0.57403,7635
0.58337,8184
0.59272,8219
0.60205,7168
0.61138,7280
0.62073,8071
0.63007,7179
0.63940,7570
0.64875,7376
0.65808,6976
0.66743,6670
0.67677,7023
0.68610,7623
0.69545,7221
0.70478,7400
0.71412,7773
0.72347,7760
0.73280,6711
0.74213,7141
0.75148,7074
0.76082,7615
0.77015,7181
0.77950,6571
0.78883,8035
0.79817,7262
0.80752,7434
0.81685,7017
0.82618,6811
0.83553,7385
0.84487,6227
0.85422,7882
0.86355,6018
0.87288,6891
0.88223,7237
0.89157,6768
0.90090,8167
0.91025,6468
0.91958,6559
0.92892,6930
0.93827,6666
0.94760,6533
0.95693,6103
0.96628,5953
0.97562,7108
0.98495,6786
0.99430,6168
1.00363,6491
1.01297,6861
1.02232,6516
1.03165,6967
1.04100,6433
1.05033,6254
1.05967,6365
1.06902,6566
1.07835,5876
1.08768,6231
1.09703,6913
1.10637,7111
1.11570,6732
1.12505,6989
1.13438,7045
1.14372,6155
1.15307,6409
1.16240,6904
1.17173,7085
1.18108,5234
1.19042,6318
1.19977,6205
1.20910,6439
1.21843,7417
1.22778,6752
1.23712,6689
1.24645,6520
1.25580,6165
1.26513,7020
1.27447,5778
1.28382,6305
1.29315,6493
1.30248,6215
1.31183,5927
1.32117,5830
1.33050,6225
1.33985,6416
1.34918,5932
1.35852,6606
1.36787,5917
1.37720,6335
1.38655,5728
1.39588,6295
1.40522,5550
1.41457,6026
1.42390,6636
1.43323,5605
1.44258,5937
1.45192,6966
1.46125,6692
1.47060,6236
1.47993,5862
1.48927,6418
1.49862,5279
1.50795,6487
1.51728,5839
1.52663,6675
1.53597,6873
1.54530,6084
1.55465,5820
1.56398,6301
1.57333,6355
1.58267,6180
1.59200,6887
1.60135,5990
1.61068,9168
1.62002,15680
1.62937,24743
1.63870,30009
1.64803,38944
1.65738,53002
1.66672,66409
1.67605,68739
1.68540,62460
1.69473,54416
1.70407,43554
1.71342,30853
1.72275,22707
1.73208,25891
1.74143,25893
1.75077,28966
1.76012,32236
1.76945,35793
1.77878,38847
1.78813,39239
1.79747,42025
1.80680,41853
1.81615,43027
1.82548,40498
1.83482,41086
1.84417,40689
1.85350,39795
1.86283,41344
1.87218,47107
1.88152,68638
1.89085,114296
1.90020,172565
1.90953,209145
1.91887,270996
1.92822,471132
1.93755,901686
1.94690,1428666
1.95623,1718025
1.96557,1630339
1.97492,1335329
1.98425,1015282
1.99358,771006
2.00293,646873
2.01227,589103
2.02160,575921
2.03095,525623
2.04028,429433
2.04962,307570
2.05897,224861
2.06830,172020
2.07763,134371
2.08698,111020
2.09632,94974
2.10567,87706
2.11500,82641
2.12433,83129
2.13368,94338
2.14302,129698
2.15235,139242
2.16170,124712
2.17103,115124
2.18037,117067
2.18972,152080
2.19905,182292
2.20838,314480
2.21773,263105
2.22707,249620
2.23640,312518
2.24575,524482
2.25508,2017188
2.26442,4119616
2.27377,3970675
2.28310,2771487
2.29245,1740652
2.30178,1246477
2.31112,3030100
2.32047,9024361
2.32980,1.131459E+07
2.33913,7292424
2.34848,3329568
2.35782,1419761
2.36715,670799
2.37650,401164
2.38583,328653
2.39517,275144
2.40452,224315
2.41385,193476
2.42318,177958
2.43253,182048
2.44187,181844
2.45120,159508
2.46055,137207
2.46988,135420
2.47923,143646
2.48857,130370
2.49790,112081
2.50725,93786
2.51658,87197
2.52592,82219
2.53527,79141
2.54460,80033
2.55393,93106
2.56328,109838
2.57262,260195
2.58195,343441
2.59130,293911
2.60063,229154
2.60997,184263
2.61932,178034
2.62865,188462
2.63798,175437
2.64733,163845
2.65667,147892
2.66602,132055
2.67535,109854
2.68468,89321
2.69403,77961
2.70337,72051
2.71270,77265
2.72205,102957
2.73138,147144
2.74072,174221
2.75007,205288
2.75940,221861
2.76873,216421
2.77808,232108
2.78742,282364
2.79675,282245
2.80610,233750
2.81543,178329
2.82478,154716
2.83412,139407
2.84345,121113
2.85280,128296
2.86213,160501
2.87147,196822
2.88082,209963
2.89015,175869
2.89948,135546
2.90883,111316
2.91817,99834
2.92750,93833
2.93685,86721
2.94618,76735
2.95552,68808
2.96487,67204
2.97420,65218
2.98353,66481
2.99288,67825
3.00222,84029
3.01157,100830
3.02090,99278
3.03023,88242
3.03958,109596
3.04892,141805
3.05825,152045
3.06760,152040
3.07693,151653
3.08627,134380
3.09562,105458
3.10495,82578
3.11428,73878
3.12363,66943
3.13297,66382
3.14230,69157
3.15165,72531
3.16098,79857
3.17032,89005
3.17967,88501
3.18900,84218
3.19835,77199
3.20768,79731
3.21702,80611
3.22637,74951
3.23570,68207
3.24503,64045
3.25438,64731
3.26372,61996
3.27305,62501
3.28240,60193
3.29173,62208
3.30107,65505
3.31042,67924
3.31975,67124
3.32908,64340
3.33843,62015
3.34777,62072
3.35710,61155
3.36645,60749
3.37578,56865
3.38513,54081
3.39447,53435
3.40380,58065
3.41315,66377
3.42248,79105
3.43182,79536
3.44117,77950
3.45050,87049
3.45983,85080
3.46918,80770
3.47852,76619
3.48785,77836
3.49720,81041
3.50653,74111
3.51587,67282
3.52522,60845
3.53455,59582
3.54388,64511
3.55323,114923
3.56257,297673
3.57192,559899
3.58125,614420
3.59058,415655
3.59993,229709
3.60927,135081
3.61860,96949
3.62795,95868
3.63728,91658
3.64662,84717
3.65597,77606
3.66530,73233
3.67463,78347
3.68398,76242
3.69332,72328
3.70265,65091
3.71200,60988
3.72133,61372
3.73067,67083
3.74002,70015
3.74935,68280
3.75870,63759
3.76803,58568
3.77737,55645
3.78672,54124
3.79605,55466
3.80538,62202
3.81473,93499
3.82407,136696
3.83340,139759
3.84275,103437
3.85208,76738
3.86142,70978
3.87077,66311
3.88010,65485
3.88943,67058
3.89878,71557
3.90812,74558
3.91747,77675
3.92680,78485
3.93613,85332
3.94548,109736
3.95482,164200
3.96415,173521
3.97350,138951
3.98283,101550
3.99217,76379
4.00152,65260
4.01085,61126
4.02018,60769
4.02953,85915
4.03887,157900
4.04820,307048
4.05755,376901
4.06688,290317
4.07622,183907
4.08557,146679
4.09490,147138
4.10425,142657
4.11358,131376
4.12292,103336
4.13227,82168
4.14160,71418
4.15093,68178
4.16028,64663
4.16962,64590
4.17895,59689
4.18830,55419
4.19763,54515
4.20697,59685
4.21632,63211
4.22565,61852
4.23498,59061
4.24433,58244
4.25367,55505
4.26300,55787
4.27235,62573
4.28168,79641
4.29103,81776
4.30037,76105
4.30970,68971
4.31905,66332
4.32838,63966
4.33772,64522
4.34707,68657
4.35640,64650
4.36573,62459
4.37508,62658
4.38442,83856
4.39375,97487
4.40310,89986
4.41243,73456
4.42177,62705
4.43112,54678
4.44045,52538
4.44978,52247
4.45913,52664
4.46847,57976
4.47782,70931
4.48715,75227
4.49648,73633
4.50583,64942
4.51517,63357
4.52450,61699
4.53385,61441
4.54318,62509
4.55252,66108
4.56187,63700
4.57120,63113
4.58053,61094
4.58988,59864
4.59922,58373
4.60855,57172
4.61790,55504
4.62723,53567
4.63658,51863
4.64592,59109
4.65525,69679
4.66460,76593
4.67393,76929
4.68327,77757
4.69262,80193
4.70195,97274
4.71128,103798
4.72063,85044
4.72997,71954
4.73930,81037
4.74865,86026
4.75798,78462
4.76732,71381
4.77667,63758
4.78600,61221
4.79533,60601
4.80468,61931
4.81402,60014
4.82337,59662
4.83270,59058
4.84203,61591
4.85138,58290
4.86072,63947
4.87005,81234
4.87940,111494
4.88873,126458
4.89807,107267
4.90742,85660
4.91675,72004
4.92608,65705
4.93543,62745
4.94477,60042
4.95410,57726
4.96345,55693
4.97278,54571
4.98212,52370
4.99147,54858
5.00080,58774
5.01015,63807
5.01948,64333
5.02882,65556
5.03817,66929
5.04750,63440
5.05683,63427
5.06618,59506
5.07552,59890
5.08485,65878
5.09420,68098
5.10353,63143
5.11287,59092
5.12222,56371
5.13155,54444
5.14088,58838
5.15023,61517
5.15957,65315
5.16890,63055
5.17825,58740
5.18758,59143
5.19693,69656
5.20627,74243
5.21560,69801
5.22495,62607
5.23428,58885
5.24362,58942
5.25297,60956
5.26230,59000
5.27163,76775
5.28098,140449
5.29032,257540
5.29965,320298
5.30900,262106
5.31833,163105
5.32767,114103
5.33702,91960
5.34635,77361
5.35568,64694
5.36503,59413
5.37437,56524
5.38372,63685
5.39305,76583
5.40238,86713
5.41173,82146
5.42107,74756
5.43040,65056
5.43975,57299
5.44908,54238
5.45842,50797
5.46777,50304
5.47710,54181
5.48643,50230
5.49578,53580
5.50512,53389
5.51445,58542
5.52380,66693
5.53313,76661
5.54247,83290
5.55182,80514
5.56115,71987
5.57050,61831
5.57983,57199
5.58917,55309
5.59852,54065
5.60785,56540
5.61718,52462
5.62653,51013
5.63587,49915
5.64520,49534
5.65455,49872
5.66388,54190
5.67322,57930
5.68257,56030
5.69190,62644
5.70123,66018
5.71058,63950
5.71992,63192
5.72927,59725
5.73860,61759
5.74793,75438
5.75728,93693
5.76662,94960
5.77595,85634
5.78530,84792
5.79463,79314
5.80397,69644
5.81332,60040
5.82265,58932
5.83198,60497
5.84133,62031
5.85067,56568
5.86000,47851
5.86935,42011
5.87868,38887
5.88802,40956
5.89737,43719
5.90670,55507
5.91605,106131
5.92538,207167
5.93472,269138
5.94407,222000
5.95340,151616
5.96273,115436
5.97208,88204
5.98142,58524
5.99075,42112
6.00010,35987
6.00943,32758
6.01877,31130
6.02812,33379
6.03745,31351
6.04678,32710
6.05613,32990
6.06547,35965
6.07480,40741
6.08415,36655
6.09348,29675
6.10283,27009
6.11217,27058
6.12150,30159
6.13085,33075
6.14018,39239
6.14952,39603
6.15887,48109
6.16820,28531
6.17753,25736
6.18688,25226
6.19622,25529
6.20555,23267
6.21490,24494
6.22423,25548
6.23357,32364
6.24292,37352
6.25225,33730
6.26160,30974
6.27093,29584
6.28027,34431
6.28962,43614
6.29895,38515
6.30828,30476
6.31763,25666
6.32697,24708
6.33630,21895
6.34565,22497
6.35498,22952
6.36432,23313
6.37367,25582
6.38300,31290
6.39233,46690
6.40168,106229
6.41102,317800
6.42035,618442
6.42970,637469
6.43903,371776
6.44838,136076
6.45772,55757
6.46705,37279
6.47640,34600
6.48573,29948
6.49507,28195
6.50442,25633
6.51375,25446
6.52308,27853
6.53243,27952
6.54177,25982
6.55110,23626
6.56045,22435
6.56978,22092
6.57912,24655
6.58847,23729
6.59780,25226
6.60713,28671
6.61648,30233
6.62582,31234
6.63517,34109
6.64450,33166
6.65383,31755
6.66318,33702
6.67252,33495
6.68185,33772
6.69120,28822
6.70053,31883
6.70987,42526
6.71922,45147
6.72855,40305
6.73788,35907
6.74723,31984
6.75657,28893
6.76590,27667
6.77525,26246
6.78458,29169
6.79392,35052
6.80327,38314
6.81260,42380
6.82195,35940
6.83128,29858
6.84062,27757
6.84997,30038
6.85930,32133
6.86863,31080
6.87798,29831
6.88732,28874
6.89665,29326
6.90600,32318
6.91533,33712
6.92467,33629
6.93402,30037
6.94335,28278
6.95268,28263
6.96203,28227
6.97137,29599
6.98070,31378
6.99005,30078
6.99938,28430
7.00873,25783
7.01807,25016
7.02740,24835
7.03675,22910
7.04608,20777
7.05542,20269
7.06477,21214
7.07410,21353
7.08343,22505
7.09278,23554
7.10212,27058
7.11145,29406
7.12080,30279
7.13013,28702
7.13947,26863
7.14882,24895
7.15815,23034
7.16748,22581
7.17683,20780
7.18617,21590
7.19552,21812
7.20485,22884
7.21418,24377
7.22353,28063
7.23287,48624
7.24220,99361
7.25155,137003
7.26088,115182
7.27022,67802
7.27957,40047
7.28890,33488
7.29823,32465
7.30758,32313
7.31692,27944
7.32625,24311
7.33560,22806
7.34493,21104
7.35428,21561
7.36362,20591
7.37295,22177
7.38230,23755
7.39163,44293
7.40097,115089
7.41032,235614
7.41965,308251
7.42898,256095
7.43833,141538
7.44767,71300
7.45700,38377
7.46635,25897
7.47568,25645
7.48502,26285
7.49437,29828
7.50370,31012
7.51303,29397
7.52238,25183
7.53172,23016
7.54107,21420
7.55040,20792
7.55973,23245
7.56908,25813
7.57842,30499
7.58775,31912
7.59710,32992
7.60643,36158
7.61577,38646
7.62512,37719
7.63445,35649
7.64378,31140
7.65313,28189
7.66247,25831
7.67180,24711
7.68115,24043
7.69048,27057
7.69982,27885
7.70917,28988
7.71850,32327
7.72785,31794
7.73718,28524
7.74652,27687
7.75587,30884
7.76520,34574
7.77453,34447
7.78388,33361
7.79322,33280
7.80255,32130
7.81190,29049
7.82123,27631
7.83057,24868
7.83992,25263
7.84925,29599
7.85858,49562
7.86793,93116
7.87727,133046
7.88660,127278
7.89595,85074
7.90528,59292
7.91463,66344
7.92397,102976
7.93330,122626
7.94265,89161
7.95198,52016
7.96132,41338
7.97067,59232
7.98000,81360
7.98933,101747
7.99868,101050
8.00802,80361
8.01735,56468
8.02670,45041
8.03603,44310
8.04537,48876
8.05472,56210
8.06405,49136
8.07340,35921
8.08273,31561
8.09207,40173
8.10142,60192
8.11075,68206
8.12008,57107
8.12943,40334
8.13877,31631
8.14810,27589
8.15745,27983
8.16678,26084
8.17612,26682
8.18547,26912
8.19480,26012
8.20413,24991
8.21348,25519
8.22282,25978
8.23215,23531
8.24150,27297
8.25083,30760
8.26018,33412
8.26952,33500
8.27885,30972
8.28820,29147
8.29753,25614
8.30687,26377
8.31622,25932
8.32555,27379
8.33488,25595
8.34423,25289
8.35357,25818
8.36290,27024
8.37225,24679
8.38158,25289
8.39092,26783
8.40027,34352
8.40960,39188
8.41893,40875
8.42828,41542
8.43762,39715
8.44697,36814
8.45630,34211
8.46563,32351
8.47498,32547
8.48432,32552
8.49365,32663
8.50300,32793
8.51233,29579
8.52167,27430
8.53102,26969
8.54035,28673
8.54968,29229
8.55903,32468
8.56837,43065
8.57770,47715
8.58705,43955
8.59638,43728
8.60572,44084
8.61507,42209
8.62440,39618
8.63375,35033
8.64308,32482
8.65242,32962
8.66177,30697
8.67110,29978
8.68043,31011
8.68978,30330
8.69912,31187
8.70845,32832
8.71780,31198
8.72713,28955
8.73647,28256
8.74582,34731
8.75515,48506
8.76448,57241
8.77383,51549
8.78317,38062
8.79250,36537
8.80185,63945
8.81118,128000
8.82053,185711
8.82987,153646
8.83920,84428
8.84855,45396
8.85788,31871
8.86722,34051
8.87657,36210
8.88590,37545
8.89523,37294
8.90458,35998
8.91392,35338
8.92325,34587
8.93260,34766
8.94193,37476
8.95127,32950
8.96062,29075
8.96995,31706
8.97930,34292
8.98863,35476
8.99797,34581
9.00732,35552
9.01665,37710
9.02598,36891
9.03533,33540
9.04467,33398
9.05400,31934
9.06335,36372
9.07268,42750
9.08202,47750
9.09137,57088
9.10070,62004
9.11003,55212
9.11938,42242
9.12872,40756
9.13805,52241
9.14740,61719
9.15673,54684
9.16608,41707
9.17542,35400
9.18475,32982
9.19410,33939
9.20343,35193
9.21277,37854
9.22212,52242
9.23145,89790
9.24078,118053
9.25013,112622
9.25947,77513
9.26880,51572
9.27815,40088
9.28748,37278
9.29682,35549
9.30617,35078
9.31550,33935
9.32483,46096
9.33418,72161
9.34352,88211
9.35287,74656
9.36220,81003
9.37153,179076
9.38088,300947
9.39022,328011
9.39955,240764
9.40890,147061
9.41823,85038
9.42757,63397
9.43692,58485
9.44625,49775
9.45558,39751
9.46493,34953
9.47427,32730
9.48360,32644
9.49295,36240
9.50228,45268
9.51162,46453
9.52097,39603
9.53030,37169
9.53965,42203
9.54898,49241
9.55832,68760
9.56767,105340
9.57700,125874
9.58633,107384
9.59568,83758
9.60502,76587
9.61435,75430
9.62370,60706
9.63303,44669
9.64237,41342
9.65172,47214
9.66105,53653
9.67038,55655
9.67973,49638
9.68907,40865
9.69842,35986
9.70775,34052
9.71708,43014
9.72643,130894
9.73577,543121
9.74510,1524272
9.75445,2292989
9.76378,1948586
9.77312,1008425
9.78247,399120
9.79180,200427
9.80113,138221
9.81048,109889
9.81982,94893
9.82915,99681
9.83850,115188
9.84783,131804
9.85717,142744
9.86652,117963
9.87585,97093
9.88520,102516
9.89453,129765
9.90387,147179
9.91322,161806
9.92255,236362
9.93188,292043
9.94123,235461
9.95057,136932
9.95990,74872
9.96925,56358
9.97858,79019
9.98792,153818
9.99727,250249
10.00660,260279
10.01593,178296
10.02528,99317
10.03462,60432
10.04395,52267
10.05330,51783
10.06263,55462
10.07198,65172
10.08132,78962
10.09065,79089
10.10000,70496
10.10933,94371
10.11867,313002
10.12802,1014043
10.13735,1828016
10.14668,1764650
10.15603,1578822
10.16537,3038919
10.17470,5085506
10.18405,4493488
10.19338,1849589
10.20272,412871
10.21207,91856
10.22140,57396
10.23073,57688
10.24008,73882
10.24942,107015
10.25877,112198
10.26810,82953
10.27743,58793
10.28678,49564
10.29612,50004
10.30545,50323
10.31480,48914
10.32413,45578
10.33347,43565
10.34282,39790
10.35215,38869
10.36148,40413
10.37083,39258
10.38017,38766
10.38950,34940
10.39885,33518
10.40818,33122
10.41752,34437
10.42687,35804
10.43620,38573
10.44555,38017
10.45488,40891
10.46422,44794
10.47357,48602
10.48290,47988
10.49223,41277
10.50158,34852
10.51092,32791
10.52025,33115
10.52960,31931
10.53893,35427
10.54827,36911
10.55762,44341
10.56695,47138
10.57628,44987
10.58563,37499
10.59497,35405
10.60430,34166
10.61365,33270
10.62298,32498
10.63233,34110
10.64167,38182
10.65100,38786
10.66035,35328
10.66968,36186
10.67902,39105
10.68837,45265
10.69770,47987
10.70703,48815
10.71638,59588
10.72572,79508
10.73505,81100
10.74440,59121
10.75373,52696
10.76307,76686
10.77242,108204
10.78175,114882
10.79110,171202
10.80043,465667
10.80977,946722
10.81912,1070319
10.82845,658121
10.83778,256565
10.84713,84030
10.85647,46460
10.86580,41887
10.87515,48555
10.88448,68272
10.89382,82701
10.90317,75028
10.91250,56689
10.92183,44054
10.93118,48346
10.94052,49022
10.94985,48705
10.95920,46484
10.96853,46993
10.97788,44818
10.98722,39210
10.99655,35529
11.00590,40998
11.01523,41941
11.02457,40852
11.03392,34222
11.04325,32526
11.05258,32936
11.06193,31461
11.07127,36279
11.08060,38418
11.08995,38668
11.09928,36423
11.10862,43407
11.11797,60308
11.12730,66342
11.13663,55649
11.14598,43784
11.15532,41429
11.16467,38804
11.17400,40546
11.18333,40139
11.19268,37455
11.20202,35179
11.21135,32855
11.22070,32974
11.23003,32467
11.23937,35806
11.24872,32667
11.25805,35240
11.26738,39242
11.27673,42562
11.28607,38238
11.29540,33902
11.30475,30534
11.31408,31393
11.32342,30741
11.33277,32819
11.34210,39674
11.35145,49695
11.36078,60303
11.37012,62440
11.37947,57861
11.38880,49745
11.39813,45030
11.40748,56025
11.41682,72986
11.42615,86512
11.43550,72012
11.44483,52048
11.45417,38375
11.46352,37986
11.47285,48901
11.48218,58413
11.49153,53583
11.50087,43203
11.51022,37913
11.51955,32974
11.52888,32334
11.53823,31225
11.54757,33735
11.55690,41375
11.56625,67942
11.57558,129238
11.58492,201050
11.59427,195004
11.60360,144916
11.61293,94572
11.62228,75384
11.63162,66746
11.64095,65967
11.65030,59474
11.65963,58923
11.66897,60162
11.67832,55743
11.68765,50334
11.69700,42847
11.70633,42011
11.71567,40233
11.72502,35871
11.73435,36046
11.74368,35608
11.75303,34370
11.76237,34743
11.77170,36662
11.78105,40505
11.79038,45704
11.79972,47544
11.80907,44716
11.81840,39969
11.82773,42796
11.83708,44237
11.84642,44970
11.85575,43660
11.86510,41921
11.87443,43398
11.88378,43601
11.89312,44006
11.90245,41904
11.91180,37715
11.92113,35800
11.93047,36886
11.93982,42685
11.94915,52537
11.95848,62199
11.96783,54731
11.97717,42147
11.98650,37760
11.99585,34751
12.00518,43260
12.01452,66731
12.02387,88936
12.03320,89411
12.04253,67141
12.05188,51405
12.06122,45659
12.07057,39883
12.07990,35890
12.08923,34969
12.09858,35292
12.10792,36298
12.11725,34964
12.12660,32024
12.13593,34427
12.14527,34879
12.15462,38528
12.16395,43853
12.17328,65015
12.18263,106132
12.19197,123242
12.20130,89330
12.21065,53722
12.21998,42903
12.22932,44960
12.23867,48682
12.24800,48513
12.25735,44270
12.26668,53591
12.27602,114953
12.28537,230516
12.29470,263398
12.30403,171162
12.31338,84587
12.32272,49783
12.33205,46016
12.34140,44537
12.35073,42738
12.36007,42245
12.36942,40070
12.37875,40124
12.38808,40413
12.39743,47417
12.40677,54059
12.41610,50961
12.42545,46291
12.43478,41711
12.44413,38734
12.45347,38607
12.46280,39915
12.47215,40417
12.48148,43468
12.49082,48419
12.50017,51536
12.50950,54162
12.51883,51704
12.52818,47039
12.53752,48974
12.54685,48191
12.55620,47441
12.56553,52188
12.57487,59669
12.58422,64177
12.59355,63882
12.60290,58290
12.61223,47145
12.62157,43994
12.63092,45488
12.64025,54984
12.64958,61292
12.65893,63246
12.66827,62952
12.67760,56635
12.68695,45635
12.69628,38882
12.70562,36604
12.71497,35583
12.72430,38200
12.73363,38077
12.74298,40617
12.75232,43990
12.76165,44278
12.77100,44806
12.78033,40672
12.78968,36194
12.79902,37089
12.80835,39370
12.81770,42892
12.82703,40667
12.83637,38215
12.84572,37761
12.85505,35122
12.86438,34266
12.87373,35929
12.88307,36064
12.89240,34643
12.90175,39879
12.91108,43188
12.92042,38010
12.92977,40072
12.93910,38354
12.94843,38878
12.95778,41302
12.96712,41038
12.97647,39606
12.98580,37157
12.99513,34862
13.00448,38471
13.01382,39491
13.02315,43685
13.03250,51492
13.04183,62304
13.05117,63101
13.06052,50476
13.06985,46346
13.07918,48684
13.08853,51768
13.09787,50727
13.10720,46541
13.11655,46539
13.12588,43840
13.13522,50114
13.14457,54642
13.15390,55237
13.16325,50988
13.17258,50646
13.18192,54438
13.19127,87494
13.20060,281950
13.20993,901564
13.21928,1769111
13.22862,1778128
13.23795,999864
13.24730,354859
13.25663,170894
13.26597,133620
13.27532,99184
13.28465,79897
13.29398,81730
13.30333,138824
13.31267,286501
13.32202,395642
13.33135,316110
13.34068,168556
13.35003,92547
13.35937,71057
13.36870,61216
13.37805,56452
13.38738,52759
13.39672,56843
13.40607,60680
13.41540,62592
13.42473,53056
13.43408,51233
13.44342,58599
13.45275,65362
13.46210,61307
13.47143,59660
13.48077,74305
13.49012,121166
13.49945,189256
13.50880,239715
13.51813,256949
13.52747,274929
13.53682,291679
13.54615,239782
13.55548,134079
13.56483,73584
13.57417,52272
13.58350,43598
13.59285,38401
13.60218,38787
13.61152,41261
13.62087,70812
13.63020,318072
13.63953,1261942
13.64888,2802585
13.65822,3259024
13.66755,2100988
13.67690,806267
13.68623,258951
13.69558,115424
13.70492,80796
13.71425,69092
13.72360,61975
13.73293,56573
13.74227,53789
13.75162,50075
13.76095,51184
13.77028,50212
13.77963,48782
13.78897,48071
13.79830,50463
13.80765,62952
13.81698,70415
13.82632,66121
13.83567,52649
13.84500,44948
13.85433,43350
13.86368,46277
13.87302,57139
13.88237,62931
13.89170,65728
13.90103,93695
13.91038,172124
13.91972,356438
13.92905,505624
13.93840,396375
13.94773,187487
13.95707,90354
13.96642,71382
13.97575,63144
13.98508,55711
13.99443,51206
14.00377,50567
14.01310,52516
14.02245,49744
14.03178,45786
14.04112,58454
14.05047,213865
14.05980,1274149
14.06915,4623733
14.07848,9389731
14.08782,1.064183E+07
14.09717,5599303
14.10650,1361866
14.11583,212610
14.12518,92436
14.13452,85179
14.14385,75817
14.15320,68397
14.16253,64231
14.17187,73757
14.18122,80435
14.19055,107727
14.19988,167670
14.20923,196854
14.21857,142252
14.22792,76918
14.23725,46813
14.24658,42122
14.25593,39961
14.26527,39896
14.27460,44731
14.28395,43714
14.29328,41626
14.30262,39573
14.31197,39241
14.32130,45230
14.33063,58332
14.33998,70479
14.34932,72529
14.35865,63676
14.36800,52127
14.37733,42966
14.38667,39317
14.39602,41246
14.40535,40863
14.41470,39937
14.42403,42111
14.43337,48682
14.44272,52320
14.45205,53959
14.46138,59804
14.47073,71925
14.48007,74006
14.48940,63203
14.49875,49019
14.50808,44163
14.51742,38307
14.52677,37609
14.53610,34931
14.54543,37555
14.55478,39681
14.56412,44409
14.57345,45998
14.58280,43525
14.59213,39205
14.60148,39323
14.61082,36463
14.62015,36221
14.62950,38872
14.63883,42694
14.64817,58201
14.65752,77772
14.66685,86104
14.67618,75602
14.68553,59315
14.69487,45666
14.70420,43635
14.71355,38557
14.72288,39191
14.73222,38251
14.74157,41857
14.75090,38900
14.76023,39961
14.76958,40836
14.77892,47913
14.78827,48467
14.79760,47484
14.80693,41896
14.81628,39649
14.82562,40792
14.83495,40438
14.84430,41218
14.85363,35628
14.86297,41594
14.87232,52723
14.88165,64346
14.89098,61766
14.90033,51104
14.90967,42914
14.91900,40255
14.92835,41460
14.93768,40789
14.94703,41649
14.95637,44674
14.96570,59267
14.97505,92585
14.98438,109213
14.99372,89769
15.00307,66053
15.01240,53007
15.02173,52635
15.03108,51185
15.04042,44468
15.04975,43717
15.05910,47725
15.06843,52851
15.07777,50745
15.08712,49182
15.09645,48925
15.10578,51480
15.11513,53984
15.12447,54914
15.13382,57439
15.14315,66162
15.15248,75377
15.16183,71990
15.17117,63980
15.18050,54110
15.18985,50560
15.19918,53589
15.20852,70288
15.21787,99952
15.22720,121301
15.23653,114498
15.24588,89825
15.25522,66819
15.26455,52532
15.27390,45034
15.28323,44137
15.29257,41491
15.30192,42255
15.31125,42891
15.32060,41505
15.32993,42500
15.33927,46716
15.34862,50401
15.35795,51017
15.36728,50759
15.37663,54829
15.38597,54747
15.39530,48809
15.40465,41549
15.41398,38610
15.42332,40983
15.43267,45688
15.44200,48606
15.45133,46311
15.46068,43036
15.47002,37852
15.47935,40433
15.48870,43597
15.49803,46861
15.50738,52474
15.51672,70061
15.52605,89102
15.53540,88009
15.54473,74545
15.55407,57049
15.56342,41987
15.57275,37323
15.58208,35437
15.59143,36353
15.60077,37301
15.61010,39624
15.61945,41195
15.62878,46132
15.63812,50720
15.64747,55783
15.65680,63978
15.66613,139376
15.67548,668450
15.68482,2592355
15.69417,5793272
15.70350,7308003
15.71283,5369364
15.72218,2045008
15.73152,516115
15.74085,161325
15.75020,106297
15.75953,100281
15.76887,94896
15.77822,85802
15.78755,72145
15.79688,66656
15.80623,92137
15.81557,219824
15.82490,587792
15.83425,1036393
15.84358,1189124
15.85292,909523
15.86227,467565
15.87160,215548
15.88095,122247
15.89028,106097
15.89962,108495
15.90897,108076
15.91830,99515
15.92763,82955
15.93698,68750
15.94632,61833
15.95565,55628
15.96500,51646
15.97433,55876
15.98367,73806
15.99302,99245
16.00235,116311
16.01168,104063
16.02103,78054
16.03037,57339
16.03972,49288
16.04905,50999
16.05838,49717
16.06773,50238
16.07707,51501
16.08640,48739
16.09575,49470
16.10508,49853
16.11442,53494
16.12377,60584
16.13310,63346
16.14243,62147
16.15178,52091
16.16112,49641
16.17045,48213
16.17980,46625
16.18913,46335
16.19847,51160
16.20782,60754
16.21715,64432
16.22650,66752
16.23583,66618
16.24517,67058
16.25452,63883
16.26385,63049
16.27318,68454
16.28253,112604
16.29187,288759
16.30120,598498
16.31055,753883
16.31988,537400
16.32922,242692
16.33857,99042
16.34790,58677
16.35723,45104
16.36658,40023
16.37592,38954
16.38525,37825
16.39460,39468
16.40393,38997
16.41328,42381
16.42262,42144
16.43195,43041
16.44130,43645
16.45063,48661
16.45997,57682
16.46932,66968
16.47865,67525
16.48798,68876
16.49733,75218
16.50667,69353
16.51600,61921
16.52535,61012
16.53468,59854
16.54402,55603
16.55337,50981
16.56270,45521
16.57203,44376
16.58138,47881
16.59072,51997
16.60007,49639
16.60940,47941
16.61873,47227
16.62808,55344
16.63742,62683
16.64675,68217
16.65610,64381
16.66543,55250
16.67477,50574
16.68412,48662
16.69345,57523
16.70278,71495
16.71213,76001
16.72147,65190
16.73080,51226
16.74015,52318
16.74948,89656
16.75883,139849
16.76817,145853
16.77750,92503
16.78685,56159
16.79618,43729
16.80552,46350
16.81487,50256
16.82420,56127
16.83353,61139
16.84288,66087
16.85222,64136
16.86155,56539
16.87090,48638
16.88023,44170
16.88957,46246
16.89892,49850
16.90825,54521
16.91758,68767
16.92693,81910
16.93627,71720
16.94562,60615
16.95495,63419
16.96428,73130
16.97363,74322
16.98297,69875
16.99230,58733
17.00165,51881
17.01098,45487
17.02032,48930
17.02967,71773
17.03900,118461
17.04833,137544
17.05768,104972
17.06702,67054
17.07635,55977
17.08570,54742
17.09503,52273
17.10437,51164
17.11372,48351
17.12305,43848
17.13240,45441
17.14173,52158
17.15107,51147
17.16042,48466
17.16975,42461
17.17908,43153
17.18843,42623
17.19777,42629
17.20710,41106
17.21645,38714
17.22578,38529
17.23512,38607
17.24447,43252
17.25380,41522
17.26313,44101
17.27248,48729
17.28182,55523
17.29115,62803
17.30050,63038
17.30983,58170
17.31918,55324
17.32852,58796
17.33785,60398
17.34720,53387
17.35653,48927
17.36587,52705
17.37522,67110
17.38455,139127
17.39388,247922
17.40323,260102
17.41257,164706
17.42190,88236
17.43125,61284
17.44058,53350
17.44992,54156
17.45927,55905
17.46860,59674
17.47793,66388
17.48728,83212
17.49662,203063
17.50597,876974
17.51530,2539187
17.52463,3719961
17.53398,2955855
17.54332,1129018
17.55265,256346
17.56200,76650
17.57133,61114
17.58067,63426
17.59002,70216
17.59935,69638
17.60868,62836
17.61803,51661
17.62737,48053
17.63670,53654
17.64605,50956
17.65538,53470
17.66473,60528
17.67407,75161
17.68340,84823
17.69275,93457
17.70208,97243
17.71142,87466
17.72077,76541
17.73010,65332
17.73943,59137
17.74878,57423
17.75812,64498
17.76745,67359
17.77680,75898
17.78613,71589
17.79547,62829
17.80482,56220
17.81415,51484
17.82348,47867
17.83283,48723
17.84217,47226
17.85152,55213
17.86085,68935
17.87018,78450
17.87953,80156
17.88887,72385
17.89820,64977
17.90755,58554
17.91688,53368
17.92622,47410
17.93557,48812
17.94490,52492
17.95423,49813
17.96358,47380
17.97292,45982
17.98225,47437
17.99160,46316
18.00093,46351
18.01027,48580
18.01962,49224
18.02895,52422
18.03830,57225
18.04763,68515
18.05697,94136
18.06632,121334
18.07565,113909
18.08498,80156
18.09433,60381
18.10367,70126
18.11300,99168
18.12235,125424
18.13168,115442
18.14102,90942
18.15037,78635
18.15970,69588
18.16903,62461
18.17838,61385
18.18772,62991
18.19705,61272
18.20640,58355
18.21573,56279
18.22508,55942
18.23442,56282
18.24375,55441
18.25310,51639
18.26243,46252
18.27177,50605
18.28112,56773
18.29045,64474
18.29978,71240
18.30913,76272
18.31847,76103
18.32780,73424
18.33715,69518
18.34648,75495
18.35582,86269
18.36517,95935
18.37450,92472
18.38383,88057
18.39318,90854
18.40252,108711
18.41187,143475
18.42120,146477
18.43053,110431
18.43988,83478
18.44922,82264
18.45855,85240
18.46790,78420
18.47723,68341
18.48657,63811
18.49592,73511
18.50525,94572
18.51458,122383
18.52393,129271
18.53327,114228
18.54260,92186
18.55195,82123
18.56128,81850
18.57063,79466
18.57997,69297
18.58930,63502
18.59865,63144
18.60798,65775
18.61732,77691
18.62667,83152
18.63600,78598
18.64533,74985
18.65468,72686
18.66402,73912
18.67335,83987
18.68270,99084
18.69203,110585
18.70137,123590
18.71072,134301
18.72005,125453
18.72938,107596
18.73873,95036
18.74807,85713
18.75742,82541
18.76675,77676
18.77608,65710
18.78543,58831
18.79477,56330
18.80410,59121
18.81345,63992
18.82278,69201
18.83212,69808
18.84147,66417
18.85080,60695
18.86013,57040
18.86948,55822
18.87882,55138
18.88815,57868
18.89750,54455
18.90683,61819
18.91617,76266
18.92552,92407
18.93485,91037
18.94420,84449
18.95353,84056
18.96287,94812
18.97222,101931
18.98155,103848
18.99088,87457
19.00023,76585
19.00957,71389
19.01890,65520
19.02825,63225
19.03758,67067
19.04692,85725
19.05627,137971
19.06560,192142
19.07493,218690
19.08428,258531
19.09362,299631
19.10295,261106
19.11230,168422
19.12163,100324
19.13098,68449
19.14032,53023
19.14965,51663
19.15900,49617
19.16833,49300
19.17767,46720
19.18702,53527
19.19635,60304
19.20568,74023
19.21503,79003
19.22437,77871
19.23370,75095
19.24305,71065
19.25238,66613
19.26172,59857
19.27107,56952
19.28040,63894
19.28973,72510
19.29908,80566
19.30842,102196
19.31777,141865
19.32710,158401
19.33643,128440
19.34578,91255
19.35512,70215
19.36445,57908
19.37380,54575
19.38313,50952
19.39247,51093
19.40182,54364
19.41115,60272
19.42048,62498
19.42983,55297
19.43917,49836
19.44850,49681
19.45785,48705
19.46718,49032
19.47653,57207
19.48587,64031
19.49520,73630
19.50455,74613
19.51388,67990
19.52322,58379
19.53257,53877
19.54190,55706
19.55123,55388
19.56058,50509
19.56992,54710
19.57925,60852
19.58860,66997
19.59793,73531
19.60727,70571
19.61662,61904
19.62595,60432
19.63528,71871
19.64463,83217
19.65397,83223
19.66332,69984
19.67265,57294
19.68198,58494
19.69133,61051
19.70067,62039
19.71000,63607
19.71935,69570
19.72868,94740
19.73802,133812
19.74737,148256
19.75670,118279
19.76603,84258
19.77538,74096
19.78472,74644
19.79405,70499
19.80340,64429
19.81273,58604
19.82207,53546
19.83142,54014
19.84075,51642
19.85010,49746
19.85943,49921
19.86877,55997
19.87812,78643
19.88745,104608
19.89678,102623
19.90613,84665
19.91547,74101
19.92480,67204
19.93415,60749
19.94348,57045
19.95282,52354
19.96217,57784
19.97150,57843
19.98083,56721
19.99018,55383
19.99952,50075
20.00885,51573
20.01820,56018
20.02753,60823
20.03688,63488
20.04622,63433
20.05555,64241
20.06490,62024
20.07423,57696
20.08357,60487
20.09292,62620
20.10225,54690
20.11158,51800
20.12093,46873
20.13027,46579
20.13960,47945
20.14895,54300
20.15828,67827
20.16762,74043
20.17697,67970
20.18630,59883
20.19563,56641
20.20498,52307
20.21432,54885
20.22367,55158
20.23300,55637
20.24233,55231
20.25168,50151
20.26102,49797
20.27035,49815
20.27970,49973
20.28903,51375
20.29837,55766
20.30772,52613
20.31705,48705
20.32638,46173
20.33573,42672
20.34507,44893
20.35440,47226
20.36375,51201
20.37308,53923
20.38243,51732
20.39177,50895
20.40110,48548
20.41045,46834
20.41978,45726
20.42912,46735
20.43847,46922
20.44780,50119
20.45713,50105
20.46648,51933
20.47582,64476
20.48515,70926
20.49450,66030
20.50383,55117
20.51317,48274
20.52252,49407
20.53185,48381
20.54118,50281
20.55053,49650
20.55987,64161
20.56922,104505
20.57855,243313
20.58788,389725
20.59723,348124
20.60657,194729
20.61590,92172
20.62525,68614
20.63458,71256
20.64392,96814
20.65327,125559
20.66260,121311
20.67193,95505
20.68128,74849
20.69062,67672
20.69995,59923
20.70930,60401
20.71863,61287
20.72797,63618
20.73732,64416
20.74665,60704
20.75600,58925
20.76533,55819
20.77467,53383
20.78402,52631
20.79335,58181
20.80268,63960
20.81203,64468
20.82137,59725
20.83070,53049
20.84005,49452
20.84938,48098
20.85872,46452
20.86807,48145
20.87740,47721
20.88673,46144
20.89608,50447
20.90542,52854
20.91475,56261
20.92410,53987
20.93343,49620
20.94278,46848
20.95212,51283
20.96145,48169
20.97080,45778
20.98013,46060
20.98947,46285
20.99882,45689
21.00815,46685
21.01748,49934
21.02683,46462
21.03617,50000
21.04550,46706
21.05485,47214
21.06418,52636
21.07352,50086
21.08287,52881
21.09220,52161
21.10153,51230
21.11088,52457
21.12022,56068
21.12957,57450
21.13890,58387
21.14823,55652
21.15758,50379
21.16692,54096
21.17625,61379
21.18560,70728
21.19493,83937
21.20427,78264
21.21362,60360
21.22295,55027
21.23228,53084
21.24163,51717
21.25097,50979
21.26030,47970
21.26965,51270
21.27898,55488
21.28833,63383
21.29767,68141
21.30700,65856
21.31635,58126
21.32568,54248
21.33502,50837
21.34437,52305
21.35370,53373
21.36303,54897
21.37238,53226
21.38172,52467
21.39105,53349
21.40040,54258
21.40973,56877
21.41907,60077
21.42842,60558
21.43775,60334
21.44708,57767
21.45643,53363
21.46577,51398
21.47512,50129
21.48445,51544
21.49378,57086
21.50313,58697
21.51247,58226
21.52180,58234
21.53115,54442
21.54048,54022
21.54982,55644
21.55917,64057
21.56850,82885
21.57783,117933
21.58718,131885
21.59652,114879
21.60585,78737
21.61520,61969
21.62453,60601
21.63387,58856
21.64322,60274
21.65255,59363
21.66190,59421
21.67123,61361
21.68057,71728
21.68992,86585
21.69925,93823
21.70858,88655
21.71793,79767
21.72727,78130
21.73660,76534
21.74595,70752
21.75528,64570
21.76462,56786
21.77397,53660
21.78330,51432
21.79263,54977
21.80198,57047
21.81132,63994
21.82065,72903
21.83000,80100
21.83933,74630
21.84868,67090
21.85802,61569
21.86735,56804
21.87670,58449
21.88603,61359
21.89537,68549
21.90472,68228
21.91405,68605
21.92338,61699
21.93273,57234
21.94207,54431
21.95140,54720
21.96075,58005
21.97008,65198
21.97942,73893
21.98877,82001
21.99810,86427
22.00745,85545
22.01678,75238
22.02612,63276
22.03547,64640
22.04480,71346
22.05413,80110
22.06348,84355
22.07282,76190
22.08215,69376
22.09150,68143
22.10083,63077
22.11017,60914
22.11952,59020
22.12885,59519
22.13818,54892
22.14753,59661
22.15687,68676
22.16620,91323
22.17555,112788
22.18488,123079
22.19423,106400
22.20357,80612
22.21290,67987
22.22225,69384
22.23158,74245
22.24092,78953
22.25027,75656
22.25960,70335
22.26893,74231
22.27828,88129
22.28762,110814
22.29695,124731
22.30630,120166
22.31563,99125
22.32497,79115
22.33432,66510
22.34365,66292
22.35298,75619
22.36233,91066
22.37167,98462
22.38102,102523
22.39035,101489
22.39968,94183
22.40903,81062
22.41837,69366
22.42770,72433
22.43705,79076
22.44638,85743
22.45572,82969
22.46507,73067
22.47440,72629
22.48373,68222
22.49308,64934
22.50242,60047
22.51175,60358
22.52110,60432
22.53043,61643
22.53977,59132
22.54912,59935
22.55845,59747
22.56780,67938
22.57713,79016
22.58647,87755
22.59582,85348
22.60515,87406
22.61448,86225
22.62383,88338
22.63317,83815
22.64250,79463
22.65185,73375
22.66118,63769
22.67052,60364
22.67987,61634
22.68920,74225
22.69853,90442
22.70788,90402
22.71722,80180
22.72655,75462
22.73590,85979
22.74523,96950
22.75458,101678
22.76392,98329
22.77325,91834
22.78260,82236
22.79193,78178
22.80127,85547
22.81062,101037
22.81995,104899
22.82928,93982
22.83863,84311
22.84797,79376
22.85730,73232
22.86665,70108
22.87598,71702
22.88532,73509
22.89467,73146
22.90400,69637
22.91333,75462
22.92268,79990
22.93202,89632
22.94137,87793
22.95070,81825
22.96003,73569
22.96938,71871
22.97872,69162
22.98805,64019
22.99740,62848
23.00673,59835
23.01607,58809
23.02542,60231
23.03475,58504
23.04408,62842
23.05343,64091
23.06277,63747
23.07210,63318
23.08145,61914
23.09078,61476
23.10013,55830
23.10947,56778
23.11880,52539
23.12815,55361
23.13748,52885
23.14682,56844
23.15617,56519
23.16550,57140
23.17483,59553
23.18418,58585
23.19352,57768
23.20285,55493
23.21220,54042
23.22153,52321
23.23087,55704
23.24022,57291
23.24955,60321
23.25888,65606
23.26823,68873
23.27757,70797
23.28692,65767
23.29625,59342
23.30558,58744
23.31493,55927
23.32427,57159
23.33360,68299
23.34295,79914
23.35228,84234
23.36162,73914
23.37097,63515
23.38030,55908
23.38963,58833
23.39898,57255
23.40832,57484
23.41765,55994
23.42700,57565
23.43633,58169
23.44567,57667
23.45502,57615
23.46435,59613
23.47370,56876
23.48303,55570
23.49237,53348
23.50172,55439
23.51105,52848
23.52038,56596
23.52973,59218
23.53907,56922
23.54840,56274
23.55775,54708
23.56708,54558
23.57642,54518
23.58577,54957
23.59510,60906
23.60443,58191
23.61378,54421
23.62312,53394
23.63245,51874
23.64180,51397
23.65113,50471
23.66048,50249
23.66982,51813
23.67915,53797
23.68850,52991
23.69783,58337
23.70717,61516
23.71652,64433
23.72585,64940
23.73518,68358
23.74453,74265
23.75387,67989
23.76320,60810
23.77255,53792
23.78188,53859
23.79122,53937
23.80057,50096
23.80990,52211
23.81925,53279
23.82858,51370
23.83792,49403
23.84727,50144
23.85660,51894
23.86593,50287
23.87528,51258
23.88462,52367
23.89395,53662
23.90330,56235
23.91263,55075
23.92197,55888
23.93132,53192
23.94065,52397
23.94998,51695
23.95933,54008
23.96867,50955
23.97800,48121
23.98735,50476
23.99668,51730
24.00603,48533
24.01537,54372
24.02470,52289
24.03405,53626
24.04338,49564
24.05272,48307
24.06207,48008
24.07140,49368
24.08073,49704
24.09008,52044
24.09942,50704
24.10875,50018
24.11810,52916
24.12743,50139
24.13677,49737
24.14612,50006
24.15545,49987
24.16478,49930
24.17413,48973
24.18347,51708
24.19282,49692
24.20215,52299
24.21148,48629
24.22083,47060
24.23017,51665
24.23950,52945
24.24885,54963
24.25818,52435
24.26752,53103
24.27687,53192
24.28620,54017
24.29553,50636
24.30488,51123
24.31422,51629
24.32355,53680
24.33290,58343
24.34223,57601
24.35157,56805
24.36092,51666
24.37025,50528
24.37960,52001
24.38893,56042
24.39827,58025
24.40762,56295
24.41695,57450
24.42628,56351
24.43563,53821
24.44497,55368
24.45430,51427
24.46365,52287
24.47298,51811
24.48232,51963
24.49167,53498
24.50100,53975
24.51033,56236
24.51968,57844
24.52902,57134
24.53835,57897
24.54770,55477
24.55703,58390
24.56638,56509
24.57572,55061
24.58505,55333
24.59440,54790
24.60373,54341
24.61307,57634
24.62242,57692
24.63175,57973
24.64108,53891
24.65043,53951
24.65977,53681
24.66910,58186
24.67845,60078
24.68778,57935
24.69712,56380
24.70647,54590
24.71580,56352
24.72515,56896
24.73448,57704
24.74382,55147
24.75317,53030
24.76250,54900
24.77183,53845
24.78118,51368
24.79052,50715
24.79985,51201
24.80920,53552
24.81853,51096
24.82787,52514
24.83722,55228
24.84655,54896
24.85588,53412
24.86523,51577
24.87457,54591
24.88390,51967
24.89325,54989
24.90258,55182
24.91193,53764
24.92127,54618
24.93060,54369
24.93995,54716
24.94928,56409
24.95862,56553
24.96797,58652
24.97730,61545
24.98663,59566
24.99598,56991
25.00532,53669
25.01465,54526
25.02400,54464
25.03333,53477
25.04267,53359
25.05202,50654
25.06135,52133
25.07068,52200
25.08003,53261
25.08937,52694
25.09872,52530
25.10805,54236
25.11738,53086
25.12673,54482
25.13607,55699
25.14540,57811
25.15475,60026
25.16408,60949
25.17342,57997
25.18277,56924
25.19210,53179
25.20143,54192
25.21078,54409
25.22012,54555
25.22945,52940
25.23880,53840
25.24813,54529
25.25747,52649
25.26682,53453
25.27615,54437
25.28550,54155
25.29483,53579
25.30417,54669
25.31352,56700
25.32285,67372
25.33218,90390
25.34153,106062
25.35087,103686
25.36020,83964
25.36955,77515
25.37888,70271
25.38822,66030
25.39757,63139
25.40690,64228
25.41623,61815
25.42558,62758
25.43492,62748
25.44427,58922
25.45360,62558
25.46293,62040
25.47228,66991
25.48162,69086
25.49095,79171
25.50030,81719
25.50963,76246
25.51897,74096
25.52832,69332
25.53765,69701
25.54698,70956
25.55633,68303
25.56567,71031
25.57500,67244
25.58435,66734
25.59368,65435
25.60302,64482
25.61237,64185
25.62170,60724
25.63105,59089
25.64038,63299
25.64972,62616
25.65907,62854
25.66840,64778
25.67773,65195
25.68708,63983
25.69642,64775
25.70575,64384
25.71510,62543
25.72443,63506
25.73377,62939
25.74312,63138
25.75245,68145
25.76178,64819
25.77113,65762
25.78047,68833
25.78980,64663
25.79915,67712
25.80848,69419
25.81783,73276
25.82717,70059
25.83650,71650
25.84585,70564
25.85518,72294
25.86452,70435
25.87387,68335
25.88320,68245
25.89253,67145
25.90188,68027
25.91122,67109
25.92055,64452
25.92990,66134
25.93923,67838
25.94857,68501
25.95792,73313
25.96725,76244
25.97658,72998
25.98593,69237
25.99527,65017
26.00462,67689
26.01395,67342
26.02328,68815
26.03263,70822
26.04197,73635
26.05130,75668
26.06065,75617
26.06998,76970
26.07932,74548
26.08867,74990
26.09800,73321
26.10733,68559
26.11668,69469
26.12602,68943
26.13535,73473
26.14470,79109
26.15403,86895
26.16337,84527
26.17272,87064
26.18205,81999
26.19140,74735
26.20073,72621
26.21007,69257
26.21942,64224
26.22875,64101
26.23808,65245
26.24743,65265
26.25677,67602
26.26610,65648
26.27545,65582
26.28478,67445
26.29412,65417
26.30347,69194
26.31280,68768
26.32213,70003
26.33148,70099
26.34082,71334
26.35015,71320
26.35950,68283
26.36883,70622
26.37818,68665
26.38752,68074
26.39685,70641
26.40620,70836
26.41553,67663
26.42487,69059
26.43422,67977
26.44355,69910
26.45288,73318
26.46223,72220
26.47157,79279
26.48090,76647
26.49025,74773
26.49958,74083
26.50892,72696
26.51827,75908
26.52760,79010
26.53695,86350
26.54628,91537
26.55562,92145
26.56497,89181
26.57430,83057
26.58363,81741
26.59298,81429
26.60232,82312
26.61165,86226
26.62100,86456
26.63033,83293
26.63967,80167
26.64902,80522
26.65835,78770
26.66768,79989
26.67703,82803
26.68637,82204
26.69570,78384
26.70505,75187
26.71438,77349
26.72373,73321
26.73307,73155
26.74240,74797
26.75175,74705
26.76108,76618
26.77042,77564
26.77977,75781
26.78910,79257
26.79843,77974
26.80778,79658
26.81712,76714
26.82645,77576
26.83580,78146
26.84513,78941
26.85447,81405
26.86382,82094
26.87315,83438
26.88248,81209
26.89183,78739
26.90117,79515
26.91052,75371
26.91985,77354
26.92918,77097
26.93853,73760
26.94787,75343
26.95720,76130
26.96655,79304
26.97588,78343
26.98522,78715
26.99457,79832
27.00390,79790
27.01323,78410
27.02258,80364
27.03192,77557
27.04125,78216
27.05060,79501
27.05993,81794
27.06927,82904
27.07862,81730
27.08795,83978
27.09730,81863
27.10663,80329
27.11597,78062
27.12532,81837
27.13465,80206
27.14398,85327
27.15333,87600
27.16267,86176
27.17200,83576
27.18135,82945
27.19068,78078
27.20002,78786
27.20937,80737
27.21870,80147
27.22803,79142
27.23738,78439
27.24672,82720
27.25607,87936
27.26540,90991
27.27473,94397
27.28408,87333
27.29342,81729
27.30275,79530
27.31210,80444
27.32143,78048
27.33077,84083
27.34012,80089
27.34945,81506
27.35878,78108
27.36813,78468
27.37747,82035
27.38680,81790
27.39615,79125
27.40548,85196
27.41482,80560
27.42417,82784
27.43350,84287
27.44285,86964
27.45218,84887
27.46152,84087
27.47087,85388
27.48020,82395
27.48953,83230
27.49888,83366
27.50822,82746
27.51755,82464
27.52690,82561
27.53623,84737
27.54557,86241
27.55492,85466
27.56425,83361
27.57358,84573
27.58293,82620
27.59227,86401
27.60160,83237
27.61095,83602
27.62028,82747
27.62963,86422
27.63897,84401
27.64830,87157
27.65765,90567
27.66698,93543
27.67632,102642
27.68567,110729
27.69500,110602
27.70433,107509
27.71368,96143
27.72302,97607
27.73235,91300
27.74170,92177
27.75103,93649
27.76037,89617
27.76972,90267
27.77905,92169
27.78838,93106
27.79773,95927
27.80707,92600
27.81642,94683
27.82575,92246
27.83508,90896
27.84443,91774
27.85377,92808
27.86310,95459
27.87245,92055
27.88178,93305
27.89112,92563
27.90047,95130
27.90980,90578
27.91913,93891
27.92848,94947
27.93782,95793
27.94715,96208
27.95650,94434
27.96583,95143
27.97517,92248
27.98452,91734
27.99385,95070
28.00320,93525
28.01253,95349
28.02187,91803
28.03122,91636
28.04055,93467
28.04988,94434
28.05923,93077
28.06857,96158
28.07790,94849
28.08725,97539
28.09658,96197
28.10592,98720
28.11527,99986
28.12460,103869
28.13393,113280
28.14328,114661
28.15262,110169
28.16197,110424
28.17130,104545
28.18063,101391
28.18998,101787
28.19932,99014
28.20865,102222
28.21800,104634
28.22733,105003
28.23667,103128
28.24602,102211
28.25535,101024
28.26468,101280
28.27403,100510
28.28337,98921
28.29270,101636
28.30205,98836
28.31138,101877
28.32072,100301
28.33007,102077
28.33940,100626
28.34875,100259
28.35808,102165
28.36742,103645
28.37677,101412
28.38610,104735
28.39543,104683
28.40478,103339
28.41412,103722
28.42345,103578
28.43280,106492
28.44213,107466
28.45147,104074
28.46082,107421
28.47015,108567
28.47948,107287
28.48883,108713
28.49817,109703
28.50750,113538
28.51685,114283
28.52618,119599
28.53553,125962
28.54487,128261
28.55420,136546
28.56355,145507
28.57288,154466
28.58222,166714
28.59157,181591
28.60090,198282
28.61023,209894
28.61958,217633
28.62892,227886
28.63825,246963
28.64760,245267
28.65693,248497
28.66627,249737
28.67562,268222
28.68495,319702
28.69428,340938
28.70363,288272
28.71297,224769
28.72232,177018
28.73165,160109
28.74098,149014
28.75033,141029
28.75967,140034
28.76900,136179
28.77835,134035
28.78768,131033
28.79702,132086
28.80637,133379
28.81570,130080
28.82503,129397
28.83438,127085
28.84372,128930
28.85305,128696
28.86240,127914
28.87173,130084
28.88107,130146
28.89042,127514
28.89975,127808
28.90910,128717
28.91843,127671
28.92777,127756
28.93712,125223
28.94645,123488
28.95578,124760
28.96513,128094
28.97447,133691
28.98380,137572
28.99315,135001
29.00248,131039
29.01182,129746
29.02117,131444
29.03050,132434
29.03983,131491
29.04918,135019
29.05852,132714
29.06787,130873
29.07720,132873
29.08653,130657
29.09588,132792
29.10522,132733
29.11455,130657
29.12390,131095
29.13323,128790
29.14257,130796
29.15192,123685
29.16125,126317
29.17058,131326
29.17993,125575
29.18927,128854
29.19860,130269
29.20795,134822
29.21728,136694
29.22662,140695
29.23597,136580
29.24530,131501
29.25465,129666
29.26398,132024
29.27332,131853
29.28267,129349
29.29200,128890
29.30133,131175
29.31068,131702
29.32002,131981
29.32935,136211
29.33870,130968
29.34803,129475
29.35737,131376
29.36672,131452
29.37605,131291
29.38538,129147
29.39473,129952
29.40407,132351
29.41340,130886
29.42275,133394
29.43208,132064
29.44143,134003
29.45077,137613
29.46010,138758
29.46945,143684
29.47878,149005
29.48812,148518
29.49747,142664
29.50680,136854
29.51613,137396
29.52548,131825
29.53482,131658
29.54415,131838
29.55350,125950
29.56283,129629
29.57217,128699
29.58152,127860
29.59085,131942
29.60018,129560
29.60953,128903
29.61887,134258
29.62822,131027
29.63755,132385
29.64688,131246
29.65623,130397
29.66557,131702
29.67490,130238
29.68425,132343
29.69358,132239
29.70292,133212
29.71227,135705
29.72160,135508
29.73093,134322
29.74028,140319
29.74962,142575
29.75895,140777
29.76830,137051
29.77763,132911
29.78697,136975
29.79632,132746
29.80565,132810
29.81500,130498
29.82433,126910
29.83367,129102
29.84302,125393
29.85235,127964
29.86168,127378
29.87103,131089
29.88037,127662
29.88970,127589
29.89905,127140
29.90838,130604
29.91772,132775
29.92707,133965
29.93640,131919
29.94573,133301
29.95508,132687
29.96442,134413
29.97377,140380
29.98310,149708
29.99243,157095
30.00178,162390
30.01112,155152
30.02045,147533
30.02980,141069
30.03913,141296
30.04847,138361
30.05782,137676
30.06715,138718
30.07648,138205
30.08583,139181
30.09517,135613
30.10450,138922
30.11385,139446
30.12318,135766
30.13252,133449
30.14187,135811
30.15120,137908
30.16055,137841
30.16988,139384
30.17922,140130
30.18857,135992
30.19790,138109
30.20723,132564
30.21658,137096
30.22592,137751
30.23525,134698
30.24460,138550
30.25393,134759
30.26327,134320
30.27262,134950
30.28195,137939
30.29128,135473
30.30063,139899
30.30997,132756
30.31930,131202
30.32865,134564
30.33798,136390
30.34733,135899
30.35667,134521
30.36600,133732
30.37535,137252
30.38468,137604
30.39402,142781
30.40337,146356
30.41270,151981
30.42203,149433
30.43138,148508
30.44072,142100
30.45005,143851
30.45940,140508
30.46873,139725
30.47807,141751
30.48742,143494
30.49675,143992
30.50608,145680
30.51543,142358
30.52477,141934
30.53412,140048
30.54345,139571
30.55278,139691
30.56213,139643
30.57147,139576
30.58080,143393
30.59015,140106
30.59948,145782
30.60882,148118
30.61817,149734
30.62750,155519
30.63683,156445
30.64618,164345
30.65552,166599
30.66485,169615
30.67420,167479
30.68353,166832
30.69288,159810
30.70222,156675
30.71155,153422
30.72090,150989
30.73023,147976
30.73957,144610
30.74892,144414
30.75825,145400
30.76758,143047
30.77693,144612
30.78627,144504
30.79560,144419
30.80495,147814
30.81428,147617
30.82362,148077
30.83297,148383
30.84230,147453
30.85163,147832
30.86098,143888
30.87032,147177
30.87967,145455
30.88900,149626
30.89833,149340
30.90768,150155
30.91702,147313
30.92635,152133
30.93570,146945
30.94503,150420
30.95437,152169
30.96372,152796
30.97305,151746
30.98238,149505
30.99173,147717
31.00107,148541
31.01040,147910
31.01975,149353
31.02908,151358
31.03842,147759
31.04777,149820
31.05710,148999
31.06645,144953
31.07578,147418
31.08512,149454
31.09447,149274
31.10380,144907
31.11313,147720
31.12248,144064
31.13182,145277
31.14115,145162
31.15050,145235
31.15983,147749
31.16917,147644
31.17852,145884
31.18785,146110
31.19718,148490
31.20653,142816
31.21587,144546
31.22520,148612
31.23455,147666
31.24388,145970
31.25323,143934
31.26257,144386
31.27190,147842
31.28125,141976
31.29058,141708
31.29992,141630
31.30927,139968
31.31860,144004
31.32793,141909
31.33728,145722
31.34662,140781
31.35595,143100
31.36530,146063
