D:\数据\202112114\ZS1E-TJ-000105.D Tue Dec 14 14:29:14 2021
Start of data points
0.09770,28105
0.10703,29254
0.11637,27913
0.12572,28326
0.13505,28237
0.14438,30327
0.15373,26783
0.16307,29113
0.17242,29147
0.18175,27494
0.19108,27539
0.20043,27128
0.20977,27812
0.21910,27439
0.22845,27681
0.23778,28705
0.24712,27289
0.25647,27325
0.26580,26877
0.27513,27077
0.28448,27325
0.29382,27271
0.30315,26552
0.31250,27569
0.32183,28429
0.33117,27515
0.34052,26316
0.34985,27056
0.35920,27783
0.36853,26463
0.37787,27399
0.38722,26275
0.39655,22879
0.40588,18821
0.41523,16294
0.42457,10405
0.43390,6227
0.44325,6207
0.45258,5956
0.46192,6138
0.47127,6338
0.48060,5262
0.48993,6184
0.49928,5266
0.50862,4964
0.51795,5952
0.52730,5188
0.53663,5405
0.54598,5891
0.55532,4617
0.56465,5355
0.57400,4960
0.58333,5544
0.59267,5029
0.60202,4527
0.61135,5339
0.62068,5141
0.63003,5100
0.63937,4739
0.64870,4943
0.65805,5195
0.66738,5163
0.67672,5300
0.68607,4866
0.69540,5301
0.70473,4136
0.71408,5218
0.72342,4981
0.73277,4450
0.74210,5151
0.75143,4777
0.76078,4936
0.77012,4471
0.77945,5483
0.78880,4502
0.79813,4965
0.80747,4152
0.81682,4588
0.82615,4408
0.83548,3791
0.84483,5025
0.85417,4696
0.86350,4700
0.87285,4531
0.88218,5124
0.89153,4790
0.90087,5011
0.91020,4529
0.91955,4795
0.92888,4550
0.93822,4658
0.94757,4998
0.95690,4979
0.96623,4884
0.97558,4751
0.98492,4537
0.99425,4987
1.00360,4810
1.01293,4661
1.02227,4262
1.03162,4709
1.04095,5009
1.05028,5084
1.05963,4083
1.06897,4193
1.07832,4914
1.08765,4826
1.09698,4338
1.10633,4210
1.11567,4388
1.12500,4934
1.13435,4739
1.14368,4813
1.15302,3812
1.16237,4466
1.17170,4052
1.18103,4434
1.19038,4327
1.19972,4617
1.20905,4843
1.21840,4244
1.22773,4964
1.23707,4078
1.24642,4345
1.25575,4094
1.26510,4162
1.27443,4401
1.28377,3770
1.29312,4365
1.30245,4532
1.31178,4367
1.32113,4293
1.33047,4629
1.33980,4480
1.34915,4321
1.35848,4143
1.36782,4579
1.37717,4430
1.38650,4693
1.39583,4296
1.40518,4641
1.41452,4633
1.42385,4708
1.43320,4057
1.44253,4306
1.45188,4089
1.46122,4228
1.47055,4490
1.47990,3816
1.48923,4465
1.49857,4611
1.50792,4142
1.51725,4318
1.52658,4185
1.53593,4433
1.54527,3944
1.55460,4369
1.56395,4746
1.57328,4565
1.58262,6215
1.59197,12720
1.60130,20207
1.61065,26414
1.61998,32996
1.62932,46388
1.63867,58467
1.64800,62162
1.65733,57703
1.66668,48169
1.67602,41756
1.68535,36115
1.69470,28812
1.70403,21465
1.71337,20330
1.72272,23373
1.73205,24940
1.74138,29473
1.75073,35276
1.76007,36868
1.76940,39325
1.77875,40705
1.78808,39354
1.79743,38807
1.80677,38570
1.81610,38575
1.82545,37540
1.83478,37049
1.84412,36145
1.85347,35497
1.86280,36373
1.87213,41927
1.88148,59121
1.89082,95260
1.90015,139330
1.90950,166723
1.91883,208036
1.92817,379385
1.93752,759979
1.94685,1346165
1.95618,1838403
1.96553,1843281
1.97487,1510232
1.98422,1100289
1.99355,786153
2.00288,605770
2.01223,517680
2.02157,468258
2.03090,397784
2.04025,304008
2.04958,220530
2.05892,160994
2.06827,127434
2.07760,102164
2.08693,86608
2.09628,74119
2.10562,65557
2.11495,66307
2.12430,72479
2.13363,95809
2.14297,146535
2.15232,162832
2.16165,135450
2.17100,108397
2.18033,104290
2.18967,154237
2.19902,211112
2.20835,167966
2.21768,110359
2.22703,93806
2.23637,116527
2.24570,175694
2.25505,657961
2.26438,2456857
2.27372,3161868
2.28307,2459133
2.29240,1529228
2.30173,990182
2.31108,1713389
2.32042,4629919
2.32975,5728693
2.33910,3604709
2.34843,1626127
2.35778,707369
2.36712,349623
2.37645,225847
2.38580,189101
2.39513,162821
2.40447,136964
2.41382,122111
2.42315,114522
2.43248,101820
2.44183,94363
2.45117,84000
2.46050,81149
2.46985,105361
2.47918,146975
2.48852,148055
2.49787,117846
2.50720,92996
2.51655,76376
2.52588,67400
2.53522,65337
2.54457,66127
2.55390,72636
2.56323,88112
2.57258,970555
2.58192,1064041
2.59125,795709
2.60060,535119
2.60993,367256
2.61927,294424
2.62862,262828
2.63795,218030
2.64728,177105
2.65663,156569
2.66597,134283
2.67530,112812
2.68465,93916
2.69398,79050
2.70333,71796
2.71267,70596
2.72200,90014
2.73135,125548
2.74068,148179
2.75002,174761
2.75937,214261
2.76870,295830
2.77803,486590
2.78738,606770
2.79672,521211
2.80605,376173
2.81540,256995
2.82473,196634
2.83407,161545
2.84342,138390
2.85275,134261
2.86208,157108
2.87143,171782
2.88077,237574
2.89012,213295
2.89945,168442
2.90878,140098
2.91813,140883
2.92747,128842
2.93680,107647
2.94615,89173
2.95548,79010
2.96482,69804
2.97417,63506
2.98350,61330
2.99283,61778
3.00218,67203
3.01152,78740
3.02085,77355
3.03020,71292
3.03953,69241
3.04887,106358
3.05822,181014
3.06755,262531
3.07690,263877
3.08623,185412
3.09557,119298
3.10492,81421
3.11425,66436
3.12358,56862
3.13293,55803
3.14227,54645
3.15160,59401
3.16095,64246
3.17028,66249
3.17962,61252
3.18897,59402
3.19830,57501
3.20763,53609
3.21698,54201
3.22632,53415
3.23567,53937
3.24500,51775
3.25433,52196
3.26368,52381
3.27302,52792
3.28235,49703
3.29170,48291
3.30103,50820
3.31037,51505
3.31972,52436
3.32905,49103
3.33838,50858
3.34773,52500
3.35707,51965
3.36640,53366
3.37575,48723
3.38508,48103
3.39442,48219
3.40377,48006
3.41310,56837
3.42245,70158
3.43178,69864
3.44112,62625
3.45047,59561
3.45980,59591
3.46913,61460
3.47848,58158
3.48782,57430
3.49715,59315
3.50650,55723
3.51583,52692
3.52517,50000
3.53452,48629
3.54385,53946
3.55318,91686
3.56253,222749
3.57187,406322
3.58120,436625
3.59055,302794
3.59988,171720
3.60923,108478
3.61857,85301
3.62790,119257
3.63725,115458
3.64658,99745
3.65592,88517
3.66527,80720
3.67460,76587
3.68393,71064
3.69328,67263
3.70262,59696
3.71195,56756
3.72130,61086
3.73063,65192
3.73997,63492
3.74932,59393
3.75865,53431
3.76798,51843
3.77733,49766
3.78667,46655
3.79602,46495
3.80535,51002
3.81468,64767
3.82403,81905
3.83337,83084
3.84270,68902
3.85205,57378
3.86138,53035
3.87072,52497
3.88007,50809
3.88940,54819
3.89873,58092
3.90808,62707
3.91742,65935
3.92675,66620
3.93610,69940
3.94543,79026
3.95477,100077
3.96412,132327
3.97345,134606
3.98280,118033
3.99213,116497
4.00147,121297
4.01082,128367
4.02015,146065
4.02948,174781
4.03883,263626
4.04817,394444
4.05750,419896
4.06685,282779
4.07618,180377
4.08552,147750
4.09487,147670
4.10420,142455
4.11353,121314
4.12288,95871
4.13222,75147
4.14155,67510
4.15090,62056
4.16023,60263
4.16958,57038
4.17892,54373
4.18825,51138
4.19760,54888
4.20693,51740
4.21627,52927
4.22562,53125
4.23495,53552
4.24428,53327
4.25363,50040
4.26297,50611
4.27230,50533
4.28165,54203
4.29098,103687
4.30032,151337
4.30967,153046
4.31900,174055
4.32835,205731
4.33768,194358
4.34702,142665
4.35637,102244
4.36570,78524
4.37503,66114
4.38438,62400
4.39372,62490
4.40305,62539
4.41240,59631
4.42173,56491
4.43107,51706
4.44042,49426
4.44975,47729
4.45908,50815
4.46843,58551
4.47777,70912
4.48710,76748
4.49645,70124
4.50578,58428
4.51513,53186
4.52447,49316
4.53380,47766
4.54315,48599
4.55248,47994
4.56182,50189
4.57117,49870
4.58050,49617
4.58983,46613
4.59918,46556
4.60852,47232
4.61785,47277
4.62720,44955
4.63653,43819
4.64587,46209
4.65522,47498
4.66455,51860
4.67388,55644
4.68323,65418
4.69257,97399
4.70192,155882
4.71125,182207
4.72058,139155
4.72993,87422
4.73927,63900
4.74860,69991
4.75795,71721
4.76728,64582
4.77662,58500
4.78597,54682
4.79530,51817
4.80463,50753
4.81398,51473
4.82332,51841
4.83265,50974
4.84200,50421
4.85133,51839
4.86068,52649
4.87002,61811
4.87935,80047
4.88870,89315
4.89803,75238
4.90737,58127
4.91672,50643
4.92605,47112
4.93538,49049
4.94473,46579
4.95407,50825
4.96340,48247
4.97275,46489
4.98208,43279
4.99142,43160
5.00077,43312
5.01010,49686
5.01943,51944
5.02878,62967
5.03812,66275
5.04747,63513
5.05680,55582
5.06613,52475
5.07548,50375
5.08482,51678
5.09415,54696
5.10350,54278
5.11283,49323
5.12217,47633
5.13152,46762
5.14085,48851
5.15018,50879
5.15953,54282
5.16887,56882
5.17820,50884
5.18755,48266
5.19688,51611
5.20622,58855
5.21557,55426
5.22490,50284
5.23425,48258
5.24358,50927
5.25292,52308
5.26227,53467
5.27160,67120
5.28093,131385
5.29028,244435
5.29962,315003
5.30895,248024
5.31830,142457
5.32763,78172
5.33697,58807
5.34632,55209
5.35565,48990
5.36498,49631
5.37433,49808
5.38367,55184
5.39300,60240
5.40235,62660
5.41168,57617
5.42103,54179
5.43037,48528
5.43970,45838
5.44905,44798
5.45838,44265
5.46772,43123
5.47707,44209
5.48640,45325
5.49573,44814
5.50508,45080
5.51442,46558
5.52375,51584
5.53310,60145
5.54243,65391
5.55177,61427
5.56112,61691
5.57045,63620
5.57978,68222
5.58913,78801
5.59847,85623
5.60782,97407
5.61715,104658
5.62648,95668
5.63583,71754
5.64517,60536
5.65450,55929
5.66385,57216
5.67318,54569
5.68252,55684
5.69187,63003
5.70120,63913
5.71053,60735
5.71988,59997
5.72922,56597
5.73855,54145
5.74790,56842
5.75723,63386
5.76657,64852
5.77592,60328
5.78525,60518
5.79460,63459
5.80393,61334
5.81327,54910
5.82262,51872
5.83195,54936
5.84128,59823
5.85063,61155
5.85997,51302
5.86930,39785
5.87865,36009
5.88798,35466
5.89732,33179
5.90667,35261
5.91600,52454
5.92533,89130
5.93468,116123
5.94402,102941
5.95337,80464
5.96270,76868
5.97203,71536
5.98138,57084
5.99072,45973
6.00005,36876
6.00940,30873
6.01873,26401
6.02807,25496
6.03742,22646
6.04675,21837
6.05608,24187
6.06543,23831
6.07477,23683
6.08410,21234
6.09345,18767
6.10278,17005
6.11212,16926
6.12147,21098
6.13080,28115
6.14015,36968
6.14948,39057
6.15882,32003
6.16817,22775
6.17750,21040
6.18683,19494
6.19618,19322
6.20552,20045
6.21485,19252
6.22420,18840
6.23353,21904
6.24287,24077
6.25222,22206
6.26155,21017
6.27088,18945
6.28023,25378
6.28957,32828
6.29890,32891
6.30825,28317
6.31758,22406
6.32693,16504
6.33627,17850
6.34560,16569
6.35495,17894
6.36428,16440
6.37362,18408
6.38297,24845
6.39230,45038
6.40163,129650
6.41098,421465
6.42032,804424
6.42965,826099
6.43900,481013
6.44833,189302
6.45767,69164
6.46702,36328
6.47635,28901
6.48568,25457
6.49503,23780
6.50437,23009
6.51372,21350
6.52305,21897
6.53238,22032
6.54173,20198
6.55107,19263
6.56040,20044
6.56975,18581
6.57908,17652
6.58842,18654
6.59777,20298
6.60710,21599
6.61643,21554
6.62578,21069
6.63512,21876
6.64445,23340
6.65380,22956
6.66313,24640
6.67248,26532
6.68182,26383
6.69115,23837
6.70050,23175
6.70983,24813
6.71917,31083
6.72852,33871
6.73785,30860
6.74718,29003
6.75653,24797
6.76587,23752
6.77520,22291
6.78455,22009
6.79388,26020
6.80322,31515
6.81257,33982
6.82190,29651
6.83123,23224
6.84058,22864
6.84992,21374
6.85927,22355
6.86860,23133
6.87793,21227
6.88728,20208
6.89662,21352
6.90595,22613
6.91530,28222
6.92463,33013
6.93397,33951
6.94332,28889
6.95265,23102
6.96198,24614
6.97133,22420
6.98067,23454
6.99000,23896
6.99935,22894
7.00868,22061
7.01802,19588
7.02737,22401
7.03670,18617
7.04605,17141
7.05538,15456
7.06472,15541
7.07407,15801
7.08340,16525
7.09273,16962
7.10208,20505
7.11142,25097
7.12075,28165
7.13010,28768
7.13943,25525
7.14877,22731
7.15812,20539
7.16745,18525
7.17678,18012
7.18613,17682
7.19547,19582
7.20480,18909
7.21415,19749
7.22348,21975
7.23283,38786
7.24217,69784
7.25150,102228
7.26085,84398
7.27018,51862
7.27952,34381
7.28887,30115
7.29820,25466
7.30753,24587
7.31688,20245
7.32622,17930
7.33555,17859
7.34490,18637
7.35423,16727
7.36357,17469
7.37292,16734
7.38225,18664
7.39158,28586
7.40093,66548
7.41027,133592
7.41962,177906
7.42895,156761
7.43828,100824
7.44763,53751
7.45697,31181
7.46630,20802
7.47565,18519
7.48498,18676
7.49432,21486
7.50367,26237
7.51300,24824
7.52233,20573
7.53168,19068
7.54102,17571
7.55035,16756
7.55970,18721
7.56903,19128
7.57838,20565
7.58772,21027
7.59705,21623
7.60640,21529
7.61573,24048
7.62507,22629
7.63442,23306
7.64375,23054
7.65308,22617
7.66243,20862
7.67177,19548
7.68110,20069
7.69045,20492
7.69978,20973
7.70912,21641
7.71847,24679
7.72780,23389
7.73713,21361
7.74648,20617
7.75582,22485
7.76517,23812
7.77450,23908
7.78383,24463
7.79318,26243
7.80252,26910
7.81185,23747
7.82120,22213
7.83053,19379
7.83987,20424
7.84922,23299
7.85855,33195
7.86788,56684
7.87723,75975
7.88657,72512
7.89590,54906
7.90525,44791
7.91458,55517
7.92392,87166
7.93327,98721
7.94260,70434
7.95195,39778
7.96128,28595
7.97062,32010
7.97997,40693
7.98930,44741
7.99863,42964
8.00798,36883
8.01732,31092
8.02665,29863
8.03600,32939
8.04533,44243
8.05467,51557
8.06402,44686
8.07335,32914
8.08268,25329
8.09203,27147
8.10137,39967
8.11070,50849
8.12005,45043
8.12938,35062
8.13873,29727
8.14807,25161
8.15740,24109
8.16675,22806
8.17608,23296
8.18542,20376
8.19477,21322
8.20410,22211
8.21343,22730
8.22278,21835
8.23212,22639
8.24145,23933
8.25080,25911
8.26013,27785
8.26947,27696
8.27882,25246
8.28815,23606
8.29750,20968
8.30683,21923
8.31617,21795
8.32552,20672
8.33485,22465
8.34418,21862
8.35353,21715
8.36287,22463
8.37220,20678
8.38155,19969
8.39088,22928
8.40022,29263
8.40957,33713
8.41890,35127
8.42823,36628
8.43758,32087
8.44692,31419
8.45625,27570
8.46560,28286
8.47493,24938
8.48428,28221
8.49362,26480
8.50295,25607
8.51230,24752
8.52163,23043
8.53097,23263
8.54032,23091
8.54965,23728
8.55898,23635
8.56833,24165
8.57767,26000
8.58700,32935
8.59635,34262
8.60568,35881
8.61502,35340
8.62437,32747
8.63370,28408
8.64303,27122
8.65238,26633
8.66172,27653
8.67107,30003
8.68040,28706
8.68973,27048
8.69908,25756
8.70842,26861
8.71775,26248
8.72710,25434
8.73643,24819
8.74577,26522
8.75512,31173
8.76445,35568
8.77378,33523
8.78313,29249
8.79247,30331
8.80180,37189
8.81115,57436
8.82048,71047
8.82982,59265
8.83917,39180
8.84850,28760
8.85785,24289
8.86718,23205
8.87652,25313
8.88587,27990
8.89520,29590
8.90453,26570
8.91388,26972
8.92322,26705
8.93255,26365
8.94190,26852
8.95123,24557
8.96057,23651
8.96992,23551
8.97925,30440
8.98858,32969
8.99793,30507
9.00727,30815
9.01660,31036
9.02595,28401
9.03528,28550
9.04463,28283
9.05397,26932
9.06330,27283
9.07265,28549
9.08198,32173
9.09132,36965
9.10067,37764
9.11000,33402
9.11933,29087
9.12868,27241
9.13802,30504
9.14735,31688
9.15670,30509
9.16603,28162
9.17537,26285
9.18472,25934
9.19405,26741
9.20340,26879
9.21273,32257
9.22207,56518
9.23142,89260
9.24075,101910
9.25008,83589
9.25943,52725
9.26877,38241
9.27810,33801
9.28745,30723
9.29678,30078
9.30612,29634
9.31547,29949
9.32480,36189
9.33413,48701
9.34348,54289
9.35282,47392
9.36215,53729
9.37150,106401
9.38083,185964
9.39018,197018
9.39952,152127
9.40885,96398
9.41820,64337
9.42753,55902
9.43687,51154
9.44622,41490
9.45555,32458
9.46488,28090
9.47423,25940
9.48357,25741
9.49290,30960
9.50225,32650
9.51158,35077
9.52092,28740
9.53027,27286
9.53960,33095
9.54893,43329
9.55828,53417
9.56762,74161
9.57697,78906
9.58630,60246
9.59563,42181
9.60498,41231
9.61432,43926
9.62365,36194
9.63300,30141
9.64233,28049
9.65167,31223
9.66102,32968
9.67035,34926
9.67968,32909
9.68903,30475
9.69837,29080
9.70770,26087
9.71705,36463
9.72638,107230
9.73572,391126
9.74507,958481
9.75440,1307452
9.76375,1020660
9.77308,535253
9.78242,244476
9.79177,141576
9.80110,105321
9.81043,83800
9.81978,73407
9.82912,75927
9.83845,83967
9.84780,91570
9.85713,88195
9.86647,70584
9.87582,61001
9.88515,61316
9.89448,73550
9.90383,82192
9.91317,72231
9.92252,67197
9.93185,71174
9.94118,69167
9.95053,55744
9.95987,44204
9.96920,40795
9.97855,56685
9.98788,103392
9.99722,155195
10.00657,142636
10.01590,90429
10.02523,54215
10.03458,42771
10.04392,36191
10.05325,34809
10.06260,43149
10.07193,56434
10.08127,69293
10.09062,66648
10.09995,54277
10.10930,47654
10.11863,89230
10.12797,207868
10.13732,332314
10.14665,372942
10.15598,726982
10.16533,1971797
10.17467,3009932
10.18400,2296012
10.19335,849742
10.20268,188849
10.21202,56076
10.22137,41910
10.23070,41835
10.24003,46437
10.24938,61860
10.25872,66100
10.26805,57430
10.27740,42994
10.28673,38712
10.29608,36846
10.30542,35732
10.31475,33414
10.32410,31535
10.33343,30953
10.34277,28982
10.35212,26901
10.36145,28014
10.37078,29416
10.38013,30857
10.38947,27273
10.39880,26774
10.40815,26459
10.41748,28925
10.42682,36874
10.43617,40994
10.44550,38435
10.45483,35784
10.46418,39148
10.47352,39049
10.48287,34317
10.49220,31067
10.50153,27260
10.51088,25455
10.52022,25641
10.52955,27611
10.53890,27178
10.54823,26332
10.55757,26734
10.56692,27748
10.57625,30106
10.58558,29681
10.59493,28967
10.60427,27527
10.61360,25681
10.62295,26977
10.63228,33204
10.64162,43401
10.65097,42095
10.66030,33685
10.66965,29865
10.67898,33614
10.68832,37788
10.69767,39904
10.70700,44697
10.71633,62213
10.72568,85279
10.73502,82217
10.74435,55110
10.75370,40960
10.76303,51301
10.77237,71602
10.78172,79785
10.79105,83060
10.80038,153014
10.80973,260863
10.81907,277211
10.82840,171866
10.83775,74769
10.84708,41693
10.85643,32155
10.86577,32101
10.87510,33526
10.88445,37921
10.89378,46651
10.90312,45415
10.91247,37252
10.92180,35706
10.93113,36244
10.94048,38103
10.94982,36584
10.95915,33620
10.96850,31928
10.97783,32817
10.98717,31748
10.99652,26854
11.00585,25456
11.01520,25893
11.02453,24234
11.03387,25846
11.04322,25466
11.05255,25419
11.06188,27690
11.07123,31658
11.08057,37234
11.08990,34593
11.09925,30594
11.10858,34073
11.11792,46009
11.12727,49441
11.13660,43543
11.14593,36289
11.15528,33637
11.16462,32245
11.17395,31738
11.18330,30153
11.19263,28902
11.20198,28101
11.21132,27504
11.22065,26438
11.23000,28994
11.23933,29787
11.24867,29483
11.25802,30963
11.26735,35800
11.27668,36911
11.28603,33616
11.29537,29253
11.30470,25761
11.31405,26237
11.32338,25866
11.33272,29737
11.34207,39644
11.35140,53618
11.36073,60246
11.37008,57930
11.37942,47547
11.38877,38231
11.39810,43723
11.40743,68951
11.41678,105242
11.42612,116805
11.43545,84435
11.44480,49836
11.45413,34871
11.46347,36922
11.47282,48899
11.48215,52620
11.49148,44363
11.50083,31151
11.51017,26602
11.51950,26341
11.52885,26141
11.53818,25663
11.54752,25455
11.55687,28748
11.56620,44453
11.57555,84348
11.58488,126066
11.59422,133027
11.60357,100999
11.61290,72851
11.62223,56408
11.63158,49327
11.64092,51254
11.65025,67246
11.65960,95251
11.66893,99852
11.67827,84031
11.68762,62289
11.69695,46859
11.70628,39722
11.71563,38287
11.72497,35574
11.73432,35647
11.74365,33158
11.75298,33584
11.76233,31997
11.77167,32340
11.78100,36769
11.79035,42855
11.79968,46830
11.80902,43819
11.81837,38005
11.82770,38506
11.83703,41168
11.84638,35665
11.85572,34543
11.86505,36399
11.87440,34086
11.88373,35038
11.89307,35503
11.90242,33531
11.91175,31089
11.92110,30695
11.93043,34467
11.93977,43788
11.94912,54191
11.95845,63280
11.96778,54085
11.97713,38701
11.98647,30432
11.99580,29613
12.00515,34745
12.01448,46095
12.02382,58418
12.03317,55764
12.04250,45426
12.05183,39570
12.06118,35707
12.07052,31597
12.07985,27842
12.08920,27130
12.09853,30155
12.10788,33930
12.11722,38322
12.12655,37380
12.13590,36439
12.14523,33365
12.15457,34744
12.16392,41721
12.17325,66233
12.18258,101589
12.19193,108854
12.20127,73771
12.21060,44717
12.21995,36640
12.22928,39781
12.23862,45102
12.24797,45733
12.25730,37709
12.26663,41508
12.27598,64237
12.28532,108170
12.29467,120097
12.30400,82561
12.31333,50061
12.32268,37988
12.33202,37359
12.34135,40072
12.35070,40691
12.36003,39790
12.36937,35513
12.37872,38084
12.38805,44249
12.39738,49616
12.40673,52243
12.41607,45902
12.42540,38366
12.43475,34046
12.44408,32310
12.45342,31016
12.46277,32338
12.47210,32855
12.48145,37156
12.49078,35238
12.50012,35650
12.50947,37103
12.51880,37064
12.52813,37121
12.53748,38068
12.54682,39712
12.55615,42276
12.56550,51618
12.57483,53037
12.58417,49071
12.59352,39743
12.60285,33679
12.61218,34095
12.62153,50951
12.63087,84874
12.64022,111401
12.64955,122548
12.65888,132239
12.66823,146686
12.67757,141778
12.68690,105603
12.69625,60404
12.70558,39381
12.71492,35747
12.72427,42286
12.73360,44990
12.74293,39379
12.75228,37077
12.76162,36604
12.77095,33291
12.78030,29971
12.78963,28416
12.79897,30167
12.80832,31724
12.81765,32975
12.82700,32280
12.83633,31891
12.84567,33205
12.85502,29914
12.86435,28316
12.87368,28385
12.88303,27313
12.89237,28408
12.90170,30250
12.91105,32927
12.92038,29581
12.92972,29332
12.93907,30734
12.94840,29174
12.95773,30345
12.96708,31979
12.97642,29583
12.98575,26171
12.99510,27489
13.00443,28573
13.01378,29231
13.02312,34871
13.03245,41715
13.04180,47703
13.05113,45746
13.06047,35456
13.06982,34130
13.07915,34492
13.08848,35527
13.09783,36995
13.10717,35715
13.11650,33055
13.12585,34959
13.13518,36705
13.14452,38885
13.15387,42133
13.16320,38615
13.17253,40345
13.18188,38909
13.19122,47725
13.20057,82922
13.20990,187830
13.21923,304414
13.22858,298809
13.23792,187557
13.24725,121013
13.25660,101019
13.26593,81416
13.27527,64947
13.28462,54841
13.29395,48130
13.30328,40570
13.31263,39570
13.32197,44978
13.33130,46936
13.34065,45567
13.34998,42087
13.35933,40209
13.36867,38689
13.37800,35712
13.38735,36961
13.39668,40500
13.40602,46442
13.41537,42883
13.42470,37396
13.43403,36878
13.44338,40692
13.45272,42287
13.46205,42258
13.47140,41366
13.48073,40472
13.49007,39043
13.49942,37718
13.50875,36590
13.51808,48402
13.52743,79443
13.53677,106204
13.54612,92680
13.55545,57696
13.56478,37171
13.57413,32981
13.58347,30509
13.59280,30315
13.60215,29266
13.61148,28275
13.62082,28105
13.63017,30321
13.63950,32101
13.64883,34114
13.65818,38943
13.66752,38504
13.67685,35560
13.68620,32318
13.69553,30171
13.70487,26515
13.71422,25288
13.72355,26050
13.73290,25538
13.74223,26398
13.75157,25276
13.76092,26557
13.77025,27254
13.77958,27738
13.78893,27724
13.79827,30468
13.80760,36120
13.81695,41009
13.82628,37306
13.83562,31318
13.84497,28961
13.85430,27904
13.86363,29124
13.87298,34352
13.88232,36522
13.89165,49284
13.90100,76453
13.91033,137989
13.91968,243012
13.92902,289939
13.93835,197679
13.94770,93850
13.95703,51294
13.96637,43681
13.97572,40393
13.98505,37180
13.99438,36721
14.00373,35806
14.01307,35447
14.02240,32281
14.03175,31724
14.04108,47408
14.05042,224752
14.05977,1260087
14.06910,3905648
14.07843,6574204
14.08778,5735423
14.09712,2245081
14.10647,440499
14.11580,88222
14.12513,51687
14.13448,43256
14.14382,44262
14.15315,45337
14.16250,48555
14.17183,52176
14.18117,53488
14.19052,65021
14.19985,89935
14.20918,90577
14.21853,65125
14.22787,43123
14.23720,33074
14.24655,29886
14.25588,28642
14.26522,30911
14.27457,34503
14.28390,33866
14.29325,32512
14.30258,30061
14.31192,31735
14.32127,39515
14.33060,50200
14.33993,56744
14.34928,54970
14.35862,43420
14.36795,34583
14.37730,32011
14.38663,32293
14.39597,31143
14.40532,31309
14.41465,30512
14.42398,28591
14.43333,27878
14.44267,29826
14.45202,38982
14.46135,53824
14.47068,69922
14.48003,69488
14.48937,55662
14.49870,39113
14.50805,33655
14.51738,27284
14.52672,26108
14.53607,26416
14.54540,28986
14.55473,30890
14.56408,31753
14.57342,34300
14.58275,32046
14.59210,31315
14.60143,30550
14.61077,27809
14.62012,28760
14.62945,31238
14.63880,36201
14.64813,47305
14.65747,66828
14.66682,69635
14.67615,60728
14.68548,46870
14.69483,38710
14.70417,32409
14.71350,33245
14.72285,30561
14.73218,31527
14.74152,33045
14.75087,32058
14.76020,31873
14.76953,30538
14.77888,35146
14.78822,35593
14.79755,34545
14.80690,32035
14.81623,32340
14.82558,32895
14.83492,32544
14.84425,30304
14.85360,28723
14.86293,32277
14.87227,40144
14.88162,47749
14.89095,44715
14.90028,36601
14.90963,30615
14.91897,30732
14.92830,31432
14.93765,33619
14.94698,33059
14.95632,32898
14.96567,35092
14.97500,40822
14.98433,41797
14.99368,36038
15.00302,36580
15.01237,37122
15.02170,42664
15.03103,38508
15.04038,35932
15.04972,37765
15.05905,43058
15.06840,43766
15.07773,42226
15.08707,37116
15.09642,34317
15.10575,29731
15.11508,30722
15.12443,35915
15.13377,43868
15.14310,46867
15.15245,40289
15.16178,36485
15.17113,30733
15.18047,29375
15.18980,30455
15.19915,39348
15.20848,53851
15.21782,74715
15.22717,85394
15.23650,79751
15.24583,63053
15.25518,44961
15.26452,36924
15.27385,35871
15.28320,35868
15.29253,35148
15.30187,33069
15.31122,31735
15.32055,32386
15.32988,36700
15.33923,38346
15.34857,40605
15.35792,39108
15.36725,40208
15.37658,45360
15.38593,44046
15.39527,36689
15.40460,33010
15.41395,32301
15.42328,33421
15.43262,33873
15.44197,35040
15.45130,34403
15.46063,31960
15.46998,31263
15.47932,30357
15.48865,32229
15.49800,35685
15.50733,41440
15.51667,55150
15.52602,69608
15.53535,66639
15.54470,49443
15.55403,38388
15.56337,31795
15.57272,29337
15.58205,29103
15.59138,29700
15.60073,30656
15.61007,32300
15.61940,31453
15.62875,34491
15.63808,38906
15.64742,42673
15.65677,45998
15.66610,45040
15.67543,45474
15.68478,39684
15.69412,39512
15.70345,46847
15.71280,55635
15.72213,51126
15.73148,40971
15.74082,35281
15.75015,41170
15.75950,46923
15.76883,51117
15.77817,47841
15.78752,40573
15.79685,37910
15.80618,47050
15.81553,87674
15.82487,186466
15.83420,324366
15.84355,381307
15.85288,322778
15.86222,198386
15.87157,104611
15.88090,69338
15.89023,66814
15.89958,73139
15.90892,77714
15.91827,68316
15.92760,53841
15.93693,46372
15.94628,39479
15.95562,36058
15.96495,35891
15.97430,41271
15.98363,50618
15.99297,68543
16.00232,77148
16.01165,68186
16.02098,48763
16.03033,39213
16.03967,37150
16.04900,34696
16.05835,38429
16.06768,39344
16.07702,38789
16.08637,38528
16.09570,37678
16.10505,40567
16.11438,46179
16.12372,47379
16.13307,49451
16.14240,40991
16.15173,36792
16.16108,38401
16.17042,36129
16.17975,36046
16.18910,37344
16.19843,41490
16.20777,45989
16.21712,50417
16.22645,49284
16.23578,49779
16.24513,48157
16.25447,43660
16.26382,41240
16.27315,43822
16.28248,57249
16.29183,101396
16.30117,159412
16.31050,173549
16.31985,130953
16.32918,72008
16.33852,45797
16.34787,36053
16.35720,33710
16.36653,31063
16.37588,30451
16.38522,29575
16.39455,29823
16.40390,32839
16.41323,34538
16.42257,36444
16.43192,34934
16.44125,35069
16.45060,37445
16.45993,40786
16.46927,42975
16.47862,38937
16.48795,39859
16.49728,38622
16.50663,38996
16.51597,39207
16.52530,40618
16.53465,39086
16.54398,38631
16.55332,35836
16.56267,34455
16.57200,32755
16.58133,34895
16.59068,36723
16.60002,36045
16.60935,33715
16.61870,34958
16.62803,38426
16.63738,44005
16.64672,44730
16.65605,41631
16.66540,38165
16.67473,34398
16.68407,36179
16.69342,41711
16.70275,46133
16.71208,48954
16.72143,41027
16.73077,36683
16.74010,43177
16.74945,68902
16.75878,92187
16.76812,83996
16.77747,53192
16.78680,37468
16.79613,33538
16.80548,34809
16.81482,36241
16.82417,42428
16.83350,45183
16.84283,45932
16.85218,43662
16.86152,36834
16.87085,34766
16.88020,34377
16.88953,35984
16.89887,35851
16.90822,41451
16.91755,52570
16.92688,56618
16.93623,50457
16.94557,49015
16.95490,49007
16.96425,55623
16.97358,54212
16.98293,50263
16.99227,43951
17.00160,37221
17.01095,36321
17.02028,36965
17.02962,53086
17.03897,76307
17.04830,77925
17.05763,59201
17.06698,44094
17.07632,43514
17.08565,41551
17.09500,38034
17.10433,36934
17.11367,36543
17.12302,33951
17.13235,35497
17.14168,39170
17.15103,38161
17.16037,33105
17.16972,30609
17.17905,33083
17.18838,33470
17.19773,32853
17.20707,33174
17.21640,31627
17.22575,30519
17.23508,30159
17.24442,31513
17.25377,32010
17.26310,34777
17.27243,38940
17.28178,42020
17.29112,47485
17.30045,46645
17.30980,39770
17.31913,40225
17.32847,43102
17.33782,43188
17.34715,41751
17.35650,36219
17.36583,36191
17.37517,48186
17.38452,90227
17.39385,143287
17.40318,134655
17.41253,87236
17.42187,64000
17.43120,55281
17.44055,45132
17.44988,43592
17.45922,42816
17.46857,40928
17.47790,38744
17.48723,51937
17.49658,167801
17.50592,652927
17.51525,1651023
17.52460,2077787
17.53393,1280889
17.54328,415372
17.55262,98125
17.56195,49852
17.57130,45317
17.58063,50619
17.58997,56689
17.59932,50903
17.60865,42527
17.61798,37873
17.62733,38086
17.63667,37050
17.64600,38959
17.65535,38897
17.66468,43547
17.67402,48713
17.68337,57667
17.69270,62164
17.70203,66331
17.71138,57305
17.72072,52785
17.73007,46448
17.73940,41021
17.74873,42444
17.75808,45001
17.76742,49815
17.77675,53045
17.78610,48794
17.79543,46699
17.80477,47477
17.81412,43796
17.82345,39754
17.83278,37759
17.84213,38899
17.85147,40913
17.86080,47143
17.87015,56680
17.87948,57008
17.88883,52586
17.89817,45535
17.90750,41296
17.91685,36747
17.92618,36588
17.93552,38507
17.94487,38771
17.95420,37615
17.96353,37698
17.97288,35547
17.98222,35047
17.99155,32972
18.00090,35436
18.01023,36250
18.01957,35449
18.02892,34486
18.03825,36235
18.04758,39823
18.05693,50201
18.06627,53110
18.07562,48512
18.08495,38309
18.09428,34472
18.10363,37771
18.11297,42059
18.12230,45485
18.13165,43530
18.14098,43236
18.15032,41951
18.15967,42977
18.16900,42375
18.17833,42403
18.18768,40182
18.19702,37645
18.20635,37263
18.21570,35512
18.22503,38859
18.23437,39194
18.24372,36956
18.25305,33601
18.26240,33283
18.27173,32573
18.28107,36870
18.29042,41860
18.29975,44435
18.30908,45574
18.31843,46528
18.32777,45641
18.33710,46485
18.34645,46371
18.35578,53022
18.36512,57159
18.37447,55199
18.38380,57396
18.39313,52962
18.40248,51778
18.41182,52443
18.42115,49077
18.43050,44805
18.43983,42153
18.44918,45815
18.45852,46699
18.46785,43925
18.47720,40291
18.48653,40357
18.49587,48305
18.50522,61637
18.51455,72475
18.52388,69714
18.53323,59081
18.54257,48726
18.55190,47752
18.56125,50510
18.57058,46464
18.57992,42946
18.58927,40694
18.59860,43444
18.60795,42849
18.61728,49038
18.62662,50605
18.63597,47867
18.64530,46693
18.65463,44249
18.66398,45377
18.67332,46502
18.68265,48268
18.69200,49026
18.70133,50450
18.71067,52756
18.72002,52630
18.72935,52365
18.73868,51680
18.74803,45925
18.75737,42975
18.76670,38002
18.77605,36740
18.78538,34958
18.79473,35021
18.80407,35267
18.81340,36147
18.82275,34512
18.83208,36471
18.84142,37030
18.85077,37873
18.86010,35102
18.86943,34755
18.87878,34550
18.88812,33487
18.89745,34254
18.90680,41669
18.91613,51482
18.92547,55749
18.93482,52336
18.94415,47153
18.95348,51242
18.96283,54767
18.97217,61109
18.98152,58911
18.99085,52188
19.00018,44915
19.00953,40484
19.01887,40028
19.02820,39970
19.03755,43289
19.04688,53777
19.05622,70677
19.06557,82209
19.07490,94750
19.08423,118136
19.09358,131478
19.10292,111765
19.11225,75756
19.12160,51674
19.13093,39741
19.14027,36351
19.14962,35489
19.15895,33855
19.16830,32275
19.17763,32676
19.18697,34322
19.19632,39272
19.20565,42338
19.21498,45534
19.22433,44066
19.23367,43223
19.24300,40443
19.25235,37460
19.26168,36717
19.27102,36329
19.28037,42885
19.28970,49119
19.29903,50515
19.30838,57669
19.31772,66138
19.32705,67842
19.33640,56502
19.34573,45585
19.35508,39545
19.36442,36039
19.37375,34972
19.38310,34410
19.39243,36203
19.40177,36286
19.41112,38528
19.42045,37585
19.42978,35374
19.43913,34305
19.44847,32398
19.45780,32372
19.46715,34771
19.47648,38280
19.48582,41856
19.49517,43057
19.50450,41907
19.51383,37514
19.52318,34191
19.53252,35726
19.54187,34940
19.55120,35452
19.56053,34324
19.56988,33647
19.57922,39422
19.58855,40677
19.59790,41642
19.60723,39919
19.61657,37621
19.62592,40530
19.63525,41092
19.64458,44294
19.65393,43533
19.66327,39348
19.67260,36572
19.68195,35178
19.69128,39073
19.70063,44586
19.70997,45969
19.71930,51281
19.72865,57361
19.73798,64409
19.74732,62340
19.75667,51139
19.76600,45900
19.77533,44814
19.78468,43018
19.79402,43288
19.80335,41142
19.81270,38680
19.82203,37251
19.83137,38357
19.84072,36380
19.85005,34323
19.85938,31923
19.86873,39255
19.87807,50007
19.88742,57391
19.89675,50708
19.90608,44146
19.91543,37971
19.92477,37043
19.93410,35870
19.94345,34374
19.95278,31943
19.96212,34758
19.97147,34273
19.98080,35713
19.99013,32870
19.99948,32924
20.00882,32478
20.01815,34071
20.02750,34387
20.03683,38214
20.04617,38925
20.05552,38796
20.06485,38230
20.07420,37555
20.08353,40488
20.09287,38046
20.10222,36115
20.11155,34408
20.12088,30032
20.13023,30670
20.13957,32372
20.14890,36777
20.15825,42774
20.16758,45517
20.17692,42320
20.18627,36759
20.19560,33359
20.20493,32391
20.21428,33913
20.22362,33457
20.23295,33703
20.24230,34970
20.25163,35693
20.26098,34311
20.27032,33388
20.27965,34211
20.28900,35701
20.29833,36281
20.30767,34949
20.31702,34339
20.32635,32336
20.33568,30469
20.34503,32438
20.35437,32357
20.36370,31429
20.37305,35501
20.38238,34946
20.39172,29410
20.40107,30159
20.41040,31190
20.41975,31155
20.42908,32207
20.43842,31919
20.44777,31999
20.45710,33451
20.46643,35281
20.47578,39932
20.48512,43136
20.49445,39171
20.50380,35394
20.51313,33619
20.52247,34419
20.53182,33423
20.54115,34320
20.55048,36323
20.55983,41642
20.56917,79296
20.57850,158120
20.58785,208477
20.59718,167226
20.60653,86922
20.61587,52414
20.62520,43106
20.63455,40452
20.64388,41693
20.65322,41807
20.66257,39846
20.67190,36699
20.68123,38189
20.69058,37927
20.69992,37992
20.70925,36863
20.71860,37184
20.72793,40157
20.73727,37306
20.74662,38129
20.75595,37311
20.76528,37859
20.77463,34895
20.78397,36646
20.79332,42124
20.80265,45816
20.81198,43989
20.82133,42618
20.83067,38170
20.84000,33872
20.84935,35948
20.85868,32145
20.86802,32512
20.87737,31709
20.88670,32481
20.89603,34105
20.90538,36937
20.91472,37020
20.92405,34801
20.93340,33474
20.94273,34232
20.95207,33062
20.96142,33531
20.97075,32190
20.98010,32509
20.98943,32566
20.99877,33209
21.00812,32711
21.01745,33364
21.02678,32646
21.03613,34120
21.04547,32052
21.05480,31928
21.06415,32796
21.07348,34958
21.08282,34093
21.09217,34979
21.10150,34910
21.11083,36225
21.12018,36692
21.12952,35441
21.13885,36109
21.14820,35850
21.15753,34038
21.16688,35459
21.17622,41406
21.18555,46928
21.19490,53781
21.20423,48391
21.21357,40790
21.22292,39350
21.23225,34415
21.24158,34509
21.25093,33703
21.26027,33751
21.26960,36837
21.27895,42315
21.28828,47924
21.29762,47454
21.30697,44154
21.31630,40635
21.32565,36738
21.33498,38319
21.34432,39150
21.35367,40412
21.36300,39019
21.37233,36688
21.38168,35268
21.39102,35022
21.40035,38131
21.40970,38550
21.41903,37294
21.42837,37493
21.43772,38924
21.44705,37898
21.45638,35238
21.46573,33014
21.47507,36247
21.48440,39471
21.49375,40179
21.50308,41946
21.51243,45113
21.52177,42971
21.53110,40427
21.54045,37877
21.54978,38244
21.55912,43977
21.56847,57529
21.57780,77107
21.58713,76812
21.59648,62838
21.60582,47693
21.61515,43321
21.62450,41528
21.63383,42100
21.64317,39972
21.65252,38089
21.66185,35681
21.67118,38759
21.68053,43875
21.68987,48771
21.69922,47258
21.70855,45261
21.71788,44534
21.72723,45899
21.73657,46417
21.74590,41266
21.75525,38084
21.76458,33500
21.77392,33620
21.78327,34641
21.79260,34902
21.80193,36520
21.81128,40395
21.82062,46173
21.82995,46363
21.83930,43597
21.84863,39885
21.85797,37415
21.86732,37458
21.87665,39062
21.88600,43325
21.89533,45042
21.90467,48254
21.91402,44388
21.92335,42054
21.93268,38775
21.94203,36028
21.95137,35928
21.96070,38255
21.97005,44086
21.97938,49597
21.98872,53650
21.99807,59538
22.00740,57489
22.01673,50173
22.02608,43958
22.03542,44441
22.04477,45431
22.05410,49552
22.06343,48291
22.07278,47594
22.08212,44944
22.09145,44012
22.10080,43949
22.11013,39711
22.11947,41720
22.12882,37157
22.13815,37211
22.14748,40139
22.15683,42858
22.16617,49942
22.17550,56524
22.18485,54193
22.19418,47011
22.20352,40562
22.21287,42462
22.22220,45207
22.23155,49791
22.24088,50462
22.25022,48514
22.25957,44201
22.26890,46573
22.27823,51900
22.28758,56682
22.29692,62509
22.30625,57532
22.31560,53730
22.32493,44214
22.33427,41351
22.34362,42756
22.35295,47644
22.36228,50840
22.37163,53696
22.38097,54615
22.39030,52372
22.39965,49093
22.40898,45968
22.41833,44347
22.42767,42695
22.43700,48172
22.44635,48389
22.45568,46328
22.46502,45234
22.47437,44485
22.48370,44590
22.49303,42839
22.50238,41672
22.51172,40332
22.52105,43768
22.53040,41044
22.53973,40767
22.54907,40619
22.55842,42192
22.56775,46167
22.57708,47801
22.58643,51215
22.59577,52118
22.60512,52619
22.61445,56170
22.62378,54519
22.63313,51295
22.64247,49324
22.65180,46055
22.66115,44143
22.67048,40386
22.67982,41913
22.68917,49765
22.69850,54201
22.70783,50227
22.71718,47833
22.72652,43470
22.73585,50340
22.74520,52912
22.75453,54801
22.76387,51567
22.77322,52305
22.78255,45865
22.79190,46025
22.80123,49008
22.81057,53546
22.81992,54821
22.82925,50462
22.83858,48609
22.84793,46574
22.85727,45607
22.86660,44546
22.87595,43877
22.88528,43412
22.89462,45010
22.90397,43195
22.91330,45629
22.92263,46130
22.93198,46739
22.94132,46871
22.95065,46523
22.96000,43428
22.96933,43523
22.97868,40537
22.98802,38230
22.99735,38373
23.00670,37243
23.01603,37116
23.02537,37282
23.03472,36102
23.04405,39182
23.05338,39620
23.06273,38949
23.07207,39658
23.08140,36953
23.09075,37375
23.10008,35700
23.10942,36160
23.11877,35233
23.12810,35833
23.13745,37240
23.14678,38451
23.15612,36809
23.16547,37627
23.17480,37495
23.18413,38384
23.19348,36298
23.20282,38407
23.21215,35190
23.22150,34247
23.23083,36336
23.24017,39517
23.24952,41944
23.25885,45702
23.26818,47533
23.27753,48425
23.28687,42739
23.29620,39988
23.30555,36408
23.31488,38192
23.32423,39661
23.33357,45718
23.34290,55005
23.35225,52850
23.36158,44422
23.37092,40819
23.38027,38711
23.38960,39759
23.39893,39316
23.40828,39825
23.41762,38647
23.42695,39848
23.43630,40003
23.44563,39006
23.45497,40028
23.46432,39850
23.47365,41812
23.48298,38021
23.49233,38202
23.50167,37228
23.51102,35651
23.52035,36823
23.52968,40742
23.53903,37779
23.54837,39057
23.55770,37509
23.56705,37552
23.57638,37401
23.58572,38997
23.59507,40917
23.60440,39260
23.61373,37208
23.62308,36975
23.63242,34246
23.64175,33645
23.65110,33842
23.66043,33939
23.66977,35678
23.67912,37521
23.68845,38014
23.69780,41326
23.70713,40379
23.71647,42413
23.72582,44986
23.73515,47230
23.74448,50862
23.75383,44411
23.76317,39565
23.77250,36777
23.78185,35951
23.79118,35011
23.80052,35633
23.80987,35550
23.81920,35603
23.82853,34477
23.83788,35431
23.84722,37043
23.85657,34341
23.86590,36714
23.87523,35709
23.88458,35345
23.89392,38036
23.90325,38521
23.91260,39005
23.92193,38365
23.93127,36456
23.94062,36319
23.94995,35850
23.95928,37352
23.96863,38278
23.97797,35605
23.98730,33215
23.99665,34602
24.00598,34866
24.01532,36156
24.02467,37010
24.03400,36609
24.04335,35189
24.05268,33892
24.06202,33823
24.07137,31904
24.08070,33877
24.09003,34516
24.09938,36114
24.10872,36863
24.11805,34811
24.12740,35003
24.13673,34358
24.14607,35077
24.15542,36163
24.16475,34101
24.17408,35292
24.18343,34907
24.19277,33485
24.20210,32875
24.21145,35292
24.22078,33974
24.23013,33563
24.23947,35312
24.24880,34813
24.25815,36032
24.26748,35148
24.27682,35533
24.28617,35566
24.29550,34713
24.30483,34922
24.31418,36115
24.32352,37876
24.33285,39870
24.34220,38837
24.35153,38299
24.36087,36346
24.37022,35777
24.37955,37368
24.38888,38323
24.39823,37682
24.40757,40333
24.41692,37997
24.42625,36794
24.43558,36687
24.44493,36574
24.45427,37624
24.46360,35963
24.47295,34840
24.48228,35330
24.49162,36321
24.50097,36391
24.51030,37204
24.51963,37337
24.52898,36543
24.53832,38697
24.54765,38183
24.55700,40961
24.56633,39368
24.57567,41125
24.58502,36932
24.59435,36198
24.60370,36180
24.61303,39378
24.62237,40143
24.63172,41374
24.64105,37314
24.65038,39245
24.65973,38184
24.66907,38841
24.67840,38827
24.68775,38767
24.69708,36481
24.70642,39176
24.71577,39696
24.72510,40831
24.73443,36877
24.74378,35598
24.75312,39756
24.76247,36754
24.77180,37040
24.78113,39154
24.79048,37415
24.79982,37121
24.80915,38587
24.81850,37153
24.82783,40637
24.83717,38251
24.84652,36937
24.85585,37419
24.86518,38821
24.87453,37819
24.88387,39847
24.89320,38817
24.90255,38899
24.91188,37598
24.92122,39595
24.93057,37689
24.93990,38948
24.94925,39262
24.95858,38747
24.96792,38369
24.97727,40088
24.98660,38674
24.99593,37488
25.00528,39753
25.01462,38492
25.02395,39033
25.03330,37660
25.04263,38866
25.05197,37937
25.06132,37965
25.07065,37235
25.07998,36033
25.08933,38793
25.09867,38074
25.10800,38549
25.11735,38304
25.12668,39038
25.13603,40823
25.14537,40606
25.15470,43904
25.16405,42580
25.17338,41147
25.18272,42981
25.19207,40152
25.20140,40934
25.21073,41147
25.22008,38594
25.22942,40706
25.23875,40597
25.24810,40608
25.25743,39373
25.26677,40780
25.27612,40373
25.28545,41368
25.29478,40725
25.30413,43816
25.31347,45321
25.32282,63587
25.33215,89511
25.34148,105357
25.35083,88771
25.36017,67456
25.36950,62145
25.37885,56255
25.38818,54375
25.39752,51825
25.40687,48632
25.41620,52582
25.42553,49356
25.43488,51907
25.44422,52545
25.45355,51222
25.46290,52025
25.47223,54842
25.48158,54789
25.49092,60370
25.50025,62158
25.50960,64474
25.51893,61850
25.52827,61983
25.53762,60178
25.54695,61292
25.55628,61576
25.56563,58097
25.57497,57555
25.58430,56774
25.59365,53910
25.60298,52528
25.61232,53301
25.62167,51014
25.63100,48442
25.64033,49895
25.64968,52944
25.65902,54976
25.66837,55238
25.67770,53265
25.68703,51912
25.69638,50006
25.70572,49742
25.71505,48096
25.72440,48408
25.73373,48991
25.74307,48309
25.75242,50163
25.76175,48172
25.77108,48926
25.78043,48522
25.78977,49681
25.79910,49817
25.80845,51211
25.81778,51398
25.82712,50924
25.83647,50013
25.84580,49953
25.85515,50278
25.86448,49565
25.87382,47735
25.88317,46171
25.89250,47924
25.90183,46307
25.91118,49114
25.92052,47556
25.92985,49058
25.93920,48753
25.94853,50924
25.95787,51851
25.96722,51693
25.97655,49711
25.98588,48125
25.99523,47574
26.00457,48584
26.01390,46659
26.02325,47351
26.03258,45875
26.04193,48513
26.05127,50646
26.06060,50751
26.06995,47353
26.07928,47796
26.08862,49268
26.09797,50651
26.10730,49673
26.11663,51785
26.12598,49142
26.13532,52253
26.14465,55777
26.15400,60564
26.16333,57365
26.17267,56226
26.18202,53207
26.19135,51372
26.20068,49791
26.21003,47166
26.21937,46257
26.22872,48651
26.23805,46252
26.24738,47074
26.25673,46488
26.26607,44635
26.27540,46704
26.28475,46574
26.29408,48793
26.30342,46781
26.31277,48264
26.32210,48006
26.33143,46588
26.34078,49529
26.35012,46707
26.35945,47775
26.36880,48208
26.37813,48971
26.38747,46890
26.39682,47726
26.40615,47905
26.41550,47638
26.42483,48001
26.43417,48794
26.44352,51072
26.45285,53281
26.46218,53124
26.47153,58211
26.48087,56285
26.49020,56395
26.49955,55065
26.50888,58171
26.51822,57777
26.52757,59601
26.53690,60320
26.54623,61942
26.55558,63495
26.56492,59865
26.57427,60113
26.58360,60323
26.59293,59446
26.60228,60200
26.61162,57054
26.62095,57060
26.63030,55863
26.63963,55810
26.64897,55586
26.65832,55330
26.66765,54252
26.67698,56154
26.68633,55794
26.69567,54307
26.70500,51981
26.71435,51691
26.72368,52193
26.73302,53143
26.74237,52935
26.75170,55067
26.76105,51949
26.77038,53098
26.77972,53519
26.78907,55285
26.79840,53899
26.80773,54107
26.81708,52077
26.82642,51592
26.83575,53901
26.84510,52498
26.85443,54539
26.86377,54170
26.87312,53162
26.88245,55025
26.89178,53495
26.90113,51314
26.91047,52303
26.91980,51873
26.92915,51038
26.93848,50259
26.94783,49871
26.95717,49723
26.96650,48245
26.97585,52736
26.98518,51405
26.99452,51220
27.00387,52934
27.01320,55137
27.02253,54254
27.03188,52913
27.04122,53788
27.05055,54653
27.05990,55582
27.06923,54120
27.07857,53215
27.08792,54437
27.09725,54066
27.10658,51987
27.11593,51814
27.12527,51507
27.13462,54679
27.14395,55770
27.15328,55525
27.16263,55558
27.17197,53219
27.18130,52219
27.19065,51041
27.19998,52781
27.20932,52497
27.21867,53198
27.22800,54595
27.23733,53596
27.24668,56608
27.25602,63595
27.26535,64482
27.27470,64406
27.28403,60227
27.29338,57202
27.30272,56046
27.31205,54445
27.32140,54738
27.33073,55118
27.34007,54384
27.34942,54310
27.35875,55071
27.36808,53340
27.37743,53697
27.38677,51146
27.39610,51588
27.40545,53270
27.41478,53705
27.42412,54091
27.43347,55807
27.44280,55194
27.45213,54989
27.46148,56769
27.47082,56894
27.48017,59584
27.48950,62354
27.49883,67790
27.50818,71980
27.51752,76786
27.52685,77968
27.53620,78498
27.54553,79699
27.55487,78696
27.56422,75401
27.57355,73418
27.58288,70548
27.59223,68478
27.60157,65141
27.61090,62479
27.62025,59716
27.62958,60738
27.63892,59052
27.64827,59578
27.65760,60930
27.66695,60844
27.67628,66274
27.68562,72149
27.69497,68016
27.70430,64813
27.71363,63589
27.72298,59306
27.73232,57704
27.74165,57450
27.75100,55896
27.76033,56160
27.76967,55395
27.77902,56651
27.78835,58976
27.79768,57497
27.80703,58549
27.81637,59804
27.82570,56126
27.83505,57071
27.84438,58935
27.85373,55174
27.86307,55402
27.87240,55896
27.88175,56684
27.89108,56805
27.90042,55747
27.90977,57326
27.91910,56098
27.92843,57648
27.93778,58854
27.94712,58962
27.95645,56804
27.96580,56531
27.97513,55015
27.98447,57503
27.99382,58903
28.00315,55386
28.01248,55265
28.02183,54805
28.03117,52058
28.04052,52125
28.04985,53733
28.05918,54819
28.06853,56239
28.07787,56842
28.08720,54121
28.09655,54663
28.10588,56389
28.11522,59950
28.12457,63310
28.13390,71259
28.14323,70244
28.15258,65216
28.16192,62059
28.17125,63043
28.18060,61435
28.18993,62880
28.19928,58477
28.20862,59628
28.21795,61716
28.22730,60344
28.23663,58265
28.24597,58378
28.25532,59929
28.26465,58985
28.27398,55213
28.28333,59807
28.29267,58974
28.30200,60113
28.31135,55080
28.32068,58178
28.33002,58265
28.33937,57786
28.34870,58835
28.35803,58281
28.36738,58695
28.37672,57590
28.38607,58442
28.39540,61576
28.40473,59787
28.41408,57318
28.42342,59705
28.43275,59235
28.44210,59805
28.45143,60673
28.46077,61131
28.47012,61027
28.47945,61150
28.48878,60603
28.49813,60023
28.50747,60561
28.51680,61547
28.52615,60556
28.53548,61715
28.54482,59332
28.55417,61931
28.56350,59985
28.57285,60530
28.58218,62747
28.59152,63350
28.60087,65354
28.61020,65192
28.61953,65023
28.62888,67094
28.63822,63183
28.64755,63408
28.65690,65307
28.66623,74825
28.67557,91609
28.68492,118088
28.69425,129685
28.70358,116709
28.71293,93668
28.72227,78131
28.73160,74266
28.74095,69431
28.75028,70958
28.75963,68426
28.76897,70307
28.77830,67023
28.78765,67417
28.79698,63764
28.80632,69413
28.81567,65769
28.82500,64145
28.83433,64603
28.84368,66918
28.85302,65533
28.86235,66708
28.87170,68004
28.88103,67076
28.89037,66428
28.89972,66579
28.90905,66280
28.91840,65614
28.92773,67952
28.93707,66768
28.94642,66761
28.95575,69324
28.96508,71968
28.97443,75048
28.98377,73670
28.99310,75586
29.00245,72193
29.01178,71202
29.02112,71133
29.03047,73335
29.03980,68016
29.04913,70583
29.05848,71302
29.06782,68478
29.07715,69219
29.08650,68711
29.09583,70402
29.10518,66917
29.11452,68515
29.12385,72242
29.13320,69665
29.14253,71712
29.15187,69798
29.16122,67136
29.17055,71717
29.17988,73368
29.18923,74347
29.19857,84203
29.20790,100217
29.21725,104743
29.22658,100571
29.23592,89149
29.24527,80380
29.25460,75134
29.26393,75609
29.27328,74778
29.28262,71196
29.29197,72865
29.30130,73310
29.31063,71173
29.31998,71459
29.32932,70574
29.33865,72369
29.34800,70294
29.35733,69153
29.36667,70370
29.37602,69952
29.38535,69525
29.39468,72120
29.40403,71838
29.41337,71522
29.42270,71368
29.43205,71837
29.44138,72813
29.45072,71206
29.46007,74045
29.46940,78419
29.47875,78593
29.48808,79112
29.49742,76285
29.50677,76184
29.51610,72935
29.52543,72555
29.53478,73684
29.54412,75317
29.55345,71179
29.56280,73086
29.57213,71478
29.58147,71563
29.59082,71722
29.60015,72687
29.60948,71954
29.61883,71419
29.62817,71128
29.63750,71379
29.64685,73330
29.65618,70429
29.66553,71742
29.67487,70025
29.68420,70361
29.69355,74278
29.70288,69709
29.71222,71890
29.72157,70965
29.73090,74032
29.74023,75415
29.74958,76594
29.75892,76179
29.76825,76348
29.77760,72245
29.78693,73033
29.79627,71583
29.80562,72259
29.81495,69491
29.82428,71652
29.83363,70150
29.84297,69338
29.85232,69159
29.86165,71908
29.87098,70643
29.88033,70973
29.88967,70121
29.89900,70908
29.90835,70192
29.91768,71796
29.92702,72168
29.93637,71641
29.94570,75436
29.95503,73620
29.96438,76292
29.97372,75388
29.98305,76944
29.99240,81428
30.00173,82561
30.01108,79050
30.02042,76878
30.02975,73443
30.03910,73379
30.04843,72704
30.05777,72850
30.06712,70929
30.07645,73597
30.08578,71774
30.09513,74347
30.10447,74679
30.11380,79582
30.12315,85162
30.13248,90006
30.14182,91707
30.15117,96564
30.16050,99850
30.16983,99916
30.17918,103157
30.18852,101843
30.19787,100860
30.20720,98402
30.21653,91597
30.22588,91666
30.23522,87235
30.24455,81913
30.25390,79097
30.26323,82612
30.27257,78739
30.28192,78870
30.29125,80501
30.30058,79373
30.30993,77954
30.31927,77823
30.32860,75583
30.33795,76933
30.34728,76980
30.35662,82934
30.36597,88096
30.37530,89050
30.38465,94098
30.39398,107709
30.40332,122858
30.41267,139050
30.42200,142706
30.43133,127560
30.44068,113014
30.45002,100060
30.45935,89225
30.46870,87487
30.47803,84815
30.48737,83203
30.49672,81103
30.50605,81827
30.51538,79366
30.52473,77877
30.53407,80379
30.54340,78124
30.55275,78137
30.56208,78798
30.57143,77058
30.58077,81349
30.59010,80209
30.59945,82881
30.60878,85467
30.61812,85275
30.62747,90566
30.63680,96834
30.64613,97816
30.65548,103910
30.66482,105042
30.67415,104082
30.68350,100121
30.69283,94925
30.70217,93202
30.71152,92590
30.72085,90549
30.73020,88469
30.73953,86330
30.74887,83944
30.75822,85336
30.76755,87144
30.77688,85720
30.78623,87246
30.79557,86791
30.80490,88384
30.81425,90048
30.82358,87896
30.83292,87671
30.84227,90181
30.85160,90408
30.86093,90247
30.87028,89842
30.87962,90517
30.88895,93950
30.89830,91463
30.90763,93107
30.91698,91242
30.92632,89969
30.93565,91145
30.94500,90633
30.95433,88600
30.96367,90171
30.97302,90504
30.98235,89275
30.99168,89122
31.00103,88612
31.01037,88008
31.01970,87422
31.02905,87254
31.03838,88526
31.04772,84741
31.05707,86537
31.06640,87303
31.07573,90226
31.08508,88303
31.09442,88267
31.10377,92754
31.11310,93334
31.12243,92039
31.13178,93487
31.14112,94518
31.15045,94273
31.15980,97047
31.16913,98466
31.17847,95943
31.18782,97336
31.19715,94459
31.20648,98282
31.21583,94865
31.22517,96954
31.23450,96439
31.24385,96549
31.25318,94696
31.26252,95761
31.27187,96111
31.28120,94767
31.29055,96654
31.29988,92471
31.30922,92732
31.31857,91100
31.32790,92187
31.33723,91668
31.34658,91708
31.35592,91838
31.36525,91372
