D:\数据\202112114\ZS1E-TJ-000103.D Tue Dec 14 13:42:23 2021
Start of data points
0.09767,27388
0.10700,28249
0.11633,27338
0.12568,25810
0.13502,28207
0.14437,27183
0.15370,27117
0.16303,29037
0.17238,27926
0.18172,27807
0.19105,27265
0.20040,28681
0.20973,27109
0.21907,27519
0.22842,28536
0.23775,27328
0.24708,27552
0.25643,28012
0.26577,26972
0.27510,25718
0.28445,27672
0.29378,27487
0.30312,27282
0.31247,25818
0.32180,27148
0.33115,27948
0.34048,26962
0.34982,26970
0.35917,27140
0.36850,27056
0.37783,26112
0.38718,28301
0.39652,26062
0.40585,27957
0.41520,26743
0.42453,24391
0.43387,21884
0.44322,18656
0.45255,15184
0.46188,9892
0.47123,6503
0.48057,5973
0.48992,5822
0.49925,5701
0.50858,6167
0.51793,6018
0.52727,5219
0.53660,4610
0.54595,6219
0.55528,5242
0.56462,5264
0.57397,4982
0.58330,4944
0.59263,5262
0.60198,5082
0.61132,5821
0.62065,5049
0.63000,4249
0.63933,5642
0.64867,5445
0.65802,4910
0.66735,4673
0.67670,4508
0.68603,4192
0.69537,4846
0.70472,4934
0.71405,4998
0.72338,5105
0.73273,4510
0.74207,4440
0.75140,4802
0.76075,4936
0.77008,4765
0.77942,4830
0.78877,4537
0.79810,4496
0.80743,4887
0.81678,4119
0.82612,5426
0.83545,4650
0.84480,4719
0.85413,4297
0.86348,4003
0.87282,4274
0.88215,4675
0.89150,4675
0.90083,4365
0.91017,4643
0.91952,4659
0.92885,4266
0.93818,5053
0.94753,4775
0.95687,4384
0.96620,3808
0.97555,4074
0.98488,4757
0.99422,4891
1.00357,4213
1.01290,4641
1.02223,5018
1.03158,4793
1.04092,4433
1.05027,4674
1.05960,4389
1.06893,4240
1.07828,4223
1.08762,4469
1.09695,4609
1.10630,4414
1.11563,4573
1.12497,4592
1.13432,4810
1.14365,4676
1.15298,4348
1.16233,5142
1.17167,4137
1.18100,4395
1.19035,4649
1.19968,4474
1.20902,4388
1.21837,4111
1.22770,3984
1.23705,3841
1.24638,4411
1.25572,4331
1.26507,4231
1.27440,4622
1.28373,4276
1.29308,4677
1.30242,4187
1.31175,3840
1.32110,4616
1.33043,4500
1.33977,5107
1.34912,3845
1.35845,4307
1.36778,4427
1.37713,4518
1.38647,4282
1.39582,4291
1.40515,4487
1.41448,4332
1.42383,4062
1.43317,4178
1.44250,4267
1.45185,4616
1.46118,4474
1.47052,4533
1.47987,4204
1.48920,4320
1.49853,4408
1.50788,4137
1.51722,4643
1.52655,4029
1.53590,4288
1.54523,4268
1.55457,4483
1.56392,4282
1.57325,4617
1.58260,4652
1.59193,4787
1.60127,7060
1.61062,13999
1.61995,20679
1.62928,25727
1.63863,33485
1.64797,47544
1.65730,60219
1.66665,61334
1.67598,56028
1.68532,48750
1.69467,40522
1.70400,37327
1.71333,28802
1.72268,22051
1.73202,19469
1.74135,21733
1.75070,25648
1.76003,28263
1.76938,33144
1.77872,36880
1.78805,39020
1.79740,38444
1.80673,39578
1.81607,37982
1.82542,38404
1.83475,36312
1.84408,36882
1.85343,36102
1.86277,38377
1.87210,42359
1.88145,64442
1.89078,106861
1.90012,151622
1.90947,176095
1.91880,229300
1.92813,412485
1.93748,809097
1.94682,1341875
1.95617,1687136
1.96550,1616757
1.97483,1294785
1.98418,949849
1.99352,702874
2.00285,563716
2.01220,516583
2.02153,492005
2.03087,436730
2.04022,330113
2.04955,234576
2.05888,177825
2.06823,138415
2.07757,111713
2.08690,95242
2.09625,82790
2.10558,73949
2.11493,71173
2.12427,73577
2.13360,81893
2.14295,93831
2.15228,102403
2.16162,99320
2.17097,93197
2.18030,96959
2.18963,141557
2.19898,205080
2.20832,175071
2.21765,119112
2.22700,107255
2.23633,157758
2.24567,282195
2.25502,1119971
2.26435,3191439
2.27368,3785095
2.28303,2829065
2.29237,1773093
2.30172,1460687
2.31105,5428136
2.32038,1.645003E+07
2.32973,1.995838E+07
2.33907,1.341504E+07
2.34840,6330919
2.35775,2661951
2.36708,1185647
2.37642,616127
2.38577,391375
2.39510,283129
2.40443,221406
2.41378,189114
2.42312,170637
2.43245,166833
2.44180,152527
2.45113,132030
2.46047,135548
2.46982,184069
2.47915,233331
2.48850,204800
2.49783,149723
2.50717,114119
2.51652,97317
2.52585,86159
2.53518,85186
2.54453,87735
2.55387,114908
2.56320,163558
2.57255,956057
2.58188,943278
2.59122,694069
2.60057,473781
2.60990,344780
2.61923,304393
2.62858,294606
2.63792,258003
2.64725,200305
2.65660,162563
2.66593,135843
2.67528,113886
2.68462,93891
2.69395,81913
2.70330,73549
2.71263,82385
2.72197,120470
2.73132,168970
2.74065,195749
2.74998,226320
2.75933,262532
2.76867,298380
2.77800,346369
2.78735,340984
2.79668,302734
2.80602,252144
2.81537,245604
2.82470,263850
2.83403,239514
2.84338,188273
2.85272,176671
2.86207,200860
2.87140,218009
2.88073,209697
2.89008,170414
2.89942,131608
2.90875,106450
2.91810,100884
2.92743,94444
2.93677,81288
2.94612,75649
2.95545,66725
2.96478,66316
2.97413,63514
2.98347,65359
2.99280,69652
3.00215,91483
3.01148,101551
3.02082,94568
3.03017,81707
3.03950,77403
3.04885,92630
3.05818,130860
3.06752,178297
3.07687,186625
3.08620,147720
3.09553,101180
3.10488,74106
3.11422,64117
3.12355,59859
3.13290,63584
3.14223,67289
3.15157,76353
3.16092,103311
3.17025,121720
3.17958,109482
3.18893,85787
3.19827,70803
3.20762,70040
3.21695,68468
3.22628,67916
3.23563,60466
3.24497,58596
3.25430,59601
3.26365,57696
3.27298,53804
3.28232,56378
3.29167,59964
3.30100,70699
3.31033,75777
3.31968,69222
3.32902,61831
3.33835,60232
3.34770,63685
3.35703,63241
3.36637,65198
3.37572,59485
3.38505,52395
3.39440,49193
3.40373,51252
3.41307,61358
3.42242,69787
3.43175,72073
3.44108,72286
3.45043,76693
3.45977,84932
3.46910,81713
3.47845,71265
3.48778,68552
3.49712,65204
3.50647,60702
3.51580,57719
3.52513,57036
3.53448,57442
3.54382,63730
3.55315,111167
3.56250,257326
3.57183,434086
3.58118,435911
3.59052,294679
3.59985,170630
3.60920,303242
3.61853,273949
3.62787,212445
3.63722,166058
3.64655,130033
3.65588,106072
3.66523,100297
3.67457,101377
3.68390,98573
3.69325,85184
3.70258,74233
3.71192,66519
3.72127,69825
3.73060,71962
3.73993,70802
3.74928,66257
3.75862,62891
3.76797,59534
3.77730,55735
3.78663,52362
3.79598,59736
3.80532,117218
3.81465,277895
3.82400,431477
3.83333,387254
3.84267,229326
3.85202,121729
3.86135,77658
3.87068,65232
3.88003,58944
3.88937,64636
3.89870,67368
3.90805,70622
3.91738,70113
3.92673,71394
3.93607,78461
3.94540,92588
3.95475,134666
3.96408,155966
3.97342,139173
3.98277,112355
3.99210,79407
4.00143,73996
4.01078,82251
4.02012,87142
4.02945,118762
4.03880,294562
4.04813,611066
4.05747,706468
4.06682,493786
4.07615,289158
4.08548,203567
4.09483,177855
4.10417,150003
4.11352,122709
4.12285,94132
4.13218,75038
4.14153,68339
4.15087,65497
4.16020,63466
4.16955,60247
4.17888,57810
4.18822,54193
4.19757,52180
4.20690,56028
4.21623,55662
4.22558,56785
4.23492,57445
4.24425,54302
4.25360,52781
4.26293,52483
4.27227,54898
4.28162,64196
4.29095,75786
4.30030,73386
4.30963,68693
4.31897,78476
4.32832,95002
4.33765,98677
4.34698,85482
4.35633,72646
4.36567,60951
4.37500,53407
4.38435,51661
4.39368,54781
4.40302,54987
4.41237,54524
4.42170,52691
4.43103,47367
4.44038,47052
4.44972,48095
4.45905,51714
4.46840,68974
4.47773,93555
4.48708,99475
4.49642,84968
4.50575,66111
4.51510,56521
4.52443,52338
4.53377,50248
4.54312,52367
4.55245,54982
4.56178,55122
4.57113,56157
4.58047,55976
4.58980,51410
4.59915,49475
4.60848,49638
4.61782,46940
4.62717,45185
4.63650,47753
4.64583,50317
4.65518,55174
4.66452,62961
4.67387,64971
4.68320,81338
4.69253,150428
4.70188,226478
4.71122,241904
4.72055,171928
4.72990,99131
4.73923,83578
4.74857,86955
4.75792,81054
4.76725,72358
4.77658,66646
4.78593,61723
4.79527,57166
4.80460,57745
4.81395,56412
4.82328,54272
4.83263,56064
4.84197,57709
4.85130,55286
4.86065,58517
4.86998,71280
4.87932,95775
4.88867,101974
4.89800,84888
4.90733,64022
4.91668,54916
4.92602,50805
4.93535,51221
4.94470,52056
4.95403,54817
4.96337,53422
4.97272,49091
4.98205,47753
4.99138,46910
5.00073,48131
5.01007,53685
5.01942,57357
5.02875,63990
5.03808,67672
5.04743,66948
5.05677,61264
5.06610,57498
5.07545,57513
5.08478,61728
5.09412,60983
5.10347,58810
5.11280,53464
5.12213,53045
5.13148,53094
5.14082,51241
5.15015,55094
5.15950,60207
5.16883,63825
5.17817,56906
5.18752,54931
5.19685,55943
5.20620,60510
5.21553,56456
5.22487,52583
5.23422,53523
5.24355,54837
5.25288,55619
5.26223,54135
5.27157,67552
5.28090,121179
5.29025,216693
5.29958,267065
5.30892,207768
5.31827,122856
5.32760,76662
5.33693,61936
5.34628,58949
5.35562,56453
5.36495,52409
5.37430,55569
5.38363,56197
5.39298,58108
5.40232,60797
5.41165,59434
5.42100,53534
5.43033,50271
5.43967,47894
5.44902,47357
5.45835,46019
5.46768,46411
5.47703,47542
5.48637,45416
5.49570,45375
5.50505,48692
5.51438,52586
5.52372,58900
5.53307,71423
5.54240,74470
5.55175,69006
5.56108,66057
5.57042,68993
5.57977,73939
5.58910,76760
5.59843,72732
5.60778,62523
5.61712,55716
5.62645,51900
5.63580,50096
5.64513,49438
5.65447,51343
5.66382,53649
5.67315,61430
5.68248,89765
5.69183,86871
5.70117,77855
5.71050,75277
5.71985,76439
5.72918,75828
5.73853,66354
5.74787,66569
5.75720,76317
5.76655,84395
5.77588,104401
5.78522,111308
5.79457,90549
5.80390,71939
5.81323,59355
5.82258,56546
5.83192,61813
5.84125,73338
5.85060,71411
5.85993,58208
5.86927,46915
5.87862,42121
5.88795,36931
5.89728,35389
5.90663,38971
5.91597,63821
5.92532,108158
5.93465,131234
5.94398,121125
5.95333,117245
5.96267,115984
5.97200,100744
5.98135,76277
5.99068,58182
6.00002,47978
6.00937,41427
6.01870,35099
6.02803,32819
6.03738,30592
6.04672,29511
6.05605,33038
6.06540,39812
6.07473,42817
6.08407,38093
6.09342,31084
6.10275,27558
6.11210,26887
6.12143,33405
6.13077,46317
6.14012,63364
6.14945,59584
6.15878,43325
6.16813,31471
6.17747,26280
6.18680,25807
6.19615,27391
6.20548,24196
6.21482,23311
6.22417,24322
6.23350,29853
6.24283,33135
6.25218,29992
6.26152,25653
6.27085,23420
6.28020,24872
6.28953,28628
6.29888,29712
6.30822,25847
6.31755,20833
6.32690,19887
6.33623,18558
6.34557,19447
6.35492,19740
6.36425,20214
6.37358,21618
6.38293,27676
6.39227,65092
6.40160,296635
6.41095,1086409
6.42028,1949849
6.42962,1812866
6.43897,964991
6.44830,342319
6.45763,110313
6.46698,52551
6.47632,38561
6.48567,34465
6.49500,30399
6.50433,28091
6.51368,27659
6.52302,26989
6.53235,25561
6.54170,25247
6.55103,20629
6.56037,21150
6.56972,20830
6.57905,20449
6.58838,21669
6.59773,21906
6.60707,25310
6.61640,27400
6.62575,29230
6.63508,31056
6.64443,31915
6.65377,29993
6.66310,32295
6.67245,32450
6.68178,30736
6.69112,27279
6.70047,34253
6.70980,49847
6.71913,51379
6.72848,46253
6.73782,38323
6.74715,32083
6.75650,28255
6.76583,25958
6.77517,25383
6.78452,27968
6.79385,30605
6.80318,34603
6.81253,34789
6.82187,31730
6.83122,27912
6.84055,27448
6.84988,28083
6.85923,27815
6.86857,28761
6.87790,26670
6.88725,25389
6.89658,23335
6.90592,22823
6.91527,29425
6.92460,35224
6.93393,31709
6.94328,29980
6.95262,26615
6.96195,27422
6.97130,26664
6.98063,27649
6.98997,28759
6.99932,25822
7.00865,25520
7.01800,21997
7.02733,22514
7.03667,19697
7.04602,18723
7.05535,17572
7.06468,17596
7.07403,18698
7.08337,18954
7.09270,21439
7.10205,24506
7.11138,26923
7.12072,29135
7.13007,29039
7.13940,27217
7.14873,26012
7.15808,21521
7.16742,20424
7.17675,19664
7.18610,21120
7.19543,21922
7.20478,23901
7.21412,24122
7.22345,26452
7.23280,38135
7.24213,66152
7.25147,83433
7.26082,69282
7.27015,44261
7.27948,32426
7.28883,28758
7.29817,27758
7.30750,26754
7.31685,24173
7.32618,19555
7.33552,20632
7.34487,20615
7.35420,21216
7.36355,20848
7.37288,20997
7.38222,22484
7.39157,32984
7.40090,70318
7.41023,125032
7.41958,159545
7.42892,136630
7.43825,88146
7.44760,49531
7.45693,30579
7.46627,25572
7.47562,22405
7.48495,26662
7.49428,35535
7.50363,38368
7.51297,33687
7.52230,26255
7.53165,21404
7.54098,20732
7.55033,18938
7.55967,21646
7.56900,23421
7.57835,25569
7.58768,26779
7.59702,30123
7.60637,33556
7.61570,36602
7.62503,36344
7.63438,36290
7.64372,32599
7.65305,29710
7.66240,26200
7.67173,25449
7.68107,26311
7.69042,27158
7.69975,27749
7.70908,26796
7.71843,26554
7.72777,27852
7.73712,26353
7.74645,28850
7.75578,33306
7.76513,36763
7.77447,34348
7.78380,35644
7.79315,35806
7.80248,33954
7.81182,29619
7.82117,25836
7.83050,26814
7.83983,29362
7.84918,32792
7.85852,45244
7.86785,81755
7.87720,124505
7.88653,126854
7.89587,94908
7.90522,69147
7.91455,72410
7.92390,86957
7.93323,93003
7.94257,83504
7.95192,102619
7.96125,119305
7.97058,103876
7.97993,78681
7.98927,61198
7.99860,51736
8.00795,43658
8.01728,38181
8.02662,39920
8.03597,59652
8.04530,104404
8.05463,134967
8.06398,105008
8.07332,59077
8.08265,38331
8.09200,49520
8.10133,80348
8.11068,87657
8.12002,65934
8.12935,45816
8.13870,36633
8.14803,33249
8.15737,32912
8.16672,31489
8.17605,30671
8.18538,28108
8.19473,28463
8.20407,30791
8.21340,33726
8.22275,32618
8.23208,28810
8.24142,30959
8.25077,34598
8.26010,34240
8.26945,32365
8.27878,27545
8.28812,26221
8.29747,25138
8.30680,27768
8.31613,26754
8.32548,26923
8.33482,27095
8.34415,28470
8.35350,26995
8.36283,25625
8.37217,22709
8.38152,26951
8.39085,38196
8.40018,44558
8.40953,44055
8.41887,43846
8.42820,44470
8.43755,40788
8.44688,39642
8.45623,36034
8.46557,31775
8.47490,30706
8.48425,29762
8.49358,29343
8.50292,28479
8.51227,26912
8.52160,26403
8.53093,26904
8.54028,27910
8.54962,29715
8.55895,30130
8.56830,30529
8.57763,36497
8.58697,38098
8.59632,39558
8.60565,38341
8.61498,37019
8.62433,35316
8.63367,34695
8.64302,31864
8.65235,31031
8.66168,31340
8.67103,31979
8.68037,32202
8.68970,30094
8.69905,28352
8.70838,29557
8.71772,27603
8.72707,26773
8.73640,26591
8.74573,28500
8.75508,34198
8.76442,38791
8.77375,36792
8.78310,32656
8.79243,34339
8.80177,47352
8.81112,70058
8.82045,78633
8.82980,68683
8.83913,44177
8.84847,34247
8.85782,29805
8.86715,31148
8.87648,33309
8.88583,33005
8.89517,34192
8.90450,33572
8.91385,31266
8.92318,31311
8.93252,31914
8.94187,29646
8.95120,28026
8.96053,26732
8.96988,27940
8.97922,29378
8.98857,30878
8.99790,32092
9.00723,33504
9.01658,36278
9.02592,35250
9.03525,33403
9.04460,35183
9.05393,36922
9.06327,38290
9.07262,38266
9.08195,41998
9.09128,42665
9.10063,41980
9.10997,38956
9.11930,37130
9.12865,36363
9.13798,43195
9.14732,46434
9.15667,43095
9.16600,35299
9.17535,29675
9.18468,29230
9.19402,29778
9.20337,30218
9.21270,39163
9.22203,74052
9.23138,127611
9.24072,150437
9.25005,123278
9.25940,81523
9.26873,57057
9.27807,44769
9.28742,44254
9.29675,41402
9.30608,38424
9.31543,37420
9.32477,40335
9.33410,50669
9.34345,55864
9.35278,48188
9.36213,66479
9.37147,132615
9.38080,209090
9.39015,206158
9.39948,147093
9.40882,93871
9.41817,62272
9.42750,55292
9.43683,51744
9.44618,45284
9.45552,37851
9.46485,32228
9.47420,30187
9.48353,30429
9.49287,32782
9.50222,38291
9.51155,41968
9.52088,39678
9.53023,42434
9.53957,46836
9.54892,53682
9.55825,63620
9.56758,81714
9.57693,86450
9.58627,65266
9.59560,48023
9.60495,46590
9.61428,45645
9.62362,40082
9.63297,39967
9.64230,41927
9.65163,42439
9.66098,43365
9.67032,42242
9.67965,38736
9.68900,37108
9.69833,33487
9.70767,30999
9.71702,38890
9.72635,110980
9.73570,489423
9.74503,1340254
9.75437,1951471
9.76372,1569586
9.77305,793344
9.78238,344264
9.79173,193928
9.80107,141199
9.81040,111348
9.81975,97166
9.82908,97696
9.83842,101923
9.84777,106063
9.85710,100564
9.86643,84702
9.87578,72578
9.88512,74992
9.89447,88717
9.90380,91678
9.91313,79766
9.92248,73375
9.93182,69228
9.94115,62691
9.95050,53367
9.95983,48945
9.96917,57433
9.97852,133878
9.98785,326600
9.99718,517769
10.00653,449132
10.01587,242667
10.02520,99967
10.03455,55491
10.04388,44395
10.05322,45617
10.06257,47189
10.07190,60990
10.08125,70753
10.09058,71104
10.09992,61383
10.10927,66614
10.11860,140809
10.12793,371411
10.13728,613774
10.14662,663479
10.15595,891229
10.16530,1790774
10.17463,2509622
10.18397,1781477
10.19332,660776
10.20265,158585
10.21198,60967
10.22133,52900
10.23067,55831
10.24000,63915
10.24935,87597
10.25868,93270
10.26803,74767
10.27737,52720
10.28670,42183
10.29605,41796
10.30538,39066
10.31472,40894
10.32407,43713
10.33340,41790
10.34273,39653
10.35208,41127
10.36142,45109
10.37075,51575
10.38010,47668
10.38943,40352
10.39877,33103
10.40812,32431
10.41745,38055
10.42678,41559
10.43613,47660
10.44547,44434
10.45482,42052
10.46415,47997
10.47348,58133
10.48283,57041
10.49217,50405
10.50150,40799
10.51085,34544
10.52018,34007
10.52952,34178
10.53887,34829
10.54820,35327
10.55753,36119
10.56688,37847
10.57622,37234
10.58555,38305
10.59490,39152
10.60423,39821
10.61358,39608
10.62292,38366
10.63225,40150
10.64160,46291
10.65093,45806
10.66027,40095
10.66962,36034
10.67895,39744
10.68828,44686
10.69763,45315
10.70697,40292
10.71630,44375
10.72565,46478
10.73498,46476
10.74432,55598
10.75367,115866
10.76300,271015
10.77233,387811
10.78168,315395
10.79102,232415
10.80037,289775
10.80970,443787
10.81903,439688
10.82838,272567
10.83772,118258
10.84705,58273
10.85640,44333
10.86573,43659
10.87507,47521
10.88442,59949
10.89375,64949
10.90308,57269
10.91243,47349
10.92177,44360
10.93110,46374
10.94045,50247
10.94978,51162
10.95912,47626
10.96847,42784
10.97780,40170
10.98715,37013
10.99648,33038
11.00582,33000
11.01517,34379
11.02450,33855
11.03383,36482
11.04318,35609
11.05252,33556
11.06185,34055
11.07120,37497
11.08053,41681
11.08987,38927
11.09922,37876
11.10855,44360
11.11788,57145
11.12723,60831
11.13657,57201
11.14590,56324
11.15525,53599
11.16458,47005
11.17393,41622
11.18327,37866
11.19260,38028
11.20195,34627
11.21128,35278
11.22062,38083
11.22997,38182
11.23930,38913
11.24863,36512
11.25798,36850
11.26732,42999
11.27665,46757
11.28600,39783
11.29533,35714
11.30467,34092
11.31402,33535
11.32335,33967
11.33268,40157
11.34203,49475
11.35137,62247
11.36072,75514
11.37005,75514
11.37938,62837
11.38873,51701
11.39807,48895
11.40740,54198
11.41675,55441
11.42608,48338
11.43542,41524
11.44477,36077
11.45410,36243
11.46343,40441
11.47278,50093
11.48212,53931
11.49145,45042
11.50080,38055
11.51013,35413
11.51947,34422
11.52882,34616
11.53815,51660
11.54750,120581
11.55683,237316
11.56617,289647
11.57552,232327
11.58485,174468
11.59418,143006
11.60353,106412
11.61287,77784
11.62220,62850
11.63155,55802
11.64088,52641
11.65022,51280
11.65957,60024
11.66890,63714
11.67823,59378
11.68758,49866
11.69692,45659
11.70627,44147
11.71560,43335
11.72493,42162
11.73428,41320
11.74362,38375
11.75295,38069
11.76230,40836
11.77163,40509
11.78097,45527
11.79032,50143
11.79965,51076
11.80898,46963
11.81833,42909
11.82767,44805
11.83700,44117
11.84635,43445
11.85568,43902
11.86502,43755
11.87437,43407
11.88370,42857
11.89305,43833
11.90238,40722
11.91172,40071
11.92107,38684
11.93040,38576
11.93973,45626
11.94908,58596
11.95842,65894
11.96775,58136
11.97710,44156
11.98643,37368
11.99577,36294
12.00512,43479
12.01445,57486
12.02378,69551
12.03313,67067
12.04247,61685
12.05180,54150
12.06115,49583
12.07048,40336
12.07983,35901
12.08917,35998
12.09850,36259
12.10785,37187
12.11718,36859
12.12652,36188
12.13587,35558
12.14520,37737
12.15453,37897
12.16388,46348
12.17322,64349
12.18255,99486
12.19190,107961
12.20123,74962
12.21057,47577
12.21992,43139
12.22925,48379
12.23858,51808
12.24793,47951
12.25727,43785
12.26662,45084
12.27595,68884
12.28528,109632
12.29463,126561
12.30397,85480
12.31330,57673
12.32265,46365
12.33198,45229
12.34132,48483
12.35067,49726
12.36000,46823
12.36933,43183
12.37868,45126
12.38802,48891
12.39735,55817
12.40670,55378
12.41603,52327
12.42538,44640
12.43472,42041
12.44405,40846
12.45340,37154
12.46273,36439
12.47207,40482
12.48142,42152
12.49075,42231
12.50008,44342
12.50943,46539
12.51877,46185
12.52810,45442
12.53745,45050
12.54678,47451
12.55612,51060
12.56547,55883
12.57480,56441
12.58413,50855
12.59348,45840
12.60282,41377
12.61217,40764
12.62150,54605
12.63083,79244
12.64018,105036
12.64952,113649
12.65885,120199
12.66820,131911
12.67753,128247
12.68687,95930
12.69622,59848
12.70555,43262
12.71488,44081
12.72423,48643
12.73357,49309
12.74290,44775
12.75225,46954
12.76158,53157
12.77092,54050
12.78027,47329
12.78960,46243
12.79895,46044
12.80828,45453
12.81762,45359
12.82697,42421
12.83630,45308
12.84563,40785
12.85498,37049
12.86432,36686
12.87365,35269
12.88300,35639
12.89233,31900
12.90167,35914
12.91102,37744
12.92035,38264
12.92968,34829
12.93903,32801
12.94837,34114
12.95770,36141
12.96705,35387
12.97638,36438
12.98573,32736
12.99507,33512
13.00440,34184
13.01375,37672
13.02308,38399
13.03242,46933
13.04177,51147
13.05110,48431
13.06043,44002
13.06978,51914
13.07912,57275
13.08845,54446
13.09780,48098
13.10713,41860
13.11647,39979
13.12582,39562
13.13515,41480
13.14448,45936
13.15383,47895
13.16317,49692
13.17252,51355
13.18185,51133
13.19118,55046
13.20053,112429
13.20987,264150
13.21920,419077
13.22855,402249
13.23788,235099
13.24722,128867
13.25657,105239
13.26590,92768
13.27523,76523
13.28458,70049
13.29392,62523
13.30325,54481
13.31260,50997
13.32193,55816
13.33127,57173
13.34062,54676
13.34995,54313
13.35930,52154
13.36863,48211
13.37797,44899
13.38732,41770
13.39665,46402
13.40598,53104
13.41533,53174
13.42467,43020
13.43400,41132
13.44335,47212
13.45268,52055
13.46202,47135
13.47137,49218
13.48070,49094
13.49003,48269
13.49938,47728
13.50872,45105
13.51807,58612
13.52740,86717
13.53673,113287
13.54608,97520
13.55542,62692
13.56475,43036
13.57410,35572
13.58343,34590
13.59277,34047
13.60212,34198
13.61145,35918
13.62078,34654
13.63013,34488
13.63947,40853
13.64880,50387
13.65815,54934
13.66748,51199
13.67682,41899
13.68617,38480
13.69550,37413
13.70485,40077
13.71418,39942
13.72352,37489
13.73287,31033
13.74220,30675
13.75153,29912
13.76088,31235
13.77022,31843
13.77955,31149
13.78890,31051
13.79823,34309
13.80757,41350
13.81692,44824
13.82625,43876
13.83558,34734
13.84493,32162
13.85427,31436
13.86360,33100
13.87295,35915
13.88228,42709
13.89163,53998
13.90097,81647
13.91030,137162
13.91965,225968
13.92898,269686
13.93832,191623
13.94767,95087
13.95700,62197
13.96633,56803
13.97568,51690
13.98502,44416
13.99435,40464
14.00370,40796
14.01303,41760
14.02237,38114
14.03172,35406
14.04105,52000
14.05038,225117
14.05973,1223072
14.06907,3847562
14.07842,6243016
14.08775,5149081
14.09708,2032071
14.10643,412948
14.11577,90606
14.12510,53033
14.13445,47672
14.14378,46243
14.15312,47275
14.16247,51494
14.17180,54822
14.18113,56298
14.19048,61861
14.19982,70467
14.20915,75167
14.21850,59744
14.22783,42887
14.23718,37116
14.24652,32999
14.25585,33670
14.26520,35338
14.27453,38938
14.28387,40973
14.29322,36333
14.30255,32875
14.31188,36680
14.32123,43522
14.33057,57320
14.33990,65663
14.34925,57713
14.35858,47769
14.36792,42982
14.37727,35667
14.38660,34688
14.39593,37244
14.40528,34086
14.41462,33666
14.42397,32790
14.43330,30996
14.44263,33800
14.45198,46096
14.46132,63553
14.47065,82753
14.48000,82336
14.48933,66542
14.49867,49342
14.50802,38097
14.51735,33293
14.52668,31635
14.53603,28779
14.54537,31699
14.55470,34356
14.56405,38026
14.57338,40094
14.58272,39256
14.59207,36044
14.60140,34304
14.61075,33564
14.62008,33871
14.62942,35809
14.63877,47026
14.64810,67068
14.65743,95142
14.66678,103016
14.67612,83749
14.68545,61886
14.69480,48324
14.70413,41557
14.71347,38702
14.72282,36131
14.73215,36664
14.74148,34989
14.75083,34947
14.76017,36043
14.76950,37164
14.77885,43517
14.78818,47807
14.79753,58351
14.80687,60939
14.81620,56045
14.82555,48791
14.83488,39307
14.84422,33795
14.85357,33978
14.86290,39369
14.87223,45874
14.88158,52070
14.89092,46081
14.90025,39426
14.90960,37881
14.91893,36568
14.92827,39413
14.93762,39619
14.94695,39924
14.95628,40353
14.96563,39904
14.97497,42659
14.98432,44673
14.99365,39367
15.00298,40547
15.01233,41652
15.02167,47414
15.03100,43123
15.04035,37829
15.04968,39602
15.05902,45969
15.06837,45551
15.07770,44951
15.08703,41571
15.09638,36613
15.10572,31516
15.11505,34865
15.12440,38403
15.13373,48965
15.14308,51053
15.15242,46209
15.16175,40025
15.17110,36205
15.18043,35392
15.18977,38040
15.19912,47745
15.20845,63683
15.21778,87793
15.22713,100690
15.23647,88692
15.24580,68662
15.25515,53025
15.26448,42814
15.27382,39600
15.28317,38744
15.29250,41973
15.30183,39131
15.31118,37711
15.32052,37546
15.32987,38763
15.33920,42243
15.34853,44163
15.35788,45395
15.36722,45550
15.37655,50798
15.38590,47239
15.39523,42542
15.40457,35581
15.41392,33031
15.42325,36803
15.43258,39101
15.44193,38124
15.45127,36963
15.46060,36331
15.46995,34815
15.47928,35716
15.48862,35311
15.49797,36025
15.50730,43715
15.51665,59308
15.52598,72950
15.53532,77038
15.54467,64574
15.55400,48629
15.56333,36687
15.57268,35028
15.58202,32809
15.59135,31200
15.60070,33100
15.61003,36035
15.61937,37722
15.62872,41859
15.63805,49261
15.64738,49486
15.65673,49619
15.66607,51012
15.67540,54176
15.68475,66280
15.69408,84852
15.70343,94971
15.71277,88438
15.72210,68046
15.73145,48255
15.74078,41027
15.75012,46670
15.75947,54215
15.76880,58168
15.77813,54000
15.78748,45944
15.79682,41488
15.80615,55012
15.81550,105118
15.82483,236461
15.83417,405192
15.84352,458482
15.85285,355244
15.86220,210552
15.87153,110974
15.88087,78328
15.89022,75272
15.89955,79790
15.90888,80902
15.91823,70145
15.92757,59079
15.93690,48380
15.94625,42956
15.95558,40800
15.96492,42100
15.97427,44106
15.98360,56116
15.99293,68236
16.00228,78210
16.01162,66710
16.02095,53016
16.03030,43683
16.03963,40389
16.04898,40793
16.05832,44028
16.06765,45848
16.07700,46294
16.08633,43629
16.09567,44155
16.10502,43991
16.11435,46817
16.12368,51039
16.13303,50388
16.14237,47060
16.15170,42269
16.16105,40156
16.17038,40456
16.17972,38046
16.18907,40488
16.19840,43914
16.20773,50468
16.21708,55313
16.22642,57759
16.23577,56810
16.24510,54383
16.25443,47997
16.26378,44380
16.27312,44110
16.28245,60089
16.29180,103906
16.30113,176523
16.31047,195427
16.31982,144151
16.32915,79716
16.33848,49180
16.34783,39860
16.35717,35074
16.36650,34622
16.37585,31643
16.38518,33382
16.39452,32623
16.40387,35357
16.41320,36921
16.42255,38476
16.43188,40556
16.44122,38700
16.45057,42023
16.45990,47141
16.46923,49251
16.47858,44364
16.48792,42044
16.49725,40300
16.50660,37818
16.51593,42614
16.52527,43605
16.53462,43653
16.54395,40909
16.55328,40085
16.56263,37018
16.57197,35259
16.58130,34479
16.59065,39676
16.59998,37255
16.60933,37158
16.61867,37903
16.62800,41463
16.63735,46682
16.64668,47852
16.65602,45525
16.66537,39703
16.67470,39959
16.68403,40423
16.69338,45943
16.70272,50572
16.71205,52819
16.72140,44511
16.73073,38388
16.74007,44359
16.74942,68192
16.75875,91034
16.76808,85470
16.77743,56557
16.78677,40314
16.79612,35678
16.80545,38021
16.81478,43091
16.82413,49495
16.83347,53306
16.84280,52678
16.85215,50705
16.86148,44153
16.87082,38240
16.88017,36216
16.88950,36396
16.89883,38503
16.90818,42833
16.91752,51748
16.92685,59259
16.93620,52326
16.94553,47880
16.95488,51634
16.96422,55622
16.97355,56223
16.98290,51475
16.99223,48381
17.00157,43518
17.01092,41149
17.02025,42066
17.02958,57166
17.03893,78076
17.04827,77824
17.05760,61149
17.06695,48546
17.07628,45700
17.08562,42840
17.09497,41118
17.10430,40590
17.11363,39613
17.12298,37261
17.13232,36880
17.14167,42297
17.15100,38951
17.16033,38354
17.16968,33082
17.17902,35392
17.18835,36003
17.19770,36160
17.20703,34012
17.21637,34841
17.22572,33997
17.23505,34277
17.24438,34026
17.25373,36782
17.26307,40531
17.27240,41278
17.28175,46416
17.29108,49475
17.30042,48722
17.30977,44157
17.31910,46014
17.32845,50801
17.33778,48816
17.34712,42600
17.35647,39170
17.36580,39502
17.37513,53114
17.38448,99743
17.39382,153725
17.40315,147385
17.41250,97441
17.42183,66522
17.43117,53973
17.44052,46864
17.44985,44587
17.45918,44936
17.46853,45196
17.47787,42248
17.48720,56414
17.49655,172332
17.50588,679126
17.51523,1671035
17.52457,2094243
17.53390,1322197
17.54325,436979
17.55258,108879
17.56192,54616
17.57127,51683
17.58060,55334
17.58993,56750
17.59928,53477
17.60862,47225
17.61795,43326
17.62730,41788
17.63663,42474
17.64597,43799
17.65532,44075
17.66465,46919
17.67400,53113
17.68333,55411
17.69267,61425
17.70202,69379
17.71135,83493
17.72068,115013
17.73003,134762
17.73937,104532
17.74870,67356
17.75805,53568
17.76738,54010
17.77672,56100
17.78607,54591
17.79540,51832
17.80473,49276
17.81408,47348
17.82342,40284
17.83275,39595
17.84210,40396
17.85143,44191
17.86078,52185
17.87012,56663
17.87945,58177
17.88880,53667
17.89813,46423
17.90747,41704
17.91682,38018
17.92615,38779
17.93548,43153
17.94483,43421
17.95417,42868
17.96350,40152
17.97285,38270
17.98218,39895
17.99152,37508
18.00087,38385
18.01020,39410
18.01953,38899
18.02888,37943
18.03822,41747
18.04757,52058
18.05690,72952
18.06623,84427
18.07558,76223
18.08492,54148
18.09425,41187
18.10360,41107
18.11293,48172
18.12227,52715
18.13162,55256
18.14095,49682
18.15028,44126
18.15963,46031
18.16897,45678
18.17830,45457
18.18765,46220
18.19698,44294
18.20632,42502
18.21567,39718
18.22500,41163
18.23435,41029
18.24368,40045
18.25302,39331
18.26237,35997
18.27170,36826
18.28103,40456
18.29038,46568
18.29972,48515
18.30905,51382
18.31840,52134
18.32773,52134
18.33707,49391
18.34642,50811
18.35575,56814
18.36508,60925
18.37443,61165
18.38377,57005
18.39310,56325
18.40245,49013
18.41178,48341
18.42113,43107
18.43047,42472
18.43980,43511
18.44915,47739
18.45848,49248
18.46782,45600
18.47717,43270
18.48650,44626
18.49583,49843
18.50518,64650
18.51452,72001
18.52385,73657
18.53320,64325
18.54253,50835
18.55187,52637
18.56122,61783
18.57055,139358
18.57990,492102
18.58923,1248014
18.59857,1659639
18.60792,1133415
18.61725,425255
18.62658,118257
18.63593,60838
18.64527,52767
18.65460,52402
18.66395,47614
18.67328,48272
18.68262,52010
18.69197,53033
18.70130,56038
18.71063,58434
18.71998,59879
18.72932,58694
18.73865,54172
18.74800,52415
18.75733,48898
18.76668,45244
18.77602,41952
18.78535,40355
18.79470,38325
18.80403,38012
18.81337,37850
18.82272,41477
18.83205,39130
18.84138,39449
18.85073,38665
18.86007,38837
18.86940,38155
18.87875,37773
18.88808,38808
18.89742,40830
18.90677,47709
18.91610,54860
18.92543,61701
18.93478,55237
18.94412,50540
18.95347,52603
18.96280,59205
18.97213,65831
18.98148,67840
18.99082,60508
19.00015,50705
19.00950,44703
19.01883,42237
19.02817,42763
19.03752,43837
19.04685,55086
19.05618,71733
19.06553,83773
19.07487,98910
19.08420,126197
19.09355,141809
19.10288,118518
19.11222,80450
19.12157,52366
19.13090,42575
19.14025,39470
19.14958,36734
19.15892,35607
19.16827,36632
19.17760,35889
19.18693,36701
19.19628,42862
19.20562,49316
19.21495,55192
19.22430,51718
19.23363,48992
19.24297,45684
19.25232,42350
19.26165,41142
19.27098,39096
19.28033,42142
19.28967,46392
19.29902,49020
19.30835,56377
19.31768,70777
19.32703,75930
19.33637,62750
19.34570,51849
19.35505,45887
19.36438,39019
19.37372,37550
19.38307,36785
19.39240,44786
19.40173,62243
19.41108,82728
19.42042,74293
19.42975,55104
19.43910,39766
19.44843,36861
19.45777,36569
19.46712,36859
19.47645,37565
19.48580,40838
19.49513,42221
19.50447,42223
19.51382,38154
19.52315,36429
19.53248,37701
19.54183,41577
19.55117,37871
19.56050,37018
19.56985,39200
19.57918,40154
19.58852,44411
19.59787,45638
19.60720,43409
19.61653,42550
19.62588,40124
19.63522,43096
19.64455,46623
19.65390,44075
19.66323,40631
19.67258,37636
19.68192,39349
19.69125,43530
19.70060,52199
19.70993,59099
19.71927,58944
19.72862,61838
19.73795,65198
19.74728,61519
19.75663,53209
19.76597,46927
19.77530,47131
19.78465,47624
19.79398,47349
19.80332,43716
19.81267,41008
19.82200,38135
19.83133,38856
19.84068,38999
19.85002,37328
19.85937,37527
19.86870,41411
19.87803,51951
19.88738,61289
19.89672,56403
19.90605,45114
19.91540,39902
19.92473,37924
19.93407,41808
19.94342,38844
19.95275,36294
19.96208,39859
19.97143,41974
19.98077,40291
19.99010,38612
19.99945,36883
20.00878,36169
20.01812,36962
20.02747,38819
20.03680,42669
20.04615,40005
20.05548,41720
20.06482,40923
20.07417,40533
20.08350,43871
20.09283,42450
20.10218,41044
20.11152,40270
20.12085,35903
20.13020,33930
20.13953,36525
20.14887,40763
20.15822,46037
20.16755,48465
20.17688,44376
20.18623,41603
20.19557,36873
20.20490,37537
20.21425,38192
20.22358,43295
20.23293,73234
20.24227,208587
20.25160,469929
20.26095,578083
20.27028,379438
20.27962,152174
20.28897,61078
20.29830,45109
20.30763,41965
20.31698,39326
20.32632,36955
20.33565,34780
20.34500,34575
20.35433,34948
20.36367,35368
20.37302,35634
20.38235,37961
20.39170,35594
20.40103,35257
20.41037,34513
20.41972,34610
20.42905,35092
20.43838,33723
20.44773,33762
20.45707,35892
20.46640,39567
20.47575,46296
20.48508,48537
20.49442,42764
20.50377,40041
20.51310,39214
20.52243,34985
20.53178,35892
20.54112,35125
20.55045,38809
20.55980,46465
20.56913,79199
20.57848,162216
20.58782,223948
20.59715,179349
20.60650,99217
20.61583,57246
20.62517,43899
20.63452,42660
20.64385,43087
20.65318,42866
20.66253,41441
20.67187,38990
20.68120,38425
20.69055,39452
20.69988,38711
20.70922,37579
20.71857,39216
20.72790,40486
20.73723,40833
20.74658,41275
20.75592,40656
20.76527,38788
20.77460,35382
20.78393,36628
20.79328,37462
20.80262,39821
20.81195,42509
20.82130,40268
20.83063,40316
20.83997,36962
20.84932,35464
20.85865,34997
20.86798,33859
20.87733,33366
20.88667,33265
20.89600,35009
20.90535,36085
20.91468,38291
20.92402,38127
20.93337,35390
20.94270,37016
20.95205,35994
20.96138,32833
20.97072,33505
20.98007,35106
20.98940,35565
20.99873,33031
21.00808,35316
21.01742,35379
21.02675,34918
21.03610,33700
21.04543,34562
21.05477,37189
21.06412,36910
21.07345,37112
21.08278,35703
21.09213,34428
21.10147,35168
21.11082,37400
21.12015,36908
21.12948,39061
21.13883,37974
21.14817,36076
21.15750,36245
21.16685,36356
21.17618,41383
21.18552,48138
21.19487,52168
21.20420,47717
21.21353,41856
21.22288,39438
21.23222,36961
21.24155,35425
21.25090,35411
21.26023,34391
21.26957,36727
21.27892,42228
21.28825,49370
21.29760,50229
21.30693,47352
21.31627,41429
21.32562,40427
21.33495,43757
21.34428,43546
21.35363,41419
21.36297,40322
21.37230,37151
21.38165,38161
21.39098,39657
21.40032,40209
21.40967,38489
21.41900,41802
21.42833,42158
21.43768,40258
21.44702,37004
21.45635,37576
21.46570,37323
21.47503,38010
21.48438,38603
21.49372,39938
21.50305,45172
21.51240,45237
21.52173,43644
21.53107,41014
21.54042,39355
21.54975,38715
21.55908,46050
21.56843,61212
21.57777,80721
21.58710,85414
21.59645,62959
21.60578,48528
21.61512,42449
21.62447,41616
21.63380,42019
21.64313,42460
21.65248,39040
21.66182,37616
21.67117,38891
21.68050,46257
21.68983,49886
21.69918,49211
21.70852,46761
21.71785,47380
21.72720,46509
21.73653,46669
21.74587,43754
21.75522,38587
21.76455,37869
21.77388,35839
21.78323,36037
21.79257,36283
21.80190,39879
21.81125,45060
21.82058,47911
21.82992,48448
21.83927,46371
21.84860,40451
21.85795,38763
21.86728,40764
21.87662,41003
21.88597,45269
21.89530,48005
21.90463,48143
21.91398,45030
21.92332,42093
21.93265,40561
21.94200,39959
21.95133,37761
21.96067,41540
21.97002,47372
21.97935,51872
21.98868,59273
21.99803,62740
22.00737,60259
22.01672,54240
22.02605,48568
22.03538,43851
22.04473,49817
22.05407,53277
22.06340,52803
22.07275,52296
22.08208,49932
22.09142,49025
22.10077,45867
22.11010,42685
22.11943,41731
22.12878,41432
22.13812,40481
22.14745,41081
22.15680,45853
22.16613,57075
22.17547,65947
22.18482,62531
22.19415,52404
22.20350,48218
22.21283,45249
22.22217,44467
22.23152,49125
22.24085,50348
22.25018,49458
22.25953,46066
22.26887,48681
22.27820,60174
22.28755,70796
22.29688,74398
22.30622,68979
22.31557,58268
22.32490,49891
22.33423,44715
22.34358,45790
22.35292,52819
22.36225,60553
22.37160,65106
22.38093,69127
22.39028,68022
22.39962,60225
22.40895,52740
22.41830,49393
22.42763,50342
22.43697,58890
22.44632,61005
22.45565,58648
22.46498,52796
22.47433,48880
22.48367,46975
22.49300,47302
22.50235,62636
22.51168,98290
22.52102,140825
22.53037,127607
22.53970,83177
22.54903,57819
22.55838,49477
22.56772,51702
22.57707,55012
22.58640,59974
22.59573,54799
22.60508,56152
22.61442,58279
22.62375,59616
22.63310,57091
22.64243,51686
22.65177,49969
22.66112,44495
22.67045,43481
22.67978,47473
22.68913,55861
22.69847,59593
22.70780,60050
22.71715,53850
22.72648,52203
22.73583,57224
22.74517,61227
22.75450,59326
22.76385,56265
22.77318,54982
22.78252,50983
22.79187,50674
22.80120,59473
22.81053,68139
22.81988,64371
22.82922,59224
22.83855,54398
22.84790,54202
22.85723,50790
22.86657,49917
22.87592,49410
22.88525,54081
22.89458,51987
22.90393,50929
22.91327,53106
22.92262,56243
22.93195,59582
22.94128,56775
22.95063,52470
22.95997,50127
22.96930,45573
22.97865,46329
22.98798,42733
22.99732,43397
23.00667,42248
23.01600,41924
23.02533,40543
23.03468,42855
23.04402,41877
23.05335,42005
23.06270,43406
23.07203,39949
23.08137,42509
23.09072,39942
23.10005,39040
23.10940,39693
23.11873,39938
23.12807,40091
23.13742,40063
23.14675,40454
23.15608,38895
23.16543,40066
23.17477,42170
23.18410,39977
23.19345,41366
23.20278,40698
23.21212,40169
23.22147,39210
23.23080,41813
23.24013,42803
23.24948,45100
23.25882,50782
23.26815,51076
23.27750,46649
23.28683,44468
23.29618,41980
23.30552,42564
23.31485,41365
23.32420,46092
23.33353,58792
23.34287,71565
23.35222,72254
23.36155,58603
23.37088,48620
23.38023,43881
23.38957,41644
23.39890,42052
23.40825,43397
23.41758,41142
23.42692,42068
23.43627,40816
23.44560,41615
23.45493,43410
23.46428,41442
23.47362,41620
23.48297,42367
23.49230,38427
23.50163,37083
23.51098,38638
23.52032,41364
23.52965,40791
23.53900,40074
23.54833,38720
23.55767,38629
23.56702,37225
23.57635,38018
23.58568,41814
23.59503,40835
23.60437,39489
23.61370,40156
23.62305,37840
23.63238,39017
23.64172,36579
23.65107,37985
23.66040,41657
23.66975,58670
23.67908,100216
23.68842,137404
23.69777,137302
23.70710,104742
23.71643,79580
23.72578,69276
23.73512,63376
23.74445,66201
23.75380,54540
23.76313,48496
23.77247,43523
23.78182,41220
23.79115,41852
23.80048,40616
23.80983,40681
23.81917,39006
23.82852,40498
23.83785,38042
23.84718,39159
23.85653,38652
23.86587,37690
23.87520,39313
23.88455,37816
23.89388,39294
23.90322,43230
23.91257,41794
23.92190,41634
23.93123,42287
23.94058,39923
23.94992,39367
23.95925,37928
23.96860,37313
23.97793,40727
23.98727,38806
23.99662,38205
24.00595,39790
24.01530,42281
24.02463,41361
24.03397,39795
24.04332,39735
24.05265,36509
24.06198,37003
24.07133,37196
24.08067,40474
24.09000,38398
24.09935,39050
24.10868,39490
24.11802,38921
24.12737,38413
24.13670,38264
24.14603,38075
24.15538,40321
24.16472,39756
24.17405,38829
24.18340,38869
24.19273,38424
24.20208,39515
24.21142,39395
24.22075,38719
24.23010,37376
24.23943,40039
24.24877,38632
24.25812,38754
24.26745,37257
24.27678,39060
24.28613,37963
24.29547,38831
24.30480,37837
24.31415,39161
24.32348,40958
24.33282,43380
24.34217,41141
24.35150,40064
24.36083,39642
24.37018,37820
24.37952,39809
24.38887,41357
24.39820,43237
24.40753,43071
24.41688,41309
24.42622,40184
24.43555,39288
24.44490,41214
24.45423,40115
24.46357,38757
24.47292,41824
24.48225,40565
24.49158,40324
24.50093,39960
24.51027,40407
24.51960,38736
24.52895,40440
24.53828,40840
24.54763,42614
24.55697,43891
24.56630,46777
24.57565,44722
24.58498,42358
24.59432,41307
24.60367,40848
24.61300,42407
24.62233,44028
24.63168,41152
24.64102,41282
24.65035,40479
24.65970,41058
24.66903,44196
24.67837,47662
24.68772,44610
24.69705,43081
24.70638,44203
24.71573,43991
24.72507,42141
24.73442,42330
24.74375,40704
24.75308,42365
24.76243,40166
24.77177,38422
24.78110,38940
24.79045,41277
24.79978,39181
24.80912,38074
24.81847,41375
24.82780,38207
24.83713,38199
24.84648,38928
24.85582,39592
24.86515,38528
24.87450,40477
24.88383,40633
24.89317,42962
24.90252,40626
24.91185,42029
24.92120,41920
24.93053,41117
24.93987,42575
24.94922,40786
24.95855,42146
24.96788,43503
24.97723,43459
24.98657,42694
24.99590,43065
25.00525,40251
25.01458,39923
25.02392,40991
25.03327,41166
25.04260,40530
25.05193,39974
25.06128,39591
25.07062,40169
25.07995,41279
25.08930,40767
25.09863,40904
25.10798,41512
25.11732,41648
25.12665,39777
25.13600,42557
25.14533,45409
25.15467,49295
25.16402,47656
25.17335,46340
25.18268,45020
25.19203,44347
25.20137,44161
25.21070,44443
25.22005,44218
25.22938,43670
25.23872,43696
25.24807,42730
25.25740,45036
25.26673,43484
25.27608,45705
25.28542,46187
25.29477,47026
25.30410,47550
25.31343,53119
25.32278,67672
25.33212,103784
25.34145,120392
25.35080,105406
25.36013,85694
25.36947,72380
25.37882,70294
25.38815,68195
25.39748,67059
25.40683,66562
25.41617,66948
25.42550,67763
25.43485,71880
25.44418,72866
25.45352,74377
25.46287,75902
25.47220,78653
25.48155,79731
25.49088,89983
25.50022,91397
25.50957,95642
25.51890,95045
25.52823,94863
25.53758,98941
25.54692,94217
25.55625,95893
25.56560,94627
25.57493,91153
25.58427,86497
25.59362,83688
25.60295,81967
25.61228,78503
25.62163,76607
25.63097,75182
25.64032,75338
25.64965,76549
25.65898,76555
25.66833,77333
25.67767,76225
25.68700,72579
25.69635,70123
25.70568,70087
25.71502,67377
25.72437,65180
25.73370,67073
25.74303,64698
25.75238,65696
25.76172,67834
25.77105,65582
25.78040,63192
25.78973,64574
25.79907,67046
25.80842,69424
25.81775,69490
25.82710,69612
25.83643,71484
25.84577,68914
25.85512,67865
25.86445,63913
25.87378,65025
25.88313,61728
25.89247,62089
25.90180,61436
25.91115,63157
25.92048,63041
25.92982,60946
25.93917,62798
25.94850,62980
25.95783,66346
25.96718,67794
25.97652,64346
25.98585,63028
25.99520,61955
26.00453,63033
26.01388,59476
26.02322,60083
26.03255,62996
26.04190,65082
26.05123,67272
26.06057,64504
26.06992,65938
26.07925,63367
26.08858,61982
26.09793,63679
26.10727,62255
26.11660,62729
26.12595,63181
26.13528,63639
26.14462,65997
26.15397,70814
26.16330,71154
26.17263,70833
26.18198,69889
26.19132,67515
26.20067,63018
26.21000,57946
26.21933,57162
26.22868,58694
26.23802,55054
26.24735,55985
26.25670,58353
26.26603,57464
26.27537,56374
26.28472,56671
26.29405,57425
26.30338,56863
26.31273,58756
26.32207,59600
26.33140,60931
26.34075,58471
26.35008,57168
26.35943,58820
26.36877,57339
26.37810,57560
26.38745,57734
26.39678,57352
26.40612,56029
26.41547,55818
26.42480,54100
26.43413,52882
26.44348,56385
26.45282,59053
26.46215,60385
26.47150,59236
26.48083,60137
26.49017,58355
26.49952,60019
26.50885,58837
26.51818,59172
26.52753,60781
26.53687,64928
26.54622,67501
26.55555,65763
26.56488,63944
26.57423,60786
26.58357,60650
26.59290,62041
26.60225,63715
26.61158,68792
26.62092,67373
26.63027,61841
26.63960,60796
26.64893,60451
26.65828,60837
26.66762,59687
26.67695,61664
26.68630,61534
26.69563,59590
26.70497,58475
26.71432,58322
26.72365,56206
26.73300,58263
26.74233,57210
26.75167,58629
26.76102,57650
26.77035,58367
26.77968,59621
26.78903,59267
26.79837,60140
26.80770,59698
26.81705,58990
26.82638,59462
26.83572,59974
26.84507,60943
26.85440,60843
26.86373,59585
26.87308,61785
26.88242,57848
26.89175,60474
26.90110,61330
26.91043,62150
26.91978,56537
26.92912,58557
26.93845,56391
26.94780,57939
26.95713,58126
26.96647,56944
26.97582,58955
26.98515,57658
26.99448,59256
27.00383,61858
27.01317,61697
27.02250,63231
27.03185,59157
27.04118,59308
27.05052,61160
27.05987,65294
27.06920,64339
27.07853,64015
27.08788,61930
27.09722,61467
27.10657,63647
27.11590,61116
27.12523,63308
27.13458,63733
27.14392,68638
27.15325,68012
27.16260,67371
27.17193,66389
27.18127,66480
27.19062,65533
27.19995,68214
27.20928,70367
27.21863,70415
27.22797,71875
27.23730,76048
27.24665,79693
27.25598,85992
27.26533,90405
27.27467,90942
27.28400,84305
27.29335,82646
27.30268,81413
27.31202,81289
27.32137,81732
27.33070,78021
27.34003,78969
27.34938,76161
27.35872,78361
27.36805,73443
27.37740,74221
27.38673,74500
27.39607,69807
27.40542,70512
27.41475,68294
27.42408,69265
27.43343,69472
27.44277,69278
27.45212,67464
27.46145,68177
27.47078,66897
27.48013,65368
27.48947,68397
27.49880,68333
27.50815,72162
27.51748,76589
27.52682,74940
27.53617,76390
27.54550,76374
27.55483,74898
27.56418,73604
27.57352,70649
27.58285,68248
27.59220,68922
27.60153,66561
27.61087,65189
27.62022,65996
27.62955,63910
27.63890,65025
27.64823,65498
27.65757,64454
27.66692,68942
27.67625,78712
27.68558,85943
27.69493,80505
27.70427,75338
27.71360,70866
27.72295,69218
27.73228,65746
27.74162,63003
27.75097,63618
27.76030,62787
27.76963,64921
27.77898,65054
27.78832,65766
27.79765,64782
27.80700,64756
27.81633,64736
27.82568,64586
27.83502,63996
27.84435,63635
27.85370,67094
27.86303,64947
27.87237,63748
27.88172,63845
27.89105,65341
27.90038,65127
27.90973,62944
27.91907,66204
27.92840,65282
27.93775,65895
27.94708,64527
27.95642,60087
27.96577,61288
27.97510,62158
27.98445,63835
27.99378,64174
28.00312,66178
28.01247,62756
28.02180,61642
28.03113,60364
28.04048,60794
28.04982,61180
28.05915,60581
28.06850,63234
28.07783,62232
28.08717,62509
28.09652,64583
28.10585,63805
28.11518,65935
28.12453,72772
28.13387,79426
28.14320,77576
28.15255,72035
28.16188,68096
28.17123,72220
28.18057,68849
28.18990,65757
28.19925,65654
28.20858,67060
28.21792,64851
28.22727,65094
28.23660,69769
28.24593,67798
28.25528,65137
28.26462,63850
28.27395,66854
28.28330,66709
28.29263,67134
28.30197,65337
28.31132,65197
28.32065,64727
28.32998,62868
28.33933,63274
28.34867,63814
28.35802,63847
28.36735,62158
28.37668,64590
28.38603,61753
28.39537,66569
28.40470,66710
28.41405,64534
28.42338,65760
28.43272,65312
28.44207,66034
28.45140,66843
28.46073,68651
28.47008,68302
28.47942,66700
28.48875,67601
28.49810,66078
28.50743,66475
28.51677,67290
28.52612,67205
28.53545,71037
28.54480,67275
28.55413,68049
28.56347,70078
28.57282,68321
28.58215,68838
28.59148,74426
28.60083,77317
28.61017,76900
28.61950,78521
28.62885,74929
28.63818,74010
28.64752,75149
28.65687,72849
28.66620,80568
28.67553,99769
28.68488,126897
28.69422,133339
28.70355,116310
28.71290,94899
28.72223,84897
28.73158,78104
28.74092,77867
28.75025,76653
28.75960,76782
28.76893,73683
28.77827,76525
28.78762,75114
28.79695,74258
28.80628,75498
28.81563,75459
28.82497,74345
28.83430,74930
28.84365,73066
28.85298,75881
28.86232,74012
28.87167,72504
28.88100,70634
28.89033,73492
28.89968,72564
28.90902,73753
28.91837,72525
28.92770,73176
28.93703,71969
28.94638,73009
28.95572,73820
28.96505,74157
28.97440,79730
28.98373,80334
28.99307,79688
29.00242,76829
29.01175,77037
29.02108,79034
29.03043,76510
29.03977,77927
29.04910,77198
29.05845,77407
29.06778,77593
29.07713,75898
29.08647,76166
29.09580,75206
29.10515,77031
29.11448,76233
29.12382,74989
29.13317,75492
29.14250,77691
29.15183,77062
29.16118,76784
29.17052,75420
29.17985,74767
29.18920,82913
29.19853,89559
29.20787,104084
29.21722,110180
29.22655,106837
29.23588,93192
29.24523,85536
29.25457,82511
29.26392,83220
29.27325,82013
29.28258,83236
29.29193,80388
29.30127,78981
29.31060,79291
29.31995,81397
29.32928,79739
29.33862,77791
29.34797,76944
29.35730,77463
29.36663,79683
29.37598,76602
29.38532,78241
29.39465,77366
29.40400,76886
29.41333,76258
29.42267,75447
29.43202,79280
29.44135,76619
29.45070,79459
29.46003,87817
29.46937,91088
29.47872,96240
29.48805,91713
29.49738,88833
29.50673,87966
29.51607,82810
29.52540,82866
29.53475,82081
29.54408,78978
29.55342,79954
29.56277,80064
29.57210,78600
29.58143,77687
29.59078,79315
29.60012,78261
29.60945,74496
29.61880,78448
29.62813,77954
29.63748,77956
29.64682,78062
29.65615,77251
29.66550,77693
29.67483,75426
29.68417,75491
29.69352,75922
29.70285,77265
29.71218,77370
29.72153,79219
29.73087,78870
29.74020,80917
29.74955,82402
29.75888,80693
29.76822,79702
29.77757,80592
29.78690,79139
29.79625,77733
29.80558,75240
29.81492,79888
29.82427,78214
29.83360,78613
29.84293,77112
29.85228,79120
29.86162,77022
29.87095,80878
29.88030,78412
29.88963,80110
29.89897,78004
29.90832,78629
29.91765,78548
29.92698,80725
29.93633,80273
29.94567,81525
29.95500,79250
29.96435,80268
29.97368,80712
29.98303,85326
29.99237,88673
30.00170,90295
30.01105,87664
30.02038,82350
30.02972,80407
30.03907,80093
30.04840,79277
30.05773,77976
30.06708,82628
30.07642,81971
30.08575,78223
30.09510,79251
30.10443,80137
30.11377,82148
30.12312,81293
30.13245,84840
30.14178,83902
30.15113,87829
30.16047,90594
30.16982,92832
30.17915,90652
30.18848,88755
30.19783,88305
30.20717,87397
30.21650,84958
30.22585,86512
30.23518,86964
30.24452,80307
30.25387,81474
30.26320,83428
30.27253,82617
30.28188,80743
30.29122,80139
30.30055,80949
30.30990,80618
30.31923,82373
30.32857,81829
30.33792,83001
30.34725,88541
30.35660,98567
30.36593,106429
30.37527,114709
30.38462,118443
30.39395,122425
30.40328,137468
30.41263,149384
30.42197,146523
30.43130,130675
30.44065,119397
30.44998,104906
30.45932,99797
30.46867,96411
30.47800,95108
30.48733,91774
30.49668,92430
30.50602,90958
30.51535,87410
30.52470,86030
30.53403,83330
30.54338,85611
30.55272,83304
30.56205,84857
30.57140,88822
30.58073,89032
30.59007,88917
30.59942,88422
30.60875,93311
30.61808,94063
30.62743,96295
30.63677,99913
30.64610,108368
30.65545,110201
30.66478,110879
30.67412,114652
30.68347,109111
30.69280,103068
30.70215,100689
30.71148,100115
30.72082,99534
30.73017,93657
30.73950,92664
30.74883,89964
30.75818,93285
30.76752,92088
30.77685,91607
30.78620,88436
30.79553,90335
30.80487,90705
30.81422,89792
30.82355,92421
30.83288,92239
30.84223,88587
30.85157,90860
30.86090,92936
30.87025,90768
30.87958,89355
30.88893,91555
30.89827,91065
30.90760,91439
30.91695,93670
30.92628,92549
30.93562,98180
30.94497,94258
30.95430,96850
30.96363,98625
30.97298,95697
30.98232,98947
30.99165,99566
31.00100,95128
31.01033,96686
31.01967,95215
31.02902,95888
31.03835,93631
31.04768,93251
31.05703,95481
31.06637,93091
31.07572,91970
31.08505,91607
31.09438,93356
31.10373,88985
31.11307,92523
31.12240,92341
31.13175,91426
31.14108,89447
31.15042,89280
31.15977,92306
31.16910,93652
31.17843,91710
31.18778,89408
31.19712,93644
31.20645,90711
31.21580,95987
31.22513,93610
31.23447,93501
31.24382,93849
31.25315,94198
31.26250,93492
31.27183,93718
31.28117,94996
31.29052,95855
31.29985,92880
31.30918,92941
31.31853,94316
31.32787,95716
31.33720,92502
31.34655,93024
31.35588,95446
31.36522,94727
