D:\数据\202112114\ZS1E-TJ-000108.D Tue Dec 14 16:03:39 2021
Start of data points
0.09770,28204
0.10703,27368
0.11637,26990
0.12572,28281
0.13505,27475
0.14438,28165
0.15373,27438
0.16307,27273
0.17240,28018
0.18175,27665
0.19108,28085
0.20043,26644
0.20977,27929
0.21910,26748
0.22845,26031
0.23778,26267
0.24712,26764
0.25647,27736
0.26580,27393
0.27513,27948
0.28448,26851
0.29382,27748
0.30315,28156
0.31250,27261
0.32183,26039
0.33117,27175
0.34052,27402
0.34985,26768
0.35918,26475
0.36853,25597
0.37787,27754
0.38722,26233
0.39655,23218
0.40588,19726
0.41523,17766
0.42457,12311
0.43390,8555
0.44325,6559
0.45258,6250
0.46192,6014
0.47127,4745
0.48060,6084
0.48993,5571
0.49928,5408
0.50862,5563
0.51795,5026
0.52730,5411
0.53663,5041
0.54597,4224
0.55532,4756
0.56465,4938
0.57400,4776
0.58333,4694
0.59267,4726
0.60202,5156
0.61135,4322
0.62068,4589
0.63003,4513
0.63937,4854
0.64870,4806
0.65805,4475
0.66738,4564
0.67672,4772
0.68607,3723
0.69540,5059
0.70473,3876
0.71408,4357
0.72342,4736
0.73277,4849
0.74210,4140
0.75143,4756
0.76078,5161
0.77012,4369
0.77945,4696
0.78880,4653
0.79813,4723
0.80747,4141
0.81682,4231
0.82615,4861
0.83548,3989
0.84483,4384
0.85417,3679
0.86350,4524
0.87285,4452
0.88218,4046
0.89152,4503
0.90087,5234
0.91020,4099
0.91955,4159
0.92888,4215
0.93822,4034
0.94757,4224
0.95690,4498
0.96623,4536
0.97558,4517
0.98492,4024
0.99425,3781
1.00360,4653
1.01293,4020
1.02227,4668
1.03162,3849
1.04095,4155
1.05028,4559
1.05963,3916
1.06897,3262
1.07830,4240
1.08765,4131
1.09698,4122
1.10633,4293
1.11567,5174
1.12500,4493
1.13435,4206
1.14368,4503
1.15302,4388
1.16237,4426
1.17170,4317
1.18103,4255
1.19038,4635
1.19972,4595
1.20905,4215
1.21840,4042
1.22773,3666
1.23707,4097
1.24642,3826
1.25575,4420
1.26508,4430
1.27443,4270
1.28377,4916
1.29312,4338
1.30245,4113
1.31178,3755
1.32113,3916
1.33047,3855
1.33980,4382
1.34915,4686
1.35848,4049
1.36782,3897
1.37717,4116
1.38650,4325
1.39583,4000
1.40518,3735
1.41452,4336
1.42385,4150
1.43320,3734
1.44253,4064
1.45187,3764
1.46122,4190
1.47055,3607
1.47990,4131
1.48923,3776
1.49857,3851
1.50792,3347
1.51725,4206
1.52658,3714
1.53593,3588
1.54527,4228
1.55460,3295
1.56395,4593
1.57328,4629
1.58262,9345
1.59197,16564
1.60130,23360
1.61063,27705
1.61998,39877
1.62932,53604
1.63867,62816
1.64800,62884
1.65733,53319
1.66668,44437
1.67602,38023
1.68535,34588
1.69470,28412
1.70403,20257
1.71337,20149
1.72272,21808
1.73205,25043
1.74138,27238
1.75073,31033
1.76007,33398
1.76940,34924
1.77875,34907
1.78808,35316
1.79742,34652
1.80677,34401
1.81610,34726
1.82545,33798
1.83478,34199
1.84412,34702
1.85347,33063
1.86280,33948
1.87213,37605
1.88148,48409
1.89082,74352
1.90015,113242
1.90950,147803
1.91883,183562
1.92817,282259
1.93752,503357
1.94685,798020
1.95618,999316
1.96553,978528
1.97487,804406
1.98420,599083
1.99355,442845
2.00288,363277
2.01223,340779
2.02157,349539
2.03090,355065
2.04025,286353
2.04958,204324
2.05892,148186
2.06827,112637
2.07760,90893
2.08693,80192
2.09628,69514
2.10562,65478
2.11495,61950
2.12430,66463
2.13363,74312
2.14297,91109
2.15232,110883
2.16165,111889
2.17098,106561
2.18033,106215
2.18967,153853
2.19902,230774
2.20835,199004
2.21768,129679
2.22703,109536
2.23637,139576
2.24570,249795
2.25505,1248235
2.26438,3452767
2.27372,3621044
2.28307,2608412
2.29240,1601673
2.30173,1173753
2.31108,3344912
2.32042,1.109171E+07
2.32975,1.468953E+07
2.33910,1.000562E+07
2.34843,4686511
2.35778,1970074
2.36712,886745
2.37645,458631
2.38580,313933
2.39513,239890
2.40447,192470
2.41382,165448
2.42315,151149
2.43248,140914
2.44183,130931
2.45117,115691
2.46050,105288
2.46985,118361
2.47918,149473
2.48852,139990
2.49787,113106
2.50720,91102
2.51653,81695
2.52588,73788
2.53522,70968
2.54457,72063
2.55390,78044
2.56323,89191
2.57258,147588
2.58192,268773
2.59125,245896
2.60060,201006
2.60993,173190
2.61927,180724
2.62862,199431
2.63795,183794
2.64728,156711
2.65663,140177
2.66597,120616
2.67530,106935
2.68465,92732
2.69398,77930
2.70332,66260
2.71267,70036
2.72200,89574
2.73135,126399
2.74068,148948
2.75002,173278
2.75937,197739
2.76870,199944
2.77803,195846
2.78738,201050
2.79672,206584
2.80605,177579
2.81540,151927
2.82473,148826
2.83407,144476
2.84342,120951
2.85275,122525
2.86208,141815
2.87143,156619
2.88077,177962
2.89010,162346
2.89945,127571
2.90878,104515
2.91813,93235
2.92747,83917
2.93680,77969
2.94615,67207
2.95548,63028
2.96482,59429
2.97417,56605
2.98350,56909
2.99283,61008
3.00218,68605
3.01152,81443
3.02085,79460
3.03020,69263
3.03953,72724
3.04887,105547
3.05822,177699
3.06755,282930
3.07688,300507
3.08623,216536
3.09557,131444
3.10492,84599
3.11425,66228
3.12358,57228
3.13293,57508
3.14227,57255
3.15160,62742
3.16095,68432
3.17028,73364
3.17962,68375
3.18897,63784
3.19830,58907
3.20763,55562
3.21698,57333
3.22632,58016
3.23565,55648
3.24500,53875
3.25433,53846
3.26368,55893
3.27302,55198
3.28235,51672
3.29170,53644
3.30103,56113
3.31037,61268
3.31972,59442
3.32905,53934
3.33838,52516
3.34773,52046
3.35707,52075
3.36640,49763
3.37575,49960
3.38508,48102
3.39442,48017
3.40377,49764
3.41310,59243
3.42243,74487
3.43178,75249
3.44112,71279
3.45047,73180
3.45980,73961
3.46913,73901
3.47848,67574
3.48782,61626
3.49715,60034
3.50650,57984
3.51583,55593
3.52517,52434
3.53452,50318
3.54385,54248
3.55318,94987
3.56253,243005
3.57187,439784
3.58120,472595
3.59055,328874
3.59988,188089
3.60922,116749
3.61857,89314
3.62790,91475
3.63725,95119
3.64658,84101
3.65592,76290
3.66527,69640
3.67460,69986
3.68393,72849
3.69328,68485
3.70262,59800
3.71195,56164
3.72130,60847
3.73063,68551
3.73997,66927
3.74932,61053
3.75865,56548
3.76798,54537
3.77733,49805
3.78667,47580
3.79600,47083
3.80535,55664
3.81468,79923
3.82403,104057
3.83337,101411
3.84270,79007
3.85205,59674
3.86138,56070
3.87072,53594
3.88007,53698
3.88940,58219
3.89873,66484
3.90808,70755
3.91742,68491
3.92675,68276
3.93610,71514
3.94543,87915
3.95477,160592
3.96412,167559
3.97345,133824
3.98280,96077
3.99213,71334
4.00147,61246
4.01082,68531
4.02015,75321
4.02948,90635
4.03883,161598
4.04817,302313
4.05750,360482
4.06685,269469
4.07618,172297
4.08552,151925
4.09487,157956
4.10420,149845
4.11353,122199
4.12288,90133
4.13222,71358
4.14155,63735
4.15090,59094
4.16023,55893
4.16958,57366
4.17892,51017
4.18825,48987
4.19760,48693
4.20693,50023
4.21627,52814
4.22562,52837
4.23495,49657
4.24428,51039
4.25363,50413
4.26297,47200
4.27230,51195
4.28165,54895
4.29098,71384
4.30032,70622
4.30967,73671
4.31900,76890
4.32833,90767
4.33768,93084
4.34702,79956
4.35637,66441
4.36570,56730
4.37503,51345
4.38438,46655
4.39372,51083
4.40305,52016
4.41240,51478
4.42173,49286
4.43107,46577
4.44042,43186
4.44975,44842
4.45908,45563
4.46843,55335
4.47777,67521
4.48710,75175
4.49645,69110
4.50578,59441
4.51512,51968
4.52447,48741
4.53380,46409
4.54315,48687
4.55248,53536
4.56182,54065
4.57117,51555
4.58050,50175
4.58983,50203
4.59918,46709
4.60852,49709
4.61785,45445
4.62720,46854
4.63653,50386
4.64587,52777
4.65522,58187
4.66455,65372
4.67388,62715
4.68323,66410
4.69257,104201
4.70190,141927
4.71125,148992
4.72058,110668
4.72993,75664
4.73927,57701
4.74860,48986
4.75795,49237
4.76728,49466
4.77662,49284
4.78597,51692
4.79530,48820
4.80463,47519
4.81398,48263
4.82332,48704
4.83265,48483
4.84200,49400
4.85133,51339
4.86067,50998
4.87002,52099
4.87935,59448
4.88870,64745
4.89803,61719
4.90737,58038
4.91672,52754
4.92605,50770
4.93538,50887
4.94473,52463
4.95407,52372
4.96340,47733
4.97275,46503
4.98208,43065
4.99142,43849
5.00077,43342
5.01010,46194
5.01943,48159
5.02878,50186
5.03812,58067
5.04745,57810
5.05680,52874
5.06613,53320
5.07548,49727
5.08482,56737
5.09415,55817
5.10350,53506
5.11283,49256
5.12217,47881
5.13152,46831
5.14085,49251
5.15018,52430
5.15953,55365
5.16887,54825
5.17820,50071
5.18755,46414
5.19688,48120
5.20622,55052
5.21557,56453
5.22490,52441
5.23423,51513
5.24358,53540
5.25292,56365
5.26227,54373
5.27160,70438
5.28093,145692
5.29028,292776
5.29962,369496
5.30895,292101
5.31830,171113
5.32763,101256
5.33697,75425
5.34632,62535
5.35565,54356
5.36498,50573
5.37433,52171
5.38367,56441
5.39300,61001
5.40235,71355
5.41168,67209
5.42102,59583
5.43037,52432
5.43970,48651
5.44905,44898
5.45838,46690
5.46772,44898
5.47707,46769
5.48640,43798
5.49573,46622
5.50508,48062
5.51442,49491
5.52375,56971
5.53310,62807
5.54243,64217
5.55177,58874
5.56112,59099
5.57045,55475
5.57978,52175
5.58913,47660
5.59847,46748
5.60782,44635
5.61715,44987
5.62648,45183
5.63583,42924
5.64517,43059
5.65450,45347
5.66385,46480
5.67318,51224
5.68252,50680
5.69187,50470
5.70120,55492
5.71053,56569
5.71988,58568
5.72922,57018
5.73855,53356
5.74790,58408
5.75723,68651
5.76657,70031
5.77592,66495
5.78525,75384
5.79460,77577
5.80393,67705
5.81327,59884
5.82262,55355
5.83195,56655
5.84128,61348
5.85063,59749
5.85997,48669
5.86930,40736
5.87865,36408
5.88798,36875
5.89732,33253
5.90667,39475
5.91600,72287
5.92533,141239
5.93468,176486
5.94402,150587
5.95335,110634
5.96270,99280
5.97203,83164
5.98138,62498
5.99072,48401
6.00005,36731
6.00940,30069
6.01873,26163
6.02807,25687
6.03742,23937
6.04675,26032
6.05608,28190
6.06543,29505
6.07477,29670
6.08410,29587
6.09345,25776
6.10278,23585
6.11212,24909
6.12147,28075
6.13080,37475
6.14013,49705
6.14948,50202
6.15882,39544
6.16817,26394
6.17750,22780
6.18683,20923
6.19618,20487
6.20552,20062
6.21485,19839
6.22420,21157
6.23353,23631
6.24287,26767
6.25222,26140
6.26155,23185
6.27088,21106
6.28023,26594
6.28957,33693
6.29890,33777
6.30825,27142
6.31758,20915
6.32692,19366
6.33627,17195
6.34560,18941
6.35495,17339
6.36428,19383
6.37362,20388
6.38297,24752
6.39230,41068
6.40163,140221
6.41098,475008
6.42032,890680
6.42965,883472
6.43900,492719
6.44833,182232
6.45767,64014
6.46702,36845
6.47635,31114
6.48568,27678
6.49503,24740
6.50437,22302
6.51370,22703
6.52305,22735
6.53238,22530
6.54173,21355
6.55107,19273
6.56040,18738
6.56975,18253
6.57908,18229
6.58842,19812
6.59777,22351
6.60710,22740
6.61643,23793
6.62578,23829
6.63512,25863
6.64445,25775
6.65380,26012
6.66313,28138
6.67247,29530
6.68182,28045
6.69115,25413
6.70050,23669
6.70983,28295
6.71917,32100
6.72852,33419
6.73785,28716
6.74718,26123
6.75653,23274
6.76587,22543
6.77520,22167
6.78455,21352
6.79388,25443
6.80322,30357
6.81257,33198
6.82190,28238
6.83123,24060
6.84058,22307
6.84992,23924
6.85925,25462
6.86860,28208
6.87793,25324
6.88728,22581
6.89662,22326
6.90595,23304
6.91530,26441
6.92463,27156
6.93397,26471
6.94332,24387
6.95265,22711
6.96198,23624
6.97133,24185
6.98067,26119
6.99000,25096
6.99935,24142
7.00868,20794
7.01802,21828
7.02737,20670
7.03670,19605
7.04603,17405
7.05538,15208
7.06472,14753
7.07407,15372
7.08340,17519
7.09273,18332
7.10208,22052
7.11142,26876
7.12075,26960
7.13010,26492
7.13943,23635
7.14877,22189
7.15812,18877
7.16745,17978
7.17678,17815
7.18613,19091
7.19547,18893
7.20480,19852
7.21415,21450
7.22348,24173
7.23282,39831
7.24217,78140
7.25150,105125
7.26085,87789
7.27018,53772
7.27952,33711
7.28887,29220
7.29820,26793
7.30753,26232
7.31688,22731
7.32622,18262
7.33555,17304
7.34490,17647
7.35423,17284
7.36357,16539
7.37292,18701
7.38225,20125
7.39158,34564
7.40093,87933
7.41027,172967
7.41962,223732
7.42895,188126
7.43828,108105
7.44763,58036
7.45697,33407
7.46630,23758
7.47565,20365
7.48498,20290
7.49432,24245
7.50367,25627
7.51300,25541
7.52233,22552
7.53168,19970
7.54102,17872
7.55035,17985
7.55970,19336
7.56903,22090
7.57837,22865
7.58772,23946
7.59705,25304
7.60640,23986
7.61573,25490
7.62507,27613
7.63442,27560
7.64375,27292
7.65308,26313
7.66243,22013
7.67177,21038
7.68110,20764
7.69045,21333
7.69978,21008
7.70912,23290
7.71847,24666
7.72780,24539
7.73713,24380
7.74648,23382
7.75582,25737
7.76515,28440
7.77450,30130
7.78383,28525
7.79318,29731
7.80252,29678
7.81185,27137
7.82120,23236
7.83053,21048
7.83987,20426
7.84922,23447
7.85855,37112
7.86788,67700
7.87723,91185
7.88657,88475
7.89590,66740
7.90525,48532
7.91458,59765
7.92392,91402
7.93327,96373
7.94260,68312
7.95193,41273
7.96128,38452
7.97062,55744
7.97997,64171
7.98930,68992
7.99863,67012
8.00798,53234
8.01732,41568
8.02665,34527
8.03600,39370
8.04533,52411
8.05467,62516
8.06402,52178
8.07335,33486
8.08268,27855
8.09203,32789
8.10137,48544
8.11070,60494
8.12005,53182
8.12938,37946
8.13872,31272
8.14807,28094
8.15740,25689
8.16675,25480
8.17608,23257
8.18542,24514
8.19477,23183
8.20410,23664
8.21343,24254
8.22278,24313
8.23212,21865
8.24145,25132
8.25080,28452
8.26013,29274
8.26947,29184
8.27882,26613
8.28815,25622
8.29748,24564
8.30683,24566
8.31617,23902
8.32552,22908
8.33485,21679
8.34418,23880
8.35353,21935
8.36287,21924
8.37220,20510
8.38155,19948
8.39088,23569
8.40022,30091
8.40957,37029
8.41890,39440
8.42823,39977
8.43758,37268
8.44692,33126
8.45625,28429
8.46560,28792
8.47493,29163
8.48427,29255
8.49362,28601
8.50295,27462
8.51230,26384
8.52163,25353
8.53097,24327
8.54032,24343
8.54965,26124
8.55898,30117
8.56833,29095
8.57767,28555
8.58700,26806
8.59635,29700
8.60568,34351
8.61502,35571
8.62437,32947
8.63370,30872
8.64303,29512
8.65238,28172
8.66172,30945
8.67105,31316
8.68040,30946
8.68973,29527
8.69908,27453
8.70842,27772
8.71775,26677
8.72710,25314
8.73643,24373
8.74577,28426
8.75512,38232
8.76445,44790
8.77378,41549
8.78313,36725
8.79247,53416
8.80180,138463
8.81115,310291
8.82048,411027
8.82982,308780
8.83917,140172
8.84850,53889
8.85783,32780
8.86718,27621
8.87652,29405
8.88587,32158
8.89520,31752
8.90453,31495
8.91388,29248
8.92322,29509
8.93255,30810
8.94190,31477
8.95123,27904
8.96057,22761
8.96992,23555
8.97925,24345
8.98858,25155
8.99793,27373
9.00727,28259
9.01660,31251
9.02595,31598
9.03528,31266
9.04463,29320
9.05397,29681
9.06330,29609
9.07265,33118
9.08198,41371
9.09132,46876
9.10067,48530
9.11000,42178
9.11933,38579
9.12868,46514
9.13802,67450
9.14735,77591
9.15670,65786
9.16603,42349
9.17537,31847
9.18472,27721
9.19405,28484
9.20338,29083
9.21273,34645
9.22207,52574
9.23142,84031
9.24075,108914
9.25008,92684
9.25943,66389
9.26877,46172
9.27810,35431
9.28745,32870
9.29678,32241
9.30612,32148
9.31547,33214
9.32480,40624
9.33413,59554
9.34348,69558
9.35282,59058
9.36215,68360
9.37150,134223
9.38083,213309
9.39017,221882
9.39952,163152
9.40885,99913
9.41820,66801
9.42753,59139
9.43687,51801
9.44622,43743
9.45555,34892
9.46488,30490
9.47423,28139
9.48357,25943
9.49290,29914
9.50225,35224
9.51158,35019
9.52092,30150
9.53027,29644
9.53960,34967
9.54893,43952
9.55828,58698
9.56762,81709
9.57695,87579
9.58630,64006
9.59563,46120
9.60498,47369
9.61432,51964
9.62365,41793
9.63300,36387
9.64233,38924
9.65167,45902
9.66102,58904
9.67035,65894
9.67968,54741
9.68903,41905
9.69837,31764
9.70770,29595
9.71705,37028
9.72638,128252
9.73572,572592
9.74507,1553801
9.75440,2211349
9.76373,1726513
9.77308,853822
9.78242,362540
9.79177,198644
9.80110,141692
9.81043,110895
9.81978,97314
9.82912,100305
9.83845,112734
9.84780,121078
9.85713,121377
9.86647,94203
9.87582,75827
9.88515,76848
9.89448,89948
9.90383,95780
9.91317,86891
9.92250,78407
9.93185,78066
9.94118,72524
9.95052,61627
9.95987,51070
9.96920,48548
9.97855,75438
9.98788,170970
9.99722,313024
10.00657,355667
10.01590,258340
10.02523,131377
10.03458,65490
10.04392,49568
10.05325,47167
10.06260,53414
10.07193,66316
10.08127,77251
10.09062,72100
10.09995,57742
10.10928,53010
10.11863,101801
10.12797,249966
10.13732,410430
10.14665,460730
10.15598,857942
10.16533,2245507
10.17467,3425847
10.18400,2679033
10.19335,981959
10.20268,220039
10.21202,61227
10.22137,44129
10.23070,45268
10.24003,53763
10.24938,73090
10.25872,77473
10.26805,62658
10.27740,46744
10.28673,39921
10.29607,44499
10.30542,45612
10.31475,44953
10.32410,41682
10.33343,37092
10.34277,33599
10.35212,32381
10.36145,33844
10.37078,33663
10.38013,32665
10.38947,29106
10.39880,29902
10.40815,31969
10.41748,34054
10.42682,37843
10.43617,39826
10.44550,38204
10.45483,36091
10.46418,44841
10.47352,50555
10.48285,48550
10.49220,41646
10.50153,36149
10.51088,31521
10.52022,31339
10.52955,29995
10.53890,31216
10.54823,30902
10.55757,33273
10.56692,35132
10.57625,34780
10.58558,33052
10.59493,31379
10.60427,29521
10.61360,28877
10.62295,28522
10.63228,33573
10.64162,39552
10.65097,39683
10.66030,35229
10.66963,35385
10.67898,40166
10.68832,43306
10.69767,44537
10.70700,41453
10.71633,50994
10.72568,65647
10.73502,65320
10.74435,51621
10.75370,48519
10.76303,68842
10.77237,110287
10.78172,295625
10.79105,1482170
10.80038,5455504
10.80973,1.162855E+07
10.81907,1.367636E+07
10.82840,8409068
10.83775,2688898
10.84708,539885
10.85643,145481
10.86577,89289
10.87510,83103
10.88445,91993
10.89378,94660
10.90312,87161
10.91247,68013
10.92180,58244
10.93113,56333
10.94048,56846
10.94982,55463
10.95915,49413
10.96850,46505
10.97783,43941
10.98717,40813
10.99652,36559
11.00585,37186
11.01518,36050
11.02453,35358
11.03387,32709
11.04322,33079
11.05255,31922
11.06188,32868
11.07123,35468
11.08057,37370
11.08990,36145
11.09925,36204
11.10858,41844
11.11792,52862
11.12727,56006
11.13660,48525
11.14593,42328
11.15528,40645
11.16462,39133
11.17395,41884
11.18330,41678
11.19263,35957
11.20197,32070
11.21132,34021
11.22065,36238
11.23000,37602
11.23933,36161
11.24867,33941
11.25802,31723
11.26735,37965
11.27668,43134
11.28603,40082
11.29537,35035
11.30470,34539
11.31405,32413
11.32338,32224
11.33272,32497
11.34207,40617
11.35140,51718
11.36073,59384
11.37008,61587
11.37942,54981
11.38875,43925
11.39810,42402
11.40743,50088
11.41678,57140
11.42612,49445
11.43545,39926
11.44480,33530
11.45413,31671
11.46347,35723
11.47282,48027
11.48215,56281
11.49148,48798
11.50083,35623
11.51017,30387
11.51950,26886
11.52885,29310
11.53818,27905
11.54752,28222
11.55687,34908
11.56620,50457
11.57553,89670
11.58488,137240
11.59422,141226
11.60357,102521
11.61290,74766
11.62223,60035
11.63158,53295
11.64092,51812
11.65025,60101
11.65960,73761
11.66893,78820
11.67827,69260
11.68762,51234
11.69695,43585
11.70628,39058
11.71563,36469
11.72497,37602
11.73430,37718
11.74365,33464
11.75298,31871
11.76233,33149
11.77167,34718
11.78100,36997
11.79035,43237
11.79968,46574
11.80902,41947
11.81837,36971
11.82770,41379
11.83703,41315
11.84638,43901
11.85572,40311
11.86505,38904
11.87440,34563
11.88373,38316
11.89307,38999
11.90242,36082
11.91175,35669
11.92108,34025
11.93043,32931
11.93977,40131
11.94912,53232
11.95845,64526
11.96778,55803
11.97713,40946
11.98647,34819
11.99580,33517
12.00515,42836
12.01448,60611
12.02382,78236
12.03317,73928
12.04250,59150
12.05183,48515
12.06118,42267
12.07052,36536
12.07985,33308
12.08920,33381
12.09853,32667
12.10787,33274
12.11722,31593
12.12655,29587
12.13590,31564
12.14523,31317
12.15457,34842
12.16392,41114
12.17325,68904
12.18258,109312
12.19193,112565
12.20127,72531
12.21060,46641
12.21995,36939
12.22928,39053
12.23862,42908
12.24797,39581
12.25730,38012
12.26663,41575
12.27598,73380
12.28532,123995
12.29465,134041
12.30400,92157
12.31333,53620
12.32268,42443
12.33202,38621
12.34135,39441
12.35070,39069
12.36003,35818
12.36937,33981
12.37872,38942
12.38805,41560
12.39738,47178
12.40673,46762
12.41607,42069
12.42540,36891
12.43475,35985
12.44408,33255
12.45342,31120
12.46277,33907
12.47210,36769
12.48145,38600
12.49078,40404
12.50012,38687
12.50947,37623
12.51880,38776
12.52813,36326
12.53748,40819
12.54682,41773
12.55615,46623
12.56550,54301
12.57483,57435
12.58417,51155
12.59352,41749
12.60285,36637
12.61218,38373
12.62153,53649
12.63087,83466
12.64020,114227
12.64955,123693
12.65888,132949
12.66823,150249
12.67757,144641
12.68690,102690
12.69625,58372
12.70558,39631
12.71492,38468
12.72427,43596
12.73360,45289
12.74293,42348
12.75228,39694
12.76162,40850
12.77095,37468
12.78030,33791
12.78963,32272
12.79897,31961
12.80832,33253
12.81765,33836
12.82698,34836
12.83633,36096
12.84567,33334
12.85502,31113
12.86435,30763
12.87368,29138
12.88303,29984
12.89237,30116
12.90170,33844
12.91105,39470
12.92038,39678
12.92972,36983
12.93907,33427
12.94840,32970
12.95773,35159
12.96708,35194
12.97642,32291
12.98575,30538
12.99510,30862
13.00443,33341
13.01377,34890
13.02312,39498
13.03245,46774
13.04180,53463
13.05113,47388
13.06047,38969
13.06982,36075
13.07915,41406
13.08848,40092
13.09783,39695
13.10717,40834
13.11650,38122
13.12585,37714
13.13518,39475
13.14452,45406
13.15387,46009
13.16320,44005
13.17253,44787
13.18188,45961
13.19122,53896
13.20055,98110
13.20990,227981
13.21923,359770
13.22858,340160
13.23792,209877
13.24725,128410
13.25660,106807
13.26593,91089
13.27527,70784
13.28462,63136
13.29395,54147
13.30328,48339
13.31263,49121
13.32197,56389
13.33130,59738
13.34065,54000
13.34998,51263
13.35932,46647
13.36867,43569
13.37800,40904
13.38733,38640
13.39668,41992
13.40602,44775
13.41537,44218
13.42470,38741
13.43403,40214
13.44338,47716
13.45272,51446
13.46205,48874
13.47140,45139
13.48073,43944
13.49007,44821
13.49942,43395
13.50875,42683
13.51808,57688
13.52743,93547
13.53677,122657
13.54610,102908
13.55545,61812
13.56478,43048
13.57413,34502
13.58347,32347
13.59280,30621
13.60215,29354
13.61148,28485
13.62082,28526
13.63017,32482
13.63950,38060
13.64883,53865
13.65818,61913
13.66752,57687
13.67685,44233
13.68620,36213
13.69553,33195
13.70487,31200
13.71422,30317
13.72355,31041
13.73288,29515
13.74223,30223
13.75157,30510
13.76092,32143
13.77025,32017
13.77958,30856
13.78893,30355
13.79827,33022
13.80760,39124
13.81695,45448
13.82628,40367
13.83562,34342
13.84497,30304
13.85430,32252
13.86363,34468
13.87298,35957
13.88232,39353
13.89165,51457
13.90100,79226
13.91033,140195
13.91967,254517
13.92902,313114
13.93835,217468
13.94770,103451
13.95703,57229
13.96637,49857
13.97572,46483
13.98505,43422
13.99438,39591
14.00373,41447
14.01307,42675
14.02240,38285
14.03175,35233
14.04108,48676
14.05042,204641
14.05977,1147260
14.06910,3959490
14.07843,7036584
14.08778,6243621
14.09712,2574032
14.10645,538677
14.11580,99993
14.12513,53057
14.13448,49489
14.14382,47970
14.15315,48751
14.16250,49357
14.17183,52146
14.18117,54539
14.19052,61801
14.19985,83840
14.20918,90044
14.21853,66246
14.22787,43324
14.23720,32821
14.24655,30640
14.25588,29341
14.26522,31387
14.27457,34460
14.28390,35938
14.29325,35105
14.30258,33493
14.31192,31942
14.32127,37939
14.33060,48617
14.33993,57988
14.34928,53575
14.35862,43382
14.36795,36800
14.37730,32914
14.38663,32866
14.39597,34178
14.40532,35002
14.41465,33074
14.42398,30197
14.43333,29664
14.44267,32102
14.45200,37916
14.46135,49261
14.47068,58824
14.48003,57063
14.48937,49980
14.49870,40688
14.50805,34130
14.51738,30031
14.52672,30027
14.53607,29845
14.54540,32323
14.55473,36177
14.56408,37450
14.57342,39208
14.58275,35830
14.59210,33912
14.60143,33610
14.61077,31454
14.62012,34232
14.62945,38213
14.63878,46832
14.64813,55782
14.65747,72386
14.66682,83408
14.67615,71438
14.68548,53267
14.69483,42468
14.70417,35722
14.71350,34416
14.72285,32377
14.73218,30621
14.74152,32330
14.75087,34238
14.76020,33696
14.76953,34060
14.77888,39987
14.78822,40622
14.79755,39350
14.80690,36235
14.81623,35522
14.82557,35284
14.83492,36392
14.84425,33375
14.85360,31992
14.86293,34567
14.87227,42703
14.88162,51401
14.89095,47260
14.90028,39525
14.90963,33713
14.91897,33610
14.92830,33488
14.93765,34538
14.94698,33599
14.95632,34238
14.96567,39318
14.97500,44226
14.98433,48602
14.99368,45205
15.00302,39983
15.01235,39938
15.02170,44394
15.03103,40168
15.04038,35589
15.04972,37782
15.05905,41838
15.06840,41499
15.07773,40714
15.08707,37221
15.09642,34020
15.10575,30951
15.11508,33001
15.12443,35839
15.13377,43560
15.14310,47744
15.15245,42230
15.16178,35606
15.17112,32890
15.18047,32009
15.18980,34945
15.19913,41812
15.20848,58362
15.21782,81893
15.22717,90829
15.23650,79587
15.24583,58992
15.25518,46534
15.26452,39141
15.27385,36424
15.28320,37070
15.29253,35668
15.30187,35495
15.31122,35874
15.32055,34419
15.32988,37627
15.33923,43289
15.34857,44550
15.35790,42008
15.36725,40537
15.37658,43873
15.38593,45908
15.39527,40867
15.40460,32878
15.41395,32748
15.42328,34372
15.43262,37629
15.44197,36495
15.45130,35664
15.46063,34086
15.46998,32746
15.47932,32748
15.48865,33652
15.49800,35653
15.50733,38981
15.51667,46227
15.52602,61668
15.53535,61869
15.54468,51370
15.55403,41785
15.56337,33064
15.57272,31024
15.58205,29837
15.59138,30589
15.60073,32092
15.61007,33911
15.61940,33546
15.62875,38566
15.63808,42436
15.64742,44183
15.65677,45807
15.66610,47540
15.67543,50505
15.68478,62126
15.69412,77950
15.70345,93786
15.71280,85532
15.72213,66822
15.73147,48494
15.74082,41239
15.75015,43048
15.75950,48806
15.76883,50964
15.77817,49131
15.78752,43304
15.79685,39834
15.80618,53347
15.81553,114816
15.82487,283315
15.83420,497218
15.84355,566763
15.85288,451873
15.86222,267032
15.87157,133115
15.88090,82388
15.89023,76922
15.89958,79568
15.90892,79446
15.91825,72804
15.92760,58030
15.93693,48632
15.94628,44285
15.95562,40982
15.96495,39412
15.97430,42505
15.98363,52963
15.99297,68967
16.00232,83240
16.01165,76761
16.02098,55416
16.03033,44666
16.03967,39115
16.04900,40618
16.05835,41789
16.06768,42511
16.07702,41618
16.08637,39728
16.09570,41075
16.10505,42082
16.11438,46341
16.12372,50768
16.13307,47954
16.14240,43663
16.15173,41294
16.16108,40096
16.17042,38392
16.17975,37666
16.18910,37075
16.19843,41674
16.20777,45230
16.21712,50327
16.22645,53613
16.23578,56479
16.24513,54918
16.25447,50194
16.26380,46810
16.27315,52343
16.28248,101929
16.29183,271455
16.30117,533647
16.31050,610297
16.31985,386067
16.32918,155246
16.33852,65184
16.34787,42222
16.35720,36473
16.36653,33585
16.37588,32246
16.38522,31895
16.39455,33553
16.40390,35037
16.41323,35737
16.42257,36904
16.43192,37405
16.44125,36305
16.45058,39909
16.45993,46576
16.46927,44931
16.47862,43338
16.48795,40543
16.49728,41536
16.50663,40735
16.51597,40374
16.52530,42405
16.53465,42196
16.54398,40839
16.55332,37799
16.56267,35504
16.57200,33846
16.58133,34399
16.59068,35995
16.60002,35622
16.60935,35081
16.61870,38200
16.62803,41547
16.63737,46919
16.64672,48785
16.65605,45920
16.66540,39687
16.67473,39601
16.68407,40031
16.69342,44603
16.70275,52805
16.71208,53703
16.72143,47183
16.73077,39473
16.74010,42447
16.74945,67335
16.75878,95715
16.76812,88480
16.77747,61433
16.78680,41007
16.79613,36848
16.80548,37732
16.81482,41529
16.82415,45573
16.83350,48396
16.84283,52601
16.85218,50680
16.86152,42884
16.87085,39322
16.88020,36867
16.88953,37469
16.89887,37635
16.90822,42564
16.91755,50455
16.92688,58573
16.93623,53815
16.94557,49130
16.95490,52490
16.96425,56362
16.97358,58041
16.98292,52591
16.99227,46587
17.00160,41824
17.01095,38756
17.02028,42586
17.02962,56455
17.03897,78293
17.04830,83395
17.05763,63183
17.06698,47714
17.07632,41766
17.08565,40589
17.09500,40315
17.10433,39335
17.11367,38781
17.12302,35538
17.13235,38361
17.14168,40189
17.15103,41405
17.16037,37050
17.16970,35163
17.17905,33691
17.18838,36429
17.19773,34886
17.20707,34760
17.21640,32902
17.22575,34681
17.23508,33340
17.24442,33231
17.25377,36947
17.26310,39980
17.27243,42352
17.28178,45265
17.29112,49939
17.30045,53065
17.30980,55352
17.31913,54786
17.32847,56811
17.33782,52573
17.34715,45814
17.35648,39335
17.36583,41472
17.37517,52017
17.38452,96148
17.39385,153525
17.40318,149894
17.41253,97513
17.42187,63958
17.43120,49474
17.44055,42526
17.44988,44686
17.45922,44082
17.46857,44846
17.47790,43812
17.48723,56378
17.49658,157619
17.50592,646613
17.51525,1654174
17.52460,2144447
17.53393,1418981
17.54327,486235
17.55262,115096
17.56195,54935
17.57130,50392
17.58063,53065
17.58997,57804
17.59932,55073
17.60865,45851
17.61798,42242
17.62733,40304
17.63667,42221
17.64600,42078
17.65535,44530
17.66468,46834
17.67402,54214
17.68337,60668
17.69270,70332
17.70203,71346
17.71138,65563
17.72072,57019
17.73007,50544
17.73940,45402
17.74873,45559
17.75808,47438
17.76742,52117
17.77675,55894
17.78610,53028
17.79543,52232
17.80477,50889
17.81412,48617
17.82345,41402
17.83278,41153
17.84213,41962
17.85147,43165
17.86080,53732
17.87015,60559
17.87948,61543
17.88882,56532
17.89817,47762
17.90750,42902
17.91685,39422
17.92618,39162
17.93552,41510
17.94487,42385
17.95420,44709
17.96353,47050
17.97288,48479
17.98222,45307
17.99155,39197
18.00090,37884
18.01023,39972
18.01957,40127
18.02892,42029
18.03825,47502
18.04758,75232
18.05693,130724
18.06627,170214
18.07560,147627
18.08495,86535
18.09428,54693
18.10363,48513
18.11297,55613
18.12230,62812
18.13165,60882
18.14098,52097
18.15032,50809
18.15967,47774
18.16900,45800
18.17833,47190
18.18768,45450
18.19702,44423
18.20635,40475
18.21570,39307
18.22503,39066
18.23437,40748
18.24372,40333
18.25305,39957
18.26238,35941
18.27173,37208
18.28107,43117
18.29042,47854
18.29975,49498
18.30908,53815
18.31843,53959
18.32777,50578
18.33710,52263
18.34645,53369
18.35578,58370
18.36512,63890
18.37447,61208
18.38380,61180
18.39313,58843
18.40248,54452
18.41182,52099
18.42115,47678
18.43050,44457
18.43983,44667
18.44917,51372
18.45852,52957
18.46785,49546
18.47720,48716
18.48653,48069
18.49587,56328
18.50522,66064
18.51455,79302
18.52388,78254
18.53323,65510
18.54257,52899
18.55190,51384
18.56125,52407
18.57058,49429
18.57992,46782
18.58927,46332
18.59860,48935
18.60793,56426
18.61728,60347
18.62662,58846
18.63595,55061
18.64530,49859
18.65463,49332
18.66398,46696
18.67332,45960
18.68265,46364
18.69200,52077
18.70133,55167
18.71067,56801
18.72002,60467
18.72935,61251
18.73868,57814
18.74803,51739
18.75737,50278
18.76670,47929
18.77605,42735
18.78538,40273
18.79472,41147
18.80407,40328
18.81340,41754
18.82275,41117
18.83208,39967
18.84142,42073
18.85077,40345
18.86010,38719
18.86943,40078
18.87878,39096
18.88812,39041
18.89745,39640
18.90680,45651
18.91613,59647
18.92547,64061
18.93482,57444
18.94415,55759
18.95348,54879
18.96283,61151
18.97217,68358
18.98150,70119
18.99085,61458
19.00018,51847
19.00953,45879
19.01887,45218
19.02820,42912
19.03755,47431
19.04688,56218
19.05622,75712
19.06557,90276
19.07490,99296
19.08423,125629
19.09358,139795
19.10292,125161
19.11225,84502
19.12160,57104
19.13093,46056
19.14027,42306
19.14962,40958
19.15895,39406
19.16828,38238
19.17763,37675
19.18697,38970
19.19632,40442
19.20565,47544
19.21498,49740
19.22433,49956
19.23367,51862
19.24300,47050
19.25235,43511
19.26168,42263
19.27102,43497
19.28037,50472
19.28970,54709
19.29903,62210
19.30838,82365
19.31772,110904
19.32705,115324
19.33640,88522
19.34573,62879
19.35507,48574
19.36442,43282
19.37375,40763
19.38310,40670
19.39243,40711
19.40177,41148
19.41112,45705
19.42045,44668
19.42978,41877
19.43913,38631
19.44847,37609
19.45780,38569
19.46715,38047
19.47648,42386
19.48582,42281
19.49517,46760
19.50450,45174
19.51383,40968
19.52318,41125
19.53252,40149
19.54187,42687
19.55120,39860
19.56053,38878
19.56988,40195
19.57922,44028
19.58855,47240
19.59790,47900
19.60723,44742
19.61657,44242
19.62592,43595
19.63525,49463
19.64458,49838
19.65393,49845
19.66327,43295
19.67260,42681
19.68195,43102
19.69128,47925
19.70062,53435
19.70997,57441
19.71930,61424
19.72865,65515
19.73798,70603
19.74732,70145
19.75667,58739
19.76600,49786
19.77533,50695
19.78468,52450
19.79402,50659
19.80335,47290
19.81270,44800
19.82203,43074
19.83137,44248
19.84072,40912
19.85005,39616
19.85938,39335
19.86873,44877
19.87807,57327
19.88740,65899
19.89675,59689
19.90608,50492
19.91543,44576
19.92477,42736
19.93410,43249
19.94345,41040
19.95278,40730
19.96212,40779
19.97147,44359
19.98080,41584
19.99013,41804
19.99948,39151
20.00882,38795
20.01815,38490
20.02750,42832
20.03683,44470
20.04617,44489
20.05552,44755
20.06485,43578
20.07418,41955
20.08353,43715
20.09287,44032
20.10222,40987
20.11155,40139
20.12088,37318
20.13023,36657
20.13957,38811
20.14890,43148
20.15825,49256
20.16758,53875
20.17692,50818
20.18627,44883
20.19560,42050
20.20493,39252
20.21428,42887
20.22362,42298
20.23295,42050
20.24230,42912
20.25163,42559
20.26097,42389
20.27032,39547
20.27965,40325
20.28900,40900
20.29833,39825
20.30767,39823
20.31702,39373
20.32635,37864
20.33568,35923
20.34503,38087
20.35437,36240
20.36370,37426
20.37305,39582
20.38238,39930
20.39172,38004
20.40107,38827
20.41040,37521
20.41973,37301
20.42908,38463
20.43842,38038
20.44777,39363
20.45710,38436
20.46643,43014
20.47578,48805
20.48512,52727
20.49445,47023
20.50380,43061
20.51313,41189
20.52247,40649
20.53182,40403
20.54115,40871
20.55048,41306
20.55983,49648
20.56917,81759
20.57850,165453
20.58785,224692
20.59718,175967
20.60652,97604
20.61587,59854
20.62520,51116
20.63455,48144
20.64388,47244
20.65322,49024
20.66257,46969
20.67190,46281
20.68123,45200
20.69058,47012
20.69992,45868
20.70925,46335
20.71860,47185
20.72793,49313
20.73727,46216
20.74662,47945
20.75595,45542
20.76528,46799
20.77463,44368
20.78397,43737
20.79330,50145
20.80265,54274
20.81198,54838
20.82133,51319
20.83067,47640
20.84000,46506
20.84935,48056
20.85868,47151
20.86802,49968
20.87737,48346
20.88670,46833
20.89603,46174
20.90538,47382
20.91472,46649
20.92405,48824
20.93340,45938
20.94273,42985
20.95207,43257
20.96142,43550
20.97075,44066
20.98008,43408
20.98943,42598
20.99877,45624
21.00812,47346
21.01745,49517
21.02678,46999
21.03613,46179
21.04547,48635
21.05480,47178
21.06415,50602
21.07348,44762
21.08282,44128
21.09217,41773
21.10150,40803
21.11083,43901
21.12018,47043
21.12952,49653
21.13885,46842
21.14820,46269
21.15753,44762
21.16688,48010
21.17622,55360
21.18555,68690
21.19490,82097
21.20423,71054
21.21357,59417
21.22292,51402
21.23225,45844
21.24158,46560
21.25093,46619
21.26027,48599
21.26960,49711
21.27895,50363
21.28828,57287
21.29762,57697
21.30697,52204
21.31630,49139
21.32563,45838
21.33498,47174
21.34432,48804
21.35367,46586
21.36300,45965
21.37233,44436
21.38168,43368
21.39102,45620
21.40035,49462
21.40970,50901
21.41903,48975
21.42837,52224
21.43772,49900
21.44705,47594
21.45638,46466
21.46573,45714
21.47507,47538
21.48440,49585
21.49375,50891
21.50308,54187
21.51242,51894
21.52177,49703
21.53110,45043
21.54045,47299
21.54978,49902
21.55912,53799
21.56847,70267
21.57780,86925
21.58713,93430
21.59648,76440
21.60582,58289
21.61515,53784
21.62450,49735
21.63383,52342
21.64317,55317
21.65252,53164
21.66185,51249
21.67118,53060
21.68053,63773
21.68987,68412
21.69920,64201
21.70855,61666
21.71788,61750
21.72723,67852
21.73657,65473
21.74590,57719
21.75525,52679
21.76458,48503
21.77392,48513
21.78327,46734
21.79260,45354
21.80193,48696
21.81128,55629
21.82062,63518
21.82995,65344
21.83930,61002
21.84863,53645
21.85797,51613
21.86732,51840
21.87665,54852
21.88598,61269
21.89533,63740
21.90467,63558
21.91402,58997
21.92335,56113
21.93268,52906
21.94203,48517
21.95137,50575
21.96070,52480
21.97005,59202
21.97938,65708
21.98872,72700
21.99807,76832
22.00740,74845
22.01673,63817
22.02608,58656
22.03542,58401
22.04475,66824
22.05410,75268
22.06343,71963
22.07277,67615
22.08212,69017
22.09145,74496
22.10080,68452
22.11013,64044
22.11947,58483
22.12882,56644
22.13815,52953
22.14748,54673
22.15683,64243
22.16617,80313
22.17550,88469
22.18485,84286
22.19418,71569
22.20352,62515
22.21287,62688
22.22220,68091
22.23153,71100
22.24088,72685
22.25022,68362
22.25957,66124
22.26890,66964
22.27823,78872
22.28758,91221
22.29692,96055
22.30625,89075
22.31560,76954
22.32493,64845
22.33427,59056
22.34362,60345
22.35295,71153
22.36228,77429
22.37163,88257
22.38097,92754
22.39030,89248
22.39965,84559
22.40898,71007
22.41832,66641
22.42767,67287
22.43700,74465
22.44635,79362
22.45568,75865
22.46502,67005
22.47437,63062
22.48370,60348
22.49303,62427
22.50238,62353
22.51172,59862
22.52105,60850
22.53040,59440
22.53973,56369
22.54907,53028
22.55842,56375
22.56775,60944
22.57708,71339
22.58643,71231
22.59577,71680
22.60510,70030
22.61445,71968
22.62378,72289
22.63313,71046
22.64247,68673
22.65180,65050
22.66115,57675
22.67048,56687
22.67982,58827
22.68917,71787
22.69850,78686
22.70783,73907
22.71718,67103
22.72652,66304
22.73585,71066
22.74520,79387
22.75453,73695
22.76387,70050
22.77322,67672
22.78255,63786
22.79188,66175
22.80123,74531
22.81057,81756
22.81992,80777
22.82925,73793
22.83858,67731
22.84793,65013
22.85727,60294
22.86660,58843
22.87595,59712
22.88528,61443
22.89462,58880
22.90397,58718
22.91330,61867
22.92263,63573
22.93198,72930
22.94132,68844
22.95065,64301
22.96000,60721
22.96933,56752
22.97868,54233
22.98802,49455
22.99735,48060
23.00670,48096
23.01603,46427
23.02537,48152
23.03472,47507
23.04405,49508
23.05338,52587
23.06273,51894
23.07207,50645
23.08140,46780
23.09075,47532
23.10008,46932
23.10942,44022
23.11877,44252
23.12810,46685
23.13743,46163
23.14678,46927
23.15612,48781
23.16547,48080
23.17480,48512
23.18413,47216
23.19348,47118
23.20282,47561
23.21215,50399
23.22150,49544
23.23083,56077
23.24017,56785
23.24952,57680
23.25885,58877
23.26818,60482
23.27753,56208
23.28687,55929
23.29620,51186
23.30555,48603
23.31488,46246
23.32422,52391
23.33357,56573
23.34290,67617
23.35225,70021
23.36158,59701
23.37092,52311
23.38027,47080
23.38960,48099
23.39893,50227
23.40828,51800
23.41762,47894
23.42695,47506
23.43630,46825
23.44563,48194
23.45497,48089
23.46432,45233
23.47365,45278
23.48298,43277
23.49233,42583
23.50167,42215
23.51100,43956
23.52035,43363
23.52968,42385
23.53903,45802
23.54837,44975
23.55770,46269
23.56705,45994
23.57638,46516
23.58572,48022
23.59507,46402
23.60440,46173
23.61373,43268
23.62308,42749
23.63242,40749
23.64175,40536
23.65110,38623
23.66043,38699
23.66977,39618
23.67912,41747
23.68845,44618
23.69778,47673
23.70713,48346
23.71647,47820
23.72582,50644
23.73515,54059
23.74448,55115
23.75383,50599
23.76317,44262
23.77250,42638
23.78185,41656
23.79118,40620
23.80052,42886
23.80987,43373
23.81920,41383
23.82853,42312
23.83788,41452
23.84722,39367
23.85655,37725
23.86590,39413
23.87523,40132
23.88458,40696
23.89392,41242
23.90325,42071
23.91260,44565
23.92193,41069
23.93127,41222
23.94062,41402
23.94995,41406
23.95928,40836
23.96863,37531
23.97797,37851
23.98730,39712
23.99665,39805
24.00598,41529
24.01532,40806
24.02467,41110
24.03400,42039
24.04333,40801
24.05268,39782
24.06202,38400
24.07137,38247
24.08070,40348
24.09003,40242
24.09938,42282
24.10872,40168
24.11805,40426
24.12740,38896
24.13673,39542
24.14607,39187
24.15542,39567
24.16475,39291
24.17408,37782
24.18343,39606
24.19277,39100
24.20210,39720
24.21145,38642
24.22078,38975
24.23012,40671
24.23947,40715
24.24880,41530
24.25815,40899
24.26748,39212
24.27682,39769
24.28617,39676
24.29550,42586
24.30483,43302
24.31418,44566
24.32352,43574
24.33285,45206
24.34220,46424
24.35153,43456
24.36087,39587
24.37022,39103
24.37955,39194
24.38888,41759
24.39823,43419
24.40757,44477
24.41690,42531
24.42625,41883
24.43558,41029
24.44493,41142
24.45427,40849
24.46360,39698
24.47295,39245
24.48228,39129
24.49162,41169
24.50097,41271
24.51030,42073
24.51963,43373
24.52898,43676
24.53832,41604
24.54765,40879
24.55700,41462
24.56633,42345
24.57567,41158
24.58502,39509
24.59435,41513
24.60370,42677
24.61303,46359
24.62237,46137
24.63172,44927
24.64105,44043
24.65038,41668
24.65973,44118
24.66907,44794
24.67840,48660
24.68775,47603
24.69708,42973
24.70642,43106
24.71577,44849
24.72510,45551
24.73443,41910
24.74378,40880
24.75312,41472
24.76245,42434
24.77180,41109
24.78113,42038
24.79048,40142
24.79982,40333
24.80915,42552
24.81850,41941
24.82783,40585
24.83717,42822
24.84652,41116
24.85585,40228
24.86518,42009
24.87453,44713
24.88387,43980
24.89320,44561
24.90255,42385
24.91188,43595
24.92122,43431
24.93057,43774
24.93990,43799
24.94923,44076
24.95858,45510
24.96792,42400
24.97727,46441
24.98660,43029
24.99593,43798
25.00528,41167
25.01462,44036
25.02395,40897
25.03330,38289
25.04263,40750
25.05197,40335
25.06132,42107
25.07065,42879
25.07998,41995
25.08933,41052
25.09867,43005
25.10800,40916
25.11735,41159
25.12668,42392
25.13602,41937
25.14537,44316
25.15470,44851
25.16405,47894
25.17338,43717
25.18272,43948
25.19207,44038
25.20140,43193
25.21073,43663
25.22008,43577
25.22942,44215
25.23875,43726
25.24810,43018
25.25743,43787
25.26677,43815
25.27612,43038
25.28545,44546
25.29478,44474
25.30413,46945
25.31347,48752
25.32280,67958
25.33215,115391
25.34148,171676
25.35083,177995
25.36017,129699
25.36950,90635
25.37885,73984
25.38818,65669
25.39752,63753
25.40687,59405
25.41620,60814
25.42553,59671
25.43488,59394
25.44422,58172
25.45355,55775
25.46290,57392
25.47223,59778
25.48157,60376
25.49092,66015
25.50025,66556
25.50958,66797
25.51893,63142
25.52827,64243
25.53762,63241
25.54695,61984
25.55628,62568
25.56563,58965
25.57497,62016
25.58430,58399
25.59365,57876
25.60298,56554
25.61232,55517
25.62167,55815
25.63100,54315
25.64033,53620
25.64968,53574
25.65902,57701
25.66835,58017
25.67770,58094
25.68703,53675
25.69638,54505
25.70572,54586
25.71505,51712
25.72440,52441
25.73373,52741
25.74307,52984
25.75242,55094
25.76175,56495
25.77108,54219
25.78043,53148
25.78977,53732
25.79910,53227
25.80845,57323
25.81778,58926
25.82712,58793
25.83647,58041
25.84580,56616
25.85513,57169
25.86448,53230
25.87382,53201
25.88317,52535
25.89250,51683
25.90183,51430
25.91118,50025
25.92052,50484
25.92985,52728
25.93920,52786
25.94853,55779
25.95787,56630
25.96722,58444
25.97655,55100
25.98588,52153
25.99523,54034
26.00457,52738
26.01390,52512
26.02325,53645
26.03258,54414
26.04192,56480
26.05127,61087
26.06060,59505
26.06995,59116
26.07928,60458
26.08862,55690
26.09797,57700
26.10730,54529
26.11663,54989
26.12598,55478
26.13532,60113
26.14465,64624
26.15400,68028
26.16333,70263
26.17267,67370
26.18202,65875
26.19135,61804
26.20068,58418
26.21003,56287
26.21937,52933
26.22870,52893
26.23805,52744
26.24738,52890
26.25673,51560
26.26607,52973
26.27540,52125
26.28475,54163
26.29408,54428
26.30342,56724
26.31277,55499
26.32210,57257
26.33143,55713
26.34078,55016
26.35012,56899
26.35945,56745
26.36880,54301
26.37813,53185
26.38747,53995
26.39682,53396
26.40615,50208
26.41550,53151
26.42483,51199
26.43417,49198
26.44352,53447
26.45285,51286
26.46218,53401
26.47153,56428
26.48087,53900
26.49020,54085
26.49955,52601
26.50888,54074
26.51822,53429
26.52757,57473
26.53690,61150
26.54623,62485
26.55558,62253
26.56492,62105
26.57425,59688
26.58360,59183
26.59293,57817
26.60228,59496
26.61162,59823
26.62095,61399
26.63030,60316
26.63963,56706
26.64897,55895
26.65832,56628
26.66765,56983
26.67698,58986
26.68633,56681
26.69567,53746
26.70500,53998
26.71435,51912
26.72368,53725
26.73302,50316
26.74237,51564
26.75170,52831
26.76103,53239
26.77038,52845
26.77972,54263
26.78907,53681
26.79840,55388
26.80773,54523
26.81708,53906
26.82642,53964
26.83575,55411
26.84510,54811
26.85443,54541
26.86377,56694
26.87312,55866
26.88245,54663
26.89178,52248
26.90113,51446
26.91047,52922
26.91980,51279
26.92915,53655
26.93848,51370
26.94782,53099
26.95717,51911
26.96650,51310
26.97585,51383
26.98518,51885
26.99452,53147
27.00387,56700
27.01320,59462
27.02253,59091
27.03188,57996
27.04122,56316
27.05055,58333
27.05990,54282
27.06923,57220
27.07857,56478
27.08792,55672
27.09725,54107
27.10658,53891
27.11593,56480
27.12527,57537
27.13460,57767
27.14395,59881
27.15328,58177
27.16263,58654
27.17197,58294
27.18130,54952
27.19065,56027
27.19998,56629
27.20932,59160
27.21867,60072
27.22800,61823
27.23733,62761
27.24668,65708
27.25602,74108
27.26535,77289
27.27470,75676
27.28403,73143
27.29337,68453
27.30272,65033
27.31205,66615
27.32140,66385
27.33073,68161
27.34007,62384
27.34942,64841
27.35875,61464
27.36808,60464
27.37743,59517
27.38677,61053
27.39610,59606
27.40545,60300
27.41478,59858
27.42412,60349
27.43347,61524
27.44280,59882
27.45213,58413
27.46148,60375
27.47082,62008
27.48015,62332
27.48950,66390
27.49883,72079
27.50818,76476
27.51752,82161
27.52685,83570
27.53620,85086
27.54553,84436
27.55487,86251
27.56422,81461
27.57355,78257
27.58288,77982
27.59223,75648
27.60157,72154
27.61090,67140
27.62025,64617
27.62958,65550
27.63892,67366
27.64827,64219
27.65760,64734
27.66693,71098
27.67628,86594
27.68562,97401
27.69497,93315
27.70430,82401
27.71363,73581
27.72298,70561
27.73232,66284
27.74165,64800
27.75100,62367
27.76033,63594
27.76967,62254
27.77902,66198
27.78835,63587
27.79768,62375
27.80703,60890
27.81637,62239
27.82570,61129
27.83505,60841
27.84438,61777
27.85372,60677
27.86307,61164
27.87240,57715
27.88175,61910
27.89108,59905
27.90042,63012
27.90977,61330
27.91910,62618
27.92843,63381
27.93778,61141
27.94712,61752
27.95645,58968
27.96580,59586
27.97513,59577
27.98447,57440
27.99382,55950
28.00315,58893
28.01248,59141
28.02183,59650
28.03117,57113
28.04052,57621
28.04985,56658
28.05918,57659
28.06853,57653
28.07787,58647
28.08720,58456
28.09655,61718
28.10588,62268
28.11522,66050
28.12457,80293
28.13390,89080
28.14323,85359
28.15258,76355
28.16192,70105
28.17125,69161
28.18060,66548
28.18993,64199
28.19927,64549
28.20862,62963
28.21795,62359
28.22730,62842
28.23663,62034
28.24597,59625
28.25532,61189
28.26465,61378
28.27398,59828
28.28333,60886
28.29267,62099
28.30200,61381
28.31135,61207
28.32068,62541
28.33002,60589
28.33937,60414
28.34870,60917
28.35803,61106
28.36738,60589
28.37672,59262
28.38605,62670
28.39540,60176
28.40473,60676
28.41408,62263
28.42342,61280
28.43275,60304
28.44210,61159
28.45143,63572
28.46077,64363
28.47012,63108
28.47945,63349
28.48878,62655
28.49813,61576
28.50747,59588
28.51680,65220
28.52615,62560
28.53548,63318
28.54482,62094
28.55417,63419
28.56350,66504
28.57283,63652
28.58218,67365
28.59152,68075
28.60087,68718
28.61020,75476
28.61953,71137
28.62888,71086
28.63822,69352
28.64755,68846
28.65690,71941
28.66623,78884
28.67557,102519
28.68492,131522
28.69425,134864
28.70358,117474
28.71293,97905
28.72227,81418
28.73160,74383
28.74095,74501
28.75028,71151
28.75962,72814
28.76897,68241
28.77830,69589
28.78765,70214
28.79698,70040
28.80632,68332
28.81567,69415
28.82500,71788
28.83433,67621
28.84368,71607
28.85302,68561
28.86235,69994
28.87170,68260
28.88103,69064
28.89037,67131
28.89972,67565
28.90905,68120
28.91838,67339
28.92773,67532
28.93707,68571
28.94640,69158
28.95575,72304
28.96508,71905
28.97443,93351
28.98377,78807
28.99310,75561
29.00245,73722
29.01178,72444
29.02112,75646
29.03047,71232
29.03980,74797
29.04913,71204
29.05848,69899
29.06782,70574
29.07715,70304
29.08650,70425
29.09583,70268
29.10517,72275
29.11452,70703
29.12385,69118
29.13320,71174
29.14253,71617
29.15187,71303
29.16122,70527
29.17055,72923
29.17988,73784
29.18923,86511
29.19857,120816
29.20790,166232
29.21725,189875
29.22658,171707
29.23592,133625
29.24527,106857
29.25460,92568
29.26393,89867
29.27328,84418
29.28262,81780
29.29195,82123
29.30130,78508
29.31063,79084
29.31998,77980
29.32932,76607
29.33865,75935
29.34800,75176
29.35733,77881
29.36667,73935
29.37602,77132
29.38535,75684
29.39468,75199
29.40403,74663
29.41337,74397
29.42270,76172
29.43205,74489
29.44138,76766
29.45072,77215
29.46007,78470
29.46940,82775
29.47873,84488
29.48808,82156
29.49742,83850
29.50677,80527
29.51610,77419
29.52543,75898
29.53478,74275
29.54412,73979
29.55345,74044
29.56280,74334
29.57213,74720
29.58147,74424
29.59082,74327
29.60015,75827
29.60948,74015
29.61883,73574
29.62817,72551
29.63750,73098
29.64685,74691
29.65618,73042
29.66552,74163
29.67487,74767
29.68420,72726
29.69355,73216
29.70288,73455
29.71222,72888
29.72157,76007
29.73090,75181
29.74023,77798
29.74958,77145
29.75892,77616
29.76825,77372
29.77760,75497
29.78693,74242
29.79627,75077
29.80562,73658
29.81495,74678
29.82428,73238
29.83363,69874
29.84297,72447
29.85232,73386
29.86165,72630
29.87098,73495
29.88033,73462
29.88967,73351
29.89900,72695
29.90835,73415
29.91768,75355
29.92702,74708
29.93637,75076
29.94570,74994
29.95503,74725
29.96438,76192
29.97372,76801
29.98305,79298
29.99240,82855
30.00173,82922
30.01107,82468
30.02042,78802
30.02975,77750
30.03910,75477
30.04843,73270
30.05777,74507
30.06712,73980
30.07645,74853
30.08578,74518
30.09513,75284
30.10447,78471
30.11380,79025
30.12315,81848
30.13248,89987
30.14182,95092
30.15117,97733
30.16050,103433
30.16983,104020
30.17918,105965
30.18852,102708
30.19785,102422
30.20720,100526
30.21653,98423
30.22588,92406
30.23522,92083
30.24455,87646
30.25390,87666
30.26323,84126
30.27257,83481
30.28192,84436
30.29125,82040
30.30058,81696
30.30993,81004
30.31927,79564
30.32860,80777
30.33795,79437
30.34728,78825
30.35662,81807
30.36597,84296
30.37530,93522
30.38463,111467
30.39398,165773
30.40332,252548
30.41267,329387
30.42200,325640
30.43133,275472
30.44068,203563
30.45002,154048
30.45935,127970
30.46870,110670
30.47803,106624
30.48737,100059
30.49672,97253
30.50605,94898
30.51538,88411
30.52473,87303
30.53407,84574
30.54340,83799
30.55275,85258
30.56208,82252
30.57142,82141
30.58077,83039
30.59010,84559
30.59945,84782
30.60878,88180
30.61812,91462
30.62747,93710
30.63680,93243
30.64613,99503
30.65548,100790
30.66482,102900
30.67415,101021
30.68350,100567
30.69283,97337
30.70217,95555
30.71152,91772
30.72085,91104
30.73018,88965
30.73953,87508
30.74887,85834
30.75822,85797
30.76755,85077
30.77688,83717
30.78623,85454
30.79557,87532
30.80490,86750
30.81425,87444
30.82358,83265
30.83292,84329
30.84227,83864
30.85160,85996
30.86093,84767
30.87028,85171
30.87962,87965
30.88895,88364
30.89830,89200
30.90763,87680
30.91697,88467
30.92632,88212
30.93565,91214
30.94500,90871
30.95433,90035
30.96367,92245
30.97302,91793
30.98235,93502
30.99168,92246
31.00103,90069
31.01037,90343
31.01970,90551
31.02905,89821
31.03838,89585
31.04772,88405
31.05707,85065
31.06640,85894
31.07573,85711
31.08508,86561
31.09442,84280
31.10375,87523
31.11310,84555
31.12243,86914
31.13178,85387
31.14112,88353
31.15045,87050
31.15980,87410
31.16913,90999
31.17847,93721
31.18782,90515
31.19715,90157
31.20648,95403
31.21583,95132
31.22517,93456
31.23450,95487
31.24385,92095
31.25318,95382
31.26252,94505
31.27187,95008
31.28120,95541
31.29053,94950
31.29988,91118
31.30922,89630
31.31857,92003
31.32790,89089
31.33723,90593
31.34658,91118
31.35592,86832
31.36525,87437
