D:\数据\20211119\ZS1E-Z-000010.D Fri Nov 19 21:04:41 2021
Start of data points
0.09742,46541
0.10675,45518
0.11610,45962
0.12543,44508
0.13477,43613
0.14412,45628
0.15345,43951
0.16280,43700
0.17213,43359
0.18147,42641
0.19082,44144
0.20015,43604
0.20948,43599
0.21883,43411
0.22817,42132
0.23750,41155
0.24685,42359
0.25618,41876
0.26552,40107
0.27487,43104
0.28420,40182
0.29353,41500
0.30288,41836
0.31222,40882
0.32155,39261
0.33090,43177
0.34023,40205
0.34958,40376
0.35892,42698
0.36825,40746
0.37760,39100
0.38693,38562
0.39627,38957
0.40562,39984
0.41495,41023
0.42428,38886
0.43363,35149
0.44297,31086
0.45230,29061
0.46165,21320
0.47098,16820
0.48032,17048
0.48967,15370
0.49900,17005
0.50833,14562
0.51768,14918
0.52702,15618
0.53637,14388
0.54570,15391
0.55503,13493
0.56438,13424
0.57372,13028
0.58305,13355
0.59240,14561
0.60173,14080
0.61107,12987
0.62042,13624
0.62975,14175
0.63908,13794
0.64843,13789
0.65777,13426
0.66710,13320
0.67645,12661
0.68578,13491
0.69513,14289
0.70447,12427
0.71380,13168
0.72315,12842
0.73248,12976
0.74182,13876
0.75117,13276
0.76050,13404
0.76983,13021
0.77918,12362
0.78852,12883
0.79785,12728
0.80720,13622
0.81653,13748
0.82587,12352
0.83522,11903
0.84455,11167
0.85388,11996
0.86323,11942
0.87257,13603
0.88192,11711
0.89125,12389
0.90058,12677
0.90993,12177
0.91927,11092
0.92860,11944
0.93795,11886
0.94728,13578
0.95662,12121
0.96597,11871
0.97530,10394
0.98463,12124
0.99398,11473
1.00332,10965
1.01265,11582
1.02200,11883
1.03133,10897
1.04067,12210
1.05002,11966
1.05935,12206
1.06870,11005
1.07803,11744
1.08737,10986
1.09672,11740
1.10605,11208
1.11538,11943
1.12473,11412
1.13407,12062
1.14340,10726
1.15275,11196
1.16208,12485
1.17142,11497
1.18077,11316
1.19010,10035
1.19943,12131
1.20878,11692
1.21812,10857
1.22745,10366
1.23680,11814
1.24613,11778
1.25548,12305
1.26482,11062
1.27415,12021
1.28350,10629
1.29283,10490
1.30217,10816
1.31152,10725
1.32085,11495
1.33018,10521
1.33953,11371
1.34887,10286
1.35820,11028
1.36755,11734
1.37688,10697
1.38622,11614
1.39557,10864
1.40490,11116
1.41423,11854
1.42358,11170
1.43292,10108
1.44227,10906
1.45160,10266
1.46093,9938
1.47028,9913
1.47962,12579
1.48895,11288
1.49830,10485
1.50763,10546
1.51697,10130
1.52632,11653
1.53565,10172
1.54498,10571
1.55433,11244
1.56367,10196
1.57300,9469
1.58235,10848
1.59168,12086
1.60102,17488
1.61037,24805
1.61970,33014
1.62905,39460
1.63838,50993
1.64772,72241
1.65707,80519
1.66640,82080
1.67573,77150
1.68508,68213
1.69442,56457
1.70375,42432
1.71310,33439
1.72243,33151
1.73177,34427
1.74112,37287
1.75045,43167
1.75978,47891
1.76913,51346
1.77847,52775
1.78782,52359
1.79715,51702
1.80648,51785
1.81583,50431
1.82517,52489
1.83450,51048
1.84385,52374
1.85318,51763
1.86252,52371
1.87187,60369
1.88120,98003
1.89053,160551
1.89988,215699
1.90922,245455
1.91855,341169
1.92790,691761
1.93723,1394237
1.94657,2451923
1.95592,3222826
1.96525,3149678
1.97460,2540777
1.98393,1881070
1.99327,1409778
2.00262,1127260
2.01195,1000551
2.02128,908958
2.03063,755378
2.03997,563039
2.04930,402740
2.05865,305220
2.06798,230396
2.07732,179060
2.08667,146468
2.09600,138611
2.10533,137762
2.11468,120885
2.12402,119088
2.13335,166547
2.14270,238755
2.15203,237134
2.16138,183997
2.17072,146562
2.18005,136053
2.18940,172264
2.19873,221268
2.20807,189171
2.21742,138197
2.22675,125072
2.23608,161650
2.24543,269946
2.25477,930672
2.26410,2406435
2.27345,2589883
2.28278,1878382
2.29212,1138132
2.30147,759374
2.31080,1722003
2.32013,5328225
2.32948,6988024
2.33882,4564366
2.34817,2100148
2.35750,917349
2.36683,454113
2.37618,287778
2.38552,240229
2.39485,218916
2.40420,192087
2.41353,180333
2.42287,156670
2.43222,151686
2.44155,140715
2.45088,123034
2.46023,116228
2.46957,139962
2.47890,179966
2.48825,182539
2.49758,154888
2.50693,123758
2.51627,106792
2.52560,97569
2.53495,92543
2.54428,91587
2.55362,97169
2.56297,131345
2.57230,157740
2.58163,217396
2.59098,208909
2.60032,167662
2.60965,144177
2.61900,132778
2.62833,155954
2.63767,191438
2.64702,196164
2.65635,199680
2.66568,189826
2.67503,165450
2.68437,131826
2.69372,103670
2.70305,88521
2.71238,87124
2.72173,109876
2.73107,159298
2.74040,214887
2.74975,264891
2.75908,315291
2.76842,490931
2.77777,1216966
2.78710,2055752
2.79643,2059163
2.80578,1524067
2.81512,1047092
2.82445,786529
2.83380,612711
2.84313,450965
2.85247,322561
2.86182,256155
2.87115,276769
2.88050,323589
2.88983,286676
2.89917,211433
2.90852,169245
2.91785,147025
2.92718,140622
2.93653,135132
2.94587,119165
2.95520,108571
2.96455,100797
2.97388,99887
2.98322,95110
2.99257,91612
3.00190,109313
3.01123,159956
3.02058,195902
3.02992,169905
3.03925,157656
3.04860,205112
3.05793,203206
3.06728,179332
3.07662,160289
3.08595,152788
3.09530,131835
3.10463,108035
3.11397,88755
3.12332,79984
3.13265,78346
3.14198,82132
3.15133,85686
3.16067,94861
3.17000,99169
3.17935,96442
3.18868,90352
3.19802,80310
3.20737,81875
3.21670,85328
3.22603,82708
3.23538,79378
3.24472,76012
3.25407,73696
3.26340,72699
3.27273,72671
3.28208,68392
3.29142,69166
3.30075,75080
3.31010,86260
3.31943,92262
3.32877,84545
3.33812,79329
3.34745,77719
3.35678,76429
3.36613,77132
3.37547,80292
3.38480,73387
3.39415,70308
3.40348,66964
3.41283,72306
3.42217,87848
3.43150,95399
3.44085,92399
3.45018,101095
3.45952,123349
3.46887,118124
3.47820,103175
3.48753,92830
3.49688,87671
3.50622,85309
3.51555,79129
3.52490,78052
3.53423,73956
3.54357,73288
3.55292,84255
3.56225,172645
3.57158,411733
3.58093,640562
3.59027,575033
3.59962,357586
3.60895,216203
3.61828,230660
3.62763,206424
3.63697,168037
3.64630,146275
3.65565,125063
3.66498,114533
3.67432,112781
3.68367,126538
3.69300,126925
3.70233,107513
3.71168,92884
3.72102,89858
3.73035,101963
3.73970,118279
3.74903,113459
3.75837,99625
3.76772,84906
3.77705,78117
3.78640,76477
3.79573,78276
3.80507,82414
3.81442,140459
3.82375,333043
3.83308,555404
3.84243,534762
3.85177,327334
3.86110,176003
3.87045,114599
3.87978,99567
3.88912,98020
3.89847,97784
3.90780,103521
3.91713,108896
3.92648,109325
3.93582,108740
3.94515,131138
3.95450,192852
3.96383,237470
3.97318,221430
3.98252,191150
3.99185,170218
4.00120,165764
4.01053,173304
4.01987,185903
4.02922,198278
4.03855,205991
4.04788,167340
4.05723,182827
4.06657,179662
4.07590,173183
4.08525,186745
4.09458,202817
4.10392,194981
4.11327,167679
4.12260,126836
4.13195,104844
4.14128,89897
4.15062,88658
4.15997,89004
4.16930,86205
4.17863,84603
4.18798,77311
4.19732,74794
4.20665,79901
4.21600,88961
4.22533,91150
4.23467,85320
4.24402,90893
4.25335,88085
4.26268,1108453
4.27203,1239921
4.28137,1051553
4.29070,815929
4.30005,606070
4.30938,453742
4.31873,342994
4.32807,275761
4.33740,232472
4.34675,199383
4.35608,165325
4.36542,133465
4.37477,110510
4.38410,100931
4.39343,98044
4.40278,96424
4.41212,86958
4.42145,78428
4.43080,74227
4.44013,72972
4.44947,74667
4.45882,74559
4.46815,77018
4.47748,80768
4.48683,97296
4.49617,107410
4.50552,101721
4.51485,89350
4.52418,83247
4.53353,79410
4.54287,78799
4.55220,82065
4.56155,78867
4.57088,77851
4.58022,80667
4.58957,77191
4.59890,73714
4.60823,71762
4.61758,72964
4.62692,69822
4.63625,66560
4.64560,72362
4.65493,83603
4.66427,91234
4.67362,86633
4.68295,84071
4.69230,79618
4.70163,83585
4.71097,88513
4.72032,89870
4.72965,78339
4.73898,75084
4.74833,79871
4.75767,80642
4.76700,78776
4.77635,76975
4.78568,75775
4.79502,75075
4.80437,75696
4.81370,73653
4.82303,74446
4.83238,75420
4.84172,80007
4.85105,80746
4.86040,81873
4.86973,81573
4.87908,90855
4.88842,97430
4.89775,95445
4.90710,90812
4.91643,88247
4.92577,82764
4.93512,79670
4.94445,78902
4.95378,79819
4.96313,76787
4.97247,70239
4.98180,66087
4.99115,67859
5.00048,68883
5.00982,75523
5.01917,86223
5.02850,90403
5.03783,88976
5.04718,88933
5.05652,82485
5.06587,98886
5.07520,98105
5.08453,100967
5.09388,104581
5.10322,99301
5.11255,94632
5.12190,88900
5.13123,83988
5.14057,83078
5.14992,93844
5.15925,107574
5.16858,102499
5.17793,90562
5.18727,87141
5.19660,95025
5.20595,102014
5.21528,95244
5.22463,84473
5.23397,76615
5.24330,79089
5.25265,81797
5.26198,77410
5.27132,90592
5.28067,184139
5.29000,403914
5.29933,608359
5.30868,559094
5.31802,345108
5.32735,197729
5.33670,145587
5.34603,121391
5.35537,99432
5.36472,83544
5.37405,76421
5.38338,81109
5.39273,97224
5.40207,109428
5.41142,105900
5.42075,97876
5.43008,85195
5.43943,76344
5.44877,69912
5.45810,63922
5.46745,64113
5.47678,63284
5.48612,63605
5.49547,63637
5.50480,69334
5.51413,75459
5.52348,89193
5.53282,126575
5.54215,178213
5.55150,173332
5.56083,139660
5.57017,113776
5.57952,110160
5.58885,118003
5.59820,126459
5.60753,126788
5.61687,107153
5.62622,88345
5.63555,78975
5.64488,75888
5.65423,75194
5.66357,81236
5.67290,110841
5.68225,125847
5.69158,114304
5.70092,96415
5.71027,88346
5.71960,86884
5.72893,87787
5.73828,82752
5.74762,107720
5.75695,143793
5.76630,173616
5.77563,179944
5.78498,151489
5.79432,112776
5.80365,86557
5.81300,75590
5.82233,73904
5.83167,86772
5.84102,104166
5.85035,103249
5.85968,86087
5.86903,77297
5.87837,72518
5.88770,71541
5.89705,67094
5.90638,65494
5.91572,93425
5.92507,170863
5.93440,241980
5.94375,238574
5.95308,228102
5.96242,209110
5.97177,161782
5.98110,113851
5.99043,84549
5.99978,74798
6.00912,69635
6.01845,65989
6.02780,62748
6.03713,56776
6.04647,51189
6.05582,46758
6.06515,46005
6.07448,46153
6.08383,44374
6.09317,40937
6.10250,37134
6.11185,35044
6.12118,38245
6.13053,45515
6.13987,56080
6.14920,61459
6.15855,53813
6.16788,44855
6.17722,40946
6.18657,39114
6.19590,39163
6.20523,37509
6.21458,36491
6.22392,42635
6.23325,58752
6.24260,72098
6.25193,64884
6.26127,55338
6.27062,55076
6.27995,74594
6.28928,85513
6.29863,71974
6.30797,52406
6.31732,41152
6.32665,36235
6.33598,35704
6.34533,36938
6.35467,38066
6.36400,39714
6.37335,40141
6.38268,52588
6.39202,91262
6.40137,289876
6.41070,1114374
6.42003,2423920
6.42938,2704539
6.43872,1651951
6.44805,622341
6.45740,201340
6.46673,89352
6.47607,64364
6.48542,56599
6.49475,48992
6.50410,47534
6.51343,45030
6.52277,45578
6.53212,45105
6.54145,41981
6.55078,40657
6.56013,40746
6.56947,38222
6.57880,37658
6.58815,43767
6.59748,48591
6.60682,52788
6.61617,53535
6.62550,50447
6.63483,49810
6.64418,50958
6.65352,52661
6.66285,55513
6.67220,55205
6.68153,50588
6.69088,54654
6.70022,70395
6.70955,73901
6.71890,70048
6.72823,61508
6.73757,52748
6.74692,45979
6.75625,42929
6.76558,40484
6.77493,40860
6.78427,45353
6.79360,49695
6.80295,57934
6.81228,59385
6.82162,53451
6.83097,48071
6.84030,44829
6.84965,48798
6.85898,50393
6.86832,49344
6.87767,45598
6.88700,43153
6.89633,40027
6.90568,42738
6.91502,49723
6.92435,53087
6.93370,48069
6.94303,43702
6.95237,42124
6.96172,44230
6.97105,45286
6.98038,46908
6.98973,43495
6.99907,41420
7.00840,39514
7.01775,39745
7.02708,39227
7.03643,36861
7.04577,32170
7.05510,33097
7.06445,31591
7.07378,30468
7.08312,34566
7.09247,36505
7.10180,43026
7.11113,48418
7.12048,51208
7.12982,50959
7.13915,47300
7.14850,42095
7.15783,37341
7.16717,35821
7.17652,34475
7.18585,35073
7.19518,36841
7.20453,38268
7.21387,40810
7.22322,46089
7.23255,61333
7.24188,103479
7.25123,147516
7.26057,136415
7.26990,91958
7.27925,63401
7.28858,55534
7.29792,51641
7.30727,47530
7.31660,40803
7.32593,40616
7.33528,37139
7.34462,38360
7.35395,36903
7.36330,34540
7.37263,31351
7.38197,34303
7.39132,48327
7.40065,99085
7.41000,213596
7.41933,305612
7.42867,284093
7.43802,182076
7.44735,97790
7.45668,57496
7.46603,41642
7.47537,40663
7.48470,49377
7.49405,60521
7.50338,60179
7.51272,50644
7.52207,44815
7.53140,42515
7.54073,40589
7.55008,39052
7.55942,39468
7.56877,43475
7.57810,51075
7.58743,53992
7.59678,57446
7.60612,54749
7.61545,58713
7.62480,58607
7.63413,55432
7.64347,48894
7.65282,44766
7.66215,38938
7.67148,40618
7.68083,44281
7.69017,45255
7.69950,45472
7.70885,52317
7.71818,58478
7.72752,56307
7.73687,47172
7.74620,50015
7.75555,60370
7.76488,63305
7.77422,59496
7.78357,53994
7.79290,53145
7.80223,49048
7.81158,44934
7.82092,38919
7.83025,36893
7.83960,38183
7.84893,41774
7.85827,59609
7.86762,108985
7.87695,165567
7.88628,171912
7.89563,123046
7.90497,77474
7.91430,76266
7.92365,114837
7.93298,142763
7.94233,124952
7.95167,130468
7.96100,147595
7.97035,142590
7.97968,140342
7.98902,181290
7.99837,206402
8.00770,161880
8.01703,97970
8.02638,67133
8.03572,58596
8.04505,66342
8.05440,75750
8.06373,75535
8.07307,60462
8.08242,53601
8.09175,67092
8.10108,107988
8.11043,131111
8.11977,110946
8.12912,81699
8.13845,63319
8.14778,54714
8.15713,52936
8.16647,50774
8.17580,49244
8.18515,45328
8.19448,44967
8.20382,42891
8.21317,43966
8.22250,42124
8.23183,43652
8.24118,48058
8.25052,52094
8.25985,57230
8.26920,56613
8.27853,50422
8.28787,43469
8.29722,40560
8.30655,42531
8.31590,43701
8.32523,43291
8.33457,43371
8.34392,43553
8.35325,40410
8.36258,39918
8.37193,41550
8.38127,51397
8.39060,60855
8.39995,61082
8.40928,63042
8.41862,62128
8.42797,61497
8.43730,58413
8.44663,54347
8.45598,47572
8.46532,47714
8.47465,49869
8.48400,48918
8.49333,46993
8.50268,45779
8.51202,44192
8.52135,43357
8.53070,42008
8.54003,41329
8.54937,43828
8.55872,47400
8.56805,54396
8.57738,57096
8.58673,56318
8.59607,56363
8.60540,54801
8.61475,55419
8.62408,54092
8.63342,50207
8.64277,46884
8.65210,45570
8.66145,44343
8.67078,45688
8.68012,47063
8.68947,46136
8.69880,46750
8.70813,47098
8.71748,49089
8.72682,44410
8.73615,42095
8.74550,51118
8.75483,68640
8.76417,87697
8.77352,83108
8.78285,67775
8.79218,59680
8.80153,67667
8.81087,89818
8.82020,106157
8.82955,102439
8.83888,74525
8.84823,53646
8.85757,47925
8.86690,48855
8.87625,56792
8.88558,62459
8.89492,59579
8.90427,55201
8.91360,53111
8.92293,51334
8.93228,55594
8.94162,55472
8.95095,54028
8.96030,50776
8.96963,51804
8.97897,56080
8.98832,54735
8.99765,51315
9.00698,52893
9.01633,55852
9.02567,54557
9.03502,50299
9.04435,50479
9.05368,56175
9.06303,59859
9.07237,65292
9.08170,75864
9.09105,87287
9.10038,96704
9.10972,88713
9.11907,68178
9.12840,59068
9.13773,61306
9.14708,64819
9.15642,60442
9.16575,53411
9.17510,50149
9.18443,48782
9.19377,48397
9.20312,50811
9.21245,61953
9.22180,100316
9.23113,177736
9.24047,232744
9.24982,215101
9.25915,155457
9.26848,99537
9.27783,70532
9.28717,61907
9.29650,58215
9.30585,57643
9.31518,60558
9.32452,71501
9.33387,102369
9.34320,126013
9.35253,113694
9.36188,112846
9.37122,212635
9.38057,355043
9.38990,387612
9.39923,297022
9.40858,194690
9.41792,123401
9.42725,99656
9.43660,95011
9.44593,82962
9.45527,64319
9.46462,53188
9.47395,46698
9.48328,45141
9.49263,51560
9.50197,64244
9.51130,75193
9.52065,72433
9.52998,67166
9.53932,65900
9.54867,73169
9.55800,90182
9.56735,125658
9.57668,143826
9.58602,128613
9.59537,98304
9.60470,97956
9.61403,112337
9.62338,105182
9.63272,91679
9.64205,83161
9.65140,75625
9.66073,67619
9.67007,62061
9.67942,57994
9.68875,60869
9.69808,59496
9.70743,53303
9.71677,51368
9.72610,66749
9.73545,171244
9.74478,462120
9.75413,750000
9.76347,718629
9.77280,435289
9.78215,224446
9.79148,143103
9.80082,114187
9.81017,93556
9.81950,84928
9.82883,96414
9.83818,130821
9.84752,173996
9.85685,199473
9.86620,170470
9.87553,125078
9.88487,109387
9.89422,126518
9.90355,160761
9.91288,286908
9.92223,513206
9.93157,554136
9.94092,372185
9.95025,189520
9.95958,104023
9.96893,81895
9.97827,130793
9.98760,330357
9.99695,626092
10.00628,682760
10.01562,428674
10.02497,192726
10.03430,101866
10.04363,77558
10.05298,72071
10.06232,77532
10.07165,89003
10.08100,106888
10.09033,123122
10.09967,121982
10.10902,242206
10.11835,1268806
10.12770,5207809
10.13703,1.10206E+07
10.14637,1.155534E+07
10.15572,7054483
10.16505,4422668
10.17438,5587235
10.18373,5473009
10.19307,2724964
10.20240,713807
10.21175,157810
10.22108,90295
10.23042,89796
10.23977,113445
10.24910,148203
10.25843,156814
10.26778,120330
10.27712,86875
10.28647,71187
10.29580,63419
10.30513,63964
10.31448,63815
10.32382,62697
10.33315,68657
10.34250,64967
10.35183,60079
10.36117,57784
10.37052,59634
10.37985,56307
10.38918,51146
10.39853,51505
10.40787,48630
10.41720,50747
10.42655,56822
10.43588,55546
10.44522,54859
10.45457,56923
10.46390,68136
10.47325,86956
10.48258,91023
10.49192,74666
10.50127,60147
10.51060,51143
10.51993,51079
10.52928,47049
10.53862,49443
10.54795,52733
10.55730,54219
10.56663,61668
10.57597,67013
10.58532,68959
10.59465,64703
10.60398,60353
10.61333,55255
10.62267,53786
10.63200,61271
10.64135,81611
10.65068,93541
10.66003,75529
10.66937,61494
10.67870,61434
10.68805,70878
10.69738,73545
10.70672,64127
10.71607,61771
10.72540,73530
10.73473,77343
10.74408,72591
10.75342,79126
10.76275,135750
10.77210,204657
10.78143,211032
10.79077,156305
10.80012,135575
10.80945,178216
10.81878,210262
10.82813,172591
10.83747,104252
10.84682,69493
10.85615,56633
10.86548,56229
10.87483,59785
10.88417,69423
10.89350,83405
10.90285,82645
10.91218,70890
10.92152,59817
10.93087,66108
10.94020,73362
10.94953,71803
10.95888,65410
10.96822,59635
10.97755,58798
10.98690,58333
10.99623,52997
11.00558,52928
11.01492,52113
11.02425,51096
11.03360,47493
11.04293,51355
11.05227,52345
11.06162,47242
11.07095,45752
11.08028,50379
11.08963,51342
11.09897,52478
11.10830,61570
11.11765,80918
11.12698,87567
11.13632,76401
11.14567,64300
11.15500,62320
11.16433,60131
11.17368,55296
11.18302,53992
11.19237,52462
11.20170,54207
11.21103,55142
11.22038,56283
11.22972,56035
11.23905,56388
11.24840,54747
11.25773,54207
11.26707,63422
11.27642,71797
11.28575,64541
11.29508,55434
11.30443,52385
11.31377,51364
11.32310,51143
11.33245,55028
11.34178,75487
11.35112,108905
11.36047,138255
11.36980,147642
11.37915,121998
11.38848,92986
11.39782,78011
11.40717,84134
11.41650,90532
11.42583,77758
11.43518,65228
11.44452,58443
11.45385,55111
11.46320,64934
11.47253,87419
11.48187,101922
11.49122,94596
11.50055,70966
11.50988,56940
11.51923,52533
11.52857,52378
11.53790,50408
11.54725,54899
11.55658,62316
11.56593,95028
11.57527,165420
11.58460,242146
11.59395,249157
11.60328,195381
11.61262,139284
11.62197,112471
11.63130,107184
11.64063,103920
11.64998,93161
11.65932,88645
11.66865,89031
11.67800,87720
11.68733,83105
11.69667,71034
11.70602,67145
11.71535,66292
11.72468,66639
11.73403,62006
11.74337,61923
11.75272,63501
11.76205,70210
11.77138,70616
11.78073,73810
11.79007,80326
11.79940,87035
11.80875,77703
11.81808,65207
11.82742,64349
11.83677,66674
11.84610,73656
11.85543,72490
11.86478,73488
11.87412,73622
11.88345,78441
11.89280,83212
11.90213,79231
11.91147,81079
11.92082,76085
11.93015,67389
11.93950,69580
11.94883,84350
11.95817,99901
11.96752,95153
11.97685,78476
11.98618,69846
11.99553,67741
12.00487,70065
12.01420,92379
12.02355,124429
12.03288,126735
12.04222,109520
12.05157,87192
12.06090,76169
12.07023,68042
12.07958,68023
12.08892,73048
12.09827,80396
12.10760,82207
12.11693,78241
12.12628,69197
12.13562,71589
12.14495,80498
12.15430,80955
12.16363,85060
12.17297,136253
12.18232,263518
12.19165,342002
12.20098,260750
12.21033,131853
12.21967,83212
12.22900,87278
12.23835,111657
12.24768,122643
12.25702,104623
12.26637,105484
12.27570,204615
12.28505,397024
12.29438,504027
12.30372,345397
12.31307,175723
12.32240,96534
12.33173,81787
12.34108,91291
12.35042,103887
12.35975,99420
12.36910,83005
12.37843,73503
12.38777,91571
12.39712,149352
12.40645,209900
12.41578,203737
12.42513,150901
12.43447,116757
12.44380,96221
12.45315,88837
12.46248,90520
12.47183,94952
12.48117,103514
12.49050,104893
12.49985,102576
12.50918,101496
12.51852,103336
12.52787,105603
12.53720,111089
12.54653,112136
12.55588,101457
12.56522,98555
12.57455,114062
12.58390,143536
12.59323,171780
12.60257,167484
12.61192,131211
12.62125,89792
12.63058,85326
12.63993,96639
12.64927,111133
12.65862,115572
12.66795,107032
12.67728,96711
12.68663,87980
12.69597,76902
12.70530,75183
12.71465,73722
12.72398,81327
12.73332,89785
12.74267,90229
12.75200,94829
12.76133,108732
12.77068,107837
12.78002,93606
12.78935,76069
12.79870,68327
12.80803,65813
12.81738,71572
12.82672,74162
12.83605,77382
12.84540,79680
12.85473,76387
12.86407,69902
12.87342,72726
12.88275,69627
12.89208,71963
12.90143,76208
12.91077,80382
12.92010,76404
12.92945,65026
12.93878,66960
12.94812,76718
12.95747,87078
12.96680,82023
12.97613,75201
12.98548,63942
12.99482,57732
13.00417,57304
13.01350,59928
13.02283,63975
13.03218,73594
13.04152,96863
13.05085,103573
13.06020,89154
13.06953,87998
13.07887,113447
13.08822,123592
13.09755,105016
13.10688,86477
13.11623,77161
13.12557,73919
13.13490,78119
13.14425,88295
13.15358,93311
13.16292,92197
13.17227,93024
13.18160,104090
13.19095,230850
13.20028,1197422
13.20962,5014658
13.21897,1.1596E+07
13.22830,1.44316E+07
13.23763,9429474
13.24698,3293325
13.25632,784864
13.26565,289818
13.27500,181710
13.28433,137357
13.29367,132912
13.30302,131702
13.31235,113605
13.32168,112432
13.33103,121411
13.34037,118080
13.34970,116468
13.35905,115129
13.36838,111305
13.37773,94686
13.38707,84318
13.39640,92809
13.40575,116462
13.41508,131097
13.42442,106186
13.43377,86266
13.44310,92255
13.45243,107194
13.46178,107839
13.47112,95409
13.48045,88547
13.48980,86838
13.49913,81150
13.50847,71771
13.51782,85699
13.52715,153506
13.53648,266173
13.54583,288504
13.55517,187244
13.56452,104437
13.57385,76116
13.58318,66891
13.59253,64227
13.60187,62819
13.61120,63848
13.62055,63236
13.62988,64779
13.63922,66731
13.64857,65314
13.65790,69765
13.66723,73082
13.67658,67364
13.68592,69056
13.69525,70250
13.70460,76194
13.71393,83539
13.72327,83820
13.73262,72251
13.74195,59807
13.75130,54598
13.76063,56442
13.76997,60095
13.77932,60888
13.78865,58375
13.79798,60243
13.80733,70851
13.81667,87653
13.82600,83240
13.83535,71836
13.84468,64271
13.85402,61961
13.86337,65551
13.87270,71776
13.88203,78827
13.89138,87117
13.90072,118527
13.91007,201672
13.91940,405024
13.92873,630329
13.93808,581562
13.94742,306697
13.95675,144704
13.96610,104309
13.97543,92564
13.98477,83010
13.99412,76202
14.00345,77693
14.01278,75167
14.02213,74246
14.03147,68578
14.04080,73293
14.05015,171201
14.05948,975871
14.06882,4280741
14.07817,1.084359E+07
14.08750,1.533133E+07
14.09685,1.20774E+07
14.10618,4259123
14.11552,677132
14.12487,132095
14.13420,87700
14.14353,83786
14.15288,84805
14.16222,91614
14.17155,104332
14.18090,119635
14.19023,160899
14.19957,247445
14.20892,313632
14.21825,249102
14.22758,134333
14.23693,79794
14.24627,61092
14.25560,57335
14.26495,60763
14.27428,72206
14.28363,79988
14.29297,75007
14.30230,66677
14.31165,64784
14.32098,78615
14.33032,115900
14.33967,144782
14.34900,143816
14.35833,115164
14.36768,87097
14.37702,73677
14.38635,67785
14.39570,66076
14.40503,67675
14.41437,64254
14.42372,59146
14.43305,57944
14.44238,65922
14.45173,87448
14.46107,144696
14.47042,210802
14.47975,222534
14.48908,177621
14.49843,114150
14.50777,77194
14.51710,65041
14.52645,56261
14.53578,55357
14.54512,59317
14.55447,67560
14.56380,72651
14.57313,76977
14.58248,73066
14.59182,68700
14.60115,63538
14.61050,62307
14.61983,58974
14.62918,64695
14.63852,69470
14.64785,90685
14.65720,128247
14.66653,149560
14.67587,136471
14.68522,106045
14.69455,80238
14.70388,67124
14.71323,64670
14.72257,58111
14.73190,62935
14.74125,63257
14.75058,65450
14.75992,62887
14.76927,66498
14.77860,72717
14.78793,81774
14.79728,104422
14.80662,126779
14.81597,133732
14.82530,106577
14.83463,86316
14.84398,73131
14.85332,62118
14.86265,67155
14.87200,91839
14.88133,119637
14.89067,122118
14.90002,100611
14.90935,74942
14.91868,65836
14.92803,65883
14.93737,69004
14.94670,75579
14.95605,82472
14.96538,94301
14.97472,106932
14.98407,109715
14.99340,101942
15.00275,89838
15.01208,89774
15.02142,101202
15.03077,97967
15.04010,86236
15.04943,85073
15.05878,96150
15.06812,99698
15.07745,113097
15.08680,106868
15.09613,87874
15.10547,69422
15.11482,67570
15.12415,71805
15.13348,93830
15.14283,114956
15.15217,115710
15.16150,89734
15.17085,72030
15.18018,68635
15.18953,73562
15.19887,86425
15.20820,115411
15.21755,180709
15.22688,255756
15.23622,286749
15.24557,256981
15.25490,194340
15.26423,138987
15.27358,92277
15.28292,75001
15.29225,74579
15.30160,73917
15.31093,72240
15.32027,70438
15.32962,73863
15.33895,81948
15.34828,89898
15.35763,87038
15.36697,87427
15.37632,102238
15.38565,115964
15.39498,104294
15.40433,75645
15.41367,66088
15.42300,68334
15.43235,74881
15.44168,76433
15.45102,74916
15.46037,66780
15.46970,66339
15.47903,66527
15.48838,72917
15.49772,78746
15.50705,88267
15.51640,132211
15.52573,196850
15.53508,219483
15.54442,165312
15.55375,107769
15.56310,75259
15.57243,64510
15.58177,59789
15.59112,62206
15.60045,63682
15.60978,71969
15.61913,75083
15.62847,77531
15.63780,94413
15.64715,101464
15.65648,104418
15.66582,107866
15.67517,118396
15.68450,117105
15.69383,117394
15.70318,140539
15.71252,161330
15.72187,158457
15.73120,117419
15.74053,83917
15.74988,81009
15.75922,104299
15.76855,119379
15.77790,113347
15.78723,101564
15.79657,85003
15.80592,73668
15.81525,89285
15.82458,124140
15.83393,197572
15.84327,344131
15.85260,488505
15.86195,449787
15.87128,256239
15.88062,139740
15.88997,122109
15.89930,139441
15.90865,149781
15.91798,144167
15.92732,118647
15.93667,90330
15.94600,77195
15.95533,70899
15.96468,69066
15.97402,75737
15.98335,96239
15.99270,141334
16.00203,182123
16.01137,173114
16.02072,123062
16.03005,83407
16.03938,71675
16.04873,69515
16.05807,74270
16.06740,79340
16.07675,78284
16.08608,76613
16.09543,72830
16.10477,72761
16.11410,76405
16.12345,89801
16.13278,95335
16.14212,92778
16.15147,81244
16.16080,77543
16.17013,79700
16.17948,77651
16.18882,71272
16.19815,74452
16.20750,85704
16.21683,100095
16.22617,115018
16.23552,116211
16.24485,107122
16.25420,91549
16.26353,85107
16.27287,117338
16.28222,371648
16.29155,1449526
16.30088,3668086
16.31023,5169945
16.31957,4019410
16.32890,1742586
16.33825,461438
16.34758,128708
16.35692,76861
16.36627,65317
16.37560,59046
16.38493,58316
16.39428,60968
16.40362,61522
16.41295,61945
16.42230,62800
16.43163,71312
16.44098,68876
16.45032,69318
16.45965,84352
16.46900,102757
16.47833,99415
16.48767,85841
16.49702,76344
16.50635,71962
16.51568,76769
16.52503,82587
16.53437,81434
16.54370,79691
16.55305,74944
16.56238,68570
16.57172,66819
16.58107,66908
16.59040,76039
16.59973,77116
16.60908,71643
16.61842,67445
16.62777,76053
16.63710,92096
16.64643,103394
16.65578,101623
16.66512,89807
16.67445,79777
16.68380,75613
16.69313,82765
16.70247,101992
16.71182,112791
16.72115,102496
16.73048,80429
16.73983,76312
16.74917,124673
16.75850,227467
16.76785,254124
16.77718,179966
16.78652,100426
16.79587,72540
16.80520,72795
16.81455,78484
16.82388,86328
16.83322,93148
16.84257,103128
16.85190,106077
16.86123,97925
16.87058,81699
16.87992,68608
16.88925,67409
16.89860,67703
16.90793,76837
16.91727,98713
16.92662,127423
16.93595,118673
16.94528,99241
16.95463,95820
16.96397,107694
16.97330,119364
16.98265,114630
16.99198,99003
17.00133,81629
17.01067,74280
17.02000,70353
17.02935,93110
17.03868,148779
17.04802,198792
17.05737,166720
17.06670,116041
17.07603,92965
17.08538,85981
17.09472,83479
17.10405,79412
17.11340,77020
17.12273,69727
17.13207,70415
17.14142,78599
17.15075,88352
17.16008,79852
17.16943,71591
17.17877,66726
17.18812,69689
17.19745,68582
17.20678,65768
17.21613,61647
17.22547,61839
17.23480,60538
17.24415,61294
17.25348,63445
17.26282,65455
17.27217,70308
17.28150,78122
17.29083,91420
17.30018,92491
17.30952,85132
17.31885,81982
17.32820,88720
17.33753,95039
17.34688,86218
17.35622,76433
17.36555,72165
17.37490,93758
17.38423,193942
17.39357,397054
17.40292,489454
17.41225,350534
17.42158,173688
17.43093,103538
17.44027,83034
17.44960,80534
17.45895,83201
17.46828,79119
17.47762,77082
17.48697,84981
17.49630,204185
17.50563,1005266
17.51498,3400701
17.52432,6657937
17.53367,6901973
17.54300,3636647
17.55233,915002
17.56168,175819
17.57102,88780
17.58035,89426
17.58970,101965
17.59903,107970
17.60837,101747
17.61772,87861
17.62705,81482
17.63638,77019
17.64573,80466
17.65507,83149
17.66440,92397
17.67375,109284
17.68308,118599
17.69242,131597
17.70177,133354
17.71110,121326
17.72045,112815
17.72978,102068
17.73912,86449
17.74847,82210
17.75780,92635
17.76713,99711
17.77648,111251
17.78582,110965
17.79515,98773
17.80450,87887
17.81383,82358
17.82317,74724
17.83252,65036
17.84185,70065
17.85118,75868
17.86053,93414
17.86987,115964
17.87920,122857
17.88855,106953
17.89788,101109
17.90723,95501
17.91657,85365
17.92590,78546
17.93525,75558
17.94458,75500
17.95392,80129
17.96327,75969
17.97260,73760
17.98193,70598
17.99128,69014
18.00062,66885
18.00995,69836
18.01930,73234
18.02863,71445
18.03797,69279
18.04732,72695
18.05665,76092
18.06600,78292
18.07533,76542
18.08467,67752
18.09402,69137
18.10335,76779
18.11268,98730
18.12203,122547
18.13137,120484
18.14070,111063
18.15005,98990
18.15938,96396
18.16872,89427
18.17807,86574
18.18740,84717
18.19673,81279
18.20608,77662
18.21542,71755
18.22475,73910
18.23410,76057
18.24343,78012
18.25278,72378
18.26212,69724
18.27145,69900
18.28080,72715
18.29013,86184
18.29947,99435
18.30882,113413
18.31815,111930
18.32748,108058
18.33683,100377
18.34617,105639
18.35550,122465
18.36485,139402
18.37418,138519
18.38352,123504
18.39287,127207
18.40220,179052
18.41153,278511
18.42088,315750
18.43022,226469
18.43957,131044
18.44890,104070
18.45823,110386
18.46758,105149
18.47692,94343
18.48625,87778
18.49560,101782
18.50493,137576
18.51427,180101
18.52362,197022
18.53295,173659
18.54228,128522
18.55163,108875
18.56097,115643
18.57030,120175
18.57965,103779
18.58898,85690
18.59832,78590
18.60767,83049
18.61700,100685
18.62635,117584
18.63568,115922
18.64502,103091
18.65437,97716
18.66370,93676
18.67303,95563
18.68238,100421
18.69172,101375
18.70105,98364
18.71040,108502
18.71973,115841
18.72907,127632
18.73842,118356
18.74775,106204
18.75708,96562
18.76643,88593
18.77577,78719
18.78510,71822
18.79445,71138
18.80378,71960
18.81313,76163
18.82247,79330
18.83180,79890
18.84115,80081
18.85048,79078
18.85982,75357
18.86917,77361
18.87850,78996
18.88783,76793
18.89718,76525
18.90652,80706
18.91585,101742
18.92520,125669
18.93453,129881
18.94387,112343
18.95322,110772
18.96255,126558
18.97188,144060
18.98123,146102
18.99057,126346
18.99992,101790
19.00925,91207
19.01858,85306
19.02793,83703
19.03727,86516
19.04660,104577
19.05595,154724
19.06528,242086
19.07462,367618
19.08397,577005
19.09330,789505
19.10263,686921
19.11198,397619
19.12132,192446
19.13065,104684
19.14000,77326
19.14933,73371
19.15868,69287
19.16802,69723
19.17735,67094
19.18670,68437
19.19603,78992
19.20537,89962
19.21472,97748
19.22405,100565
19.23338,100459
19.24273,94090
19.25207,91222
19.26140,81708
19.27075,77842
19.28008,81764
19.28942,92733
19.29877,104462
19.30810,132966
19.31743,192926
19.32678,236832
19.33612,207878
19.34547,148406
19.35480,105886
19.36413,88244
19.37348,77568
19.38282,69262
19.39215,70858
19.40150,73468
19.41083,81059
19.42017,84611
19.42952,80789
19.43885,73976
19.44818,73265
19.45753,74099
19.46687,77185
19.47620,80529
19.48555,88403
19.49488,97126
19.50422,99954
19.51357,90401
19.52290,81024
19.53225,75590
19.54158,76628
19.55092,77788
19.56027,74120
19.56960,74561
19.57893,81073
19.58828,91375
19.59762,97148
19.60695,96376
19.61630,85754
19.62563,79582
19.63497,82158
19.64432,98465
19.65365,107017
19.66298,96717
19.67233,84453
19.68167,79614
19.69100,87516
19.70035,103827
19.70968,108478
19.71903,113141
19.72837,126197
19.73770,154396
19.74705,168025
19.75638,143481
19.76572,109989
19.77507,97198
19.78440,95108
19.79373,101281
19.80308,94095
19.81242,87344
19.82175,82544
19.83110,77478
19.84043,76029
19.84977,74666
19.85912,74694
19.86845,82427
19.87780,111538
19.88713,154214
19.89647,165535
19.90582,128340
19.91515,95494
19.92448,87398
19.93383,83735
19.94317,83045
19.95250,79313
19.96185,86957
19.97118,88705
19.98052,87428
19.98987,83663
19.99920,76037
20.00853,73564
20.01788,74385
20.02722,81111
20.03655,87805
20.04590,92538
20.05523,87902
20.06458,85821
20.07392,83920
20.08325,86052
20.09260,92569
20.10193,94802
20.11127,83251
20.12062,73114
20.12995,68780
20.13928,71474
20.14863,79793
20.15797,98055
20.16730,113614
20.17665,111789
20.18598,94594
20.19532,83660
20.20467,78059
20.21400,77262
20.22333,80988
20.23268,84129
20.24202,85166
20.25137,84913
20.26070,76226
20.27003,69669
20.27938,72547
20.28872,77905
20.29805,88388
20.30740,95726
20.31673,94383
20.32607,80196
20.33542,72700
20.34475,69404
20.35408,70305
20.36343,77543
20.37277,82507
20.38210,84632
20.39145,82580
20.40078,74087
20.41012,70780
20.41947,67172
20.42880,68962
20.43815,72308
20.44748,71811
20.45682,72828
20.46617,77832
20.47550,103601
20.48483,128413
20.49418,126908
20.50352,95229
20.51285,77144
20.52220,72600
20.53153,72594
20.54087,73437
20.55022,76436
20.55955,89424
20.56888,164338
20.57823,407616
20.58757,750323
20.59690,778216
20.60625,459592
20.61558,192406
20.62493,104474
20.63427,102315
20.64360,133758
20.65295,186642
20.66228,187967
20.67162,150953
20.68097,113290
20.69030,97146
20.69963,90257
20.70898,87723
20.71832,85101
20.72765,86047
20.73700,82341
20.74633,85078
20.75567,84312
20.76502,84080
20.77435,79063
20.78370,74805
20.79303,81516
20.80237,89439
20.81172,95028
20.82105,91627
20.83038,85358
20.83973,80447
20.84907,74752
20.85840,71321
20.86775,73403
20.87708,70748
20.88642,72387
20.89577,80747
20.90510,83359
20.91443,88845
20.92378,88134
20.93312,79664
20.94245,75154
20.95180,71970
20.96113,69014
20.97048,68108
20.97982,66618
20.98915,69212
20.99850,68954
21.00783,72256
21.01717,73148
21.02652,76499
21.03585,73675
21.04518,72562
21.05453,75057
21.06387,77176
21.07320,78278
21.08255,77670
21.09188,72728
21.10122,73669
21.11057,76095
21.11990,80247
21.12923,87599
21.13858,93819
21.14792,94308
21.15727,92729
21.16660,86377
21.17593,90311
21.18528,98359
21.19462,107799
21.20395,103799
21.21330,88621
21.22263,80242
21.23197,75942
21.24132,76428
21.25065,73993
21.25998,75886
21.26933,81580
21.27867,103020
21.28800,154393
21.29735,198105
21.30668,192045
21.31602,145686
21.32537,102700
21.33470,87232
21.34405,80825
21.35338,79327
21.36272,84004
21.37207,83061
21.38140,79477
21.39073,84310
21.40008,87142
21.40942,88802
21.41875,90931
21.42810,92509
21.43743,91837
21.44677,90480
21.45612,83865
21.46545,81146
21.47478,79508
21.48413,80398
21.49347,90650
21.50282,94731
21.51215,92776
21.52148,84655
21.53083,84140
21.54017,82349
21.54950,83137
21.55885,88530
21.56818,120297
21.57752,175438
21.58687,212986
21.59620,179308
21.60553,126193
21.61488,100560
21.62422,92980
21.63355,94181
21.64290,93453
21.65223,91615
21.66157,87916
21.67092,83032
21.68025,89008
21.68960,102103
21.69893,110990
21.70827,107813
21.71762,103274
21.72695,100428
21.73628,100750
21.74563,95229
21.75497,85645
21.76430,79559
21.77365,77196
21.78298,78403
21.79232,80519
21.80167,81742
21.81100,90158
21.82033,96889
21.82968,104934
21.83902,101269
21.84835,95919
21.85770,91221
21.86703,78968
21.87638,85704
21.88572,95113
21.89505,107727
21.90440,117489
21.91373,112017
21.92307,103157
21.93242,90545
21.94175,87991
21.95108,82229
21.96043,83436
21.96977,94704
21.97910,104146
21.98845,123341
21.99778,139018
22.00712,139945
22.01647,121676
22.02580,98298
22.03513,92105
22.04448,94756
22.05382,105078
22.06317,112168
22.07250,106171
22.08183,104448
22.09118,97576
22.10052,97459
22.10985,90192
22.11920,86801
22.12853,89080
22.13787,85234
22.14722,82185
22.15655,92947
22.16588,113986
22.17523,145422
22.18457,160467
22.19390,147077
22.20325,119460
22.21258,100905
22.22192,100196
22.23127,108310
22.24060,110998
22.24995,107434
22.25928,104004
22.26862,106796
22.27797,119656
22.28730,147338
22.29663,165805
22.30598,170397
22.31532,153273
22.32465,127355
22.33400,115892
22.34333,113121
22.35267,123553
22.36202,144814
22.37135,156886
22.38068,163352
22.39003,168182
22.39937,166430
22.40870,160721
22.41805,155329
22.42738,161962
22.43673,176656
22.44607,194100
22.45540,202114
22.46475,200809
22.47408,199856
22.48342,206147
22.49277,211042
22.50210,216635
22.51143,216951
22.52078,228611
22.53012,238738
22.53945,246232
22.54880,256150
22.55813,267630
22.56747,281454
22.57682,300805
22.58615,322605
22.59550,337158
22.60483,343413
22.61417,354912
22.62352,358419
22.63285,364004
22.64218,358490
22.65153,362152
22.66087,366940
22.67020,378146
22.67955,389630
22.68888,410100
22.69822,422631
22.70757,413811
22.71690,383943
22.72623,350156
22.73558,334772
22.74492,322188
22.75425,297277
22.76360,271244
22.77293,246751
22.78228,218934
22.79162,191885
22.80095,189682
22.81030,191229
22.81963,187677
22.82897,174544
22.83832,151574
22.84765,141997
22.85698,136698
22.86633,131325
22.87567,125118
22.88500,126757
22.89435,130186
22.90368,125398
22.91302,119329
22.92237,126191
22.93170,130531
22.94103,134500
22.95038,124119
22.95972,117135
22.96907,115668
22.97840,107372
22.98773,105421
22.99708,100685
23.00642,99702
23.01575,95694
23.02510,96476
23.03443,94200
23.04377,94547
23.05312,95724
23.06245,99998
23.07178,98761
23.08113,95674
23.09047,95089
23.09980,92570
23.10915,92243
23.11848,91904
23.12782,90673
23.13717,92522
23.14650,92797
23.15585,93684
23.16518,94740
23.17452,96929
23.18387,98393
23.19320,98136
23.20253,96334
23.21188,93494
23.22122,87438
23.23055,90889
23.23990,92063
23.24923,98804
23.25857,107208
23.26792,108925
23.27725,103787
23.28658,102632
23.29593,95897
23.30527,93524
23.31462,92077
23.32395,95051
23.33328,116824
23.34263,160744
23.35197,170372
23.36130,141510
23.37065,112605
23.37998,101571
23.38932,94801
23.39867,99045
23.40800,97774
23.41733,96405
23.42668,93847
23.43602,94257
23.44535,93593
23.45470,95724
23.46403,99002
23.47337,96853
23.48272,96151
23.49205,95316
23.50140,91436
23.51073,96721
23.52007,92281
23.52942,95630
23.53875,96482
23.54808,94049
23.55743,90629
23.56677,89974
23.57610,91531
23.58545,94743
23.59478,98645
23.60412,98735
23.61347,97000
23.62280,92026
23.63213,89698
23.64148,91670
23.65082,88180
23.66015,89683
23.66950,88397
23.67883,86605
23.68818,92050
23.69752,96679
23.70685,103062
23.71620,108051
23.72553,108017
23.73487,124442
23.74422,133315
23.75355,123523
23.76288,110355
23.77223,102049
23.78157,100197
23.79090,98742
23.80025,93596
23.80958,93036
23.81892,92255
23.82827,90731
23.83760,89178
23.84693,89581
23.85628,94155
23.86562,95200
23.87497,98432
23.88430,98555
23.89363,94979
23.90298,98566
23.91232,96429
23.92165,99969
23.93100,98038
23.94033,95188
23.94967,97707
23.95902,96934
23.96835,95441
23.97768,92446
23.98703,92264
23.99637,91273
24.00570,91772
24.01505,95253
24.02438,100436
24.03372,98481
24.04307,97346
24.05240,91895
24.06175,92130
24.07108,88879
24.08042,94963
24.08977,93152
24.09910,96654
24.10843,95748
24.11778,93931
24.12712,91064
24.13645,93632
24.14580,93838
24.15513,94163
24.16447,96333
24.17382,93274
24.18315,91503
24.19248,95629
24.20183,94869
24.21117,89259
24.22050,90895
24.22985,90770
24.23918,95492
24.24853,96435
24.25787,97618
24.26720,95787
24.27655,95970
24.28588,93998
24.29522,96747
24.30457,96944
24.31390,102143
24.32323,113028
24.33258,126113
24.34192,126716
24.35125,112372
24.36060,105893
24.36993,99523
24.37927,101536
24.38862,103540
24.39795,107515
24.40730,104192
24.41663,102143
24.42597,99275
24.43532,98762
24.44465,95942
24.45398,95593
24.46333,94971
24.47267,97779
24.48200,98822
24.49135,99186
24.50068,97573
24.51002,100742
24.51937,102333
24.52870,102400
24.53803,103670
24.54738,100465
24.55672,104601
24.56605,105492
24.57540,102775
24.58473,101851
24.59408,98349
24.60342,101390
24.61275,101775
24.62210,108911
24.63143,114912
24.64077,107237
24.65012,103092
24.65945,101188
24.66878,103700
24.67813,108217
24.68747,109382
24.69680,111197
24.70615,103139
24.71548,108299
24.72482,108063
24.73417,104528
24.74350,100442
24.75283,100433
24.76218,98563
24.77152,98606
24.78087,98598
24.79020,97491
24.79953,93765
24.80888,96196
24.81822,99528
24.82755,100114
24.83690,103320
24.84623,102560
24.85557,98123
24.86492,97839
24.87425,100387
24.88358,102643
24.89293,101875
24.90227,106534
24.91160,106082
24.92095,107530
24.93028,103906
24.93962,105487
24.94897,105803
24.95830,110212
24.96765,113296
24.97698,112522
24.98632,108012
24.99567,107473
25.00500,105240
25.01433,107538
25.02368,108257
25.03302,102380
25.04235,100910
25.05170,104701
25.06103,102447
25.07037,104588
25.07972,103349
25.08905,103473
25.09838,107836
25.10773,107585
25.11707,106235
25.12642,107019
25.13575,106836
25.14508,113748
25.15443,116760
25.16377,119065
25.17310,113634
25.18245,109210
25.19178,105405
25.20112,106521
25.21047,109166
25.21980,105438
25.22913,106453
25.23848,102931
25.24782,107525
25.25715,106443
25.26650,108832
25.27583,107674
25.28517,109617
25.29452,107050
25.30385,110281
25.31320,111828
25.32253,112118
25.33187,129009
25.34122,145378
25.35055,143100
25.35988,136210
25.36923,125896
25.37857,122748
25.38790,115756
25.39725,114633
25.40658,118146
25.41592,112575
25.42527,114413
25.43460,114120
25.44393,115470
25.45328,114579
25.46262,114463
25.47195,119629
25.48130,135968
25.49063,159228
25.49998,181352
25.50932,174085
25.51865,153388
25.52800,143481
25.53733,136313
25.54667,137456
25.55602,130754
25.56535,127125
25.57468,126597
25.58403,127150
25.59337,123213
25.60270,124804
25.61205,121658
25.62138,122128
25.63072,121370
25.64007,117020
25.64940,123843
25.65873,132203
25.66808,136110
25.67742,134847
25.68677,132451
25.69610,126481
25.70543,122368
25.71478,120703
25.72412,124891
25.73345,124105
25.74280,123140
25.75213,127123
25.76147,126582
25.77082,124205
25.78015,124590
25.78948,127918
25.79883,127549
25.80817,130910
25.81750,138890
25.82685,137427
25.83618,140406
25.84552,141695
25.85487,139666
25.86420,134490
25.87355,129094
25.88288,126153
25.89222,127721
25.90157,127905
25.91090,128339
25.92023,124491
25.92958,129884
25.93892,127484
25.94825,133214
25.95760,138797
25.96693,142886
25.97627,137874
25.98562,134058
25.99495,130725
26.00428,132254
26.01363,131958
26.02297,133252
26.03232,136096
26.04165,142568
26.05098,142182
26.06033,147981
26.06967,147849
26.07900,146129
26.08835,143501
26.09768,140893
26.10702,139620
26.11637,135397
26.12570,133082
26.13503,140257
26.14438,141623
26.15372,149518
26.16305,156335
26.17240,154369
26.18173,149636
26.19107,149927
26.20042,141651
26.20975,138927
26.21910,133663
26.22843,140588
26.23777,137320
26.24712,141062
26.25645,140429
26.26578,144383
26.27513,152170
26.28447,154695
26.29380,152918
26.30315,158239
26.31248,159885
26.32182,161275
26.33117,159449
26.34050,155149
26.34983,153801
26.35918,152981
26.36852,154135
26.37785,148832
26.38720,148206
26.39653,146845
26.40588,145240
26.41522,144483
26.42455,144607
26.43390,148855
26.44323,151675
26.45257,162275
26.46192,165642
26.47125,172195
26.48058,174184
26.48993,168899
26.49927,168222
26.50860,168525
26.51795,172339
26.52728,175853
26.53662,178991
26.54597,189185
26.55530,187125
26.56463,182118
26.57398,175415
26.58332,169933
26.59267,175296
26.60200,170187
26.61133,174751
26.62068,176560
26.63002,180953
26.63935,173400
26.64870,170576
26.65803,177449
26.66737,171729
26.67672,177558
26.68605,179815
26.69538,172544
26.70473,167801
26.71407,167596
26.72340,168976
26.73275,166354
26.74208,169083
26.75143,170096
26.76077,167260
26.77010,172950
26.77945,178641
26.78878,188598
26.79812,186048
26.80747,189076
26.81680,178323
26.82613,180977
26.83548,178851
26.84482,181020
26.85415,180622
26.86350,182554
26.87283,181477
26.88217,179994
26.89152,181102
26.90085,176817
26.91018,174868
26.91953,173537
26.92887,173870
26.93822,173910
26.94755,174776
26.95688,169571
26.96623,171397
26.97557,174585
26.98490,174844
26.99425,171509
27.00358,179631
27.01292,182572
27.02227,182219
27.03160,179729
27.04093,173231
27.05028,177323
27.05962,180184
27.06895,186143
27.07830,186222
27.08763,183676
27.09697,184251
27.10632,181266
27.11565,180887
27.12500,181276
27.13433,186692
27.14367,185065
27.15302,188181
27.16235,186730
27.17168,186524
27.18103,183538
27.19037,179957
27.19970,177979
27.20905,182395
27.21838,181658
27.22772,182009
27.23707,185894
27.24640,184099
27.25573,196309
27.26508,207272
27.27442,207882
27.28375,204927
27.29310,193439
27.30243,185173
27.31178,186448
27.32112,186730
27.33045,185813
27.33980,186654
27.34913,187183
27.35847,191142
27.36782,194470
27.37715,192502
27.38648,194167
27.39583,192187
27.40517,189513
27.41450,193184
27.42385,196313
27.43318,198778
27.44252,208710
27.45187,206326
27.46120,207442
27.47053,207927
27.47988,223931
27.48922,262205
27.49857,320524
27.50790,405478
27.51723,535882
27.52658,716375
27.53592,906734
27.54525,1073731
27.55460,1208559
27.56393,1233775
27.57327,1191083
27.58262,1113084
27.59195,1020747
27.60128,869205
27.61063,720544
27.61997,603106
27.62930,491850
27.63865,410127
27.64798,338164
27.65732,296979
27.66667,267967
27.67600,252756
27.68535,251308
27.69468,242425
27.70402,233687
27.71337,229058
27.72270,226026
27.73203,221139
27.74138,220255
27.75072,218337
27.76005,215113
27.76940,215816
27.77873,215467
27.78807,222724
27.79742,220685
27.80675,219964
27.81608,222176
27.82543,219898
27.83477,218506
27.84412,223256
27.85345,225480
27.86278,222988
27.87213,221399
27.88147,219028
27.89080,223815
27.90015,221455
27.90948,221574
27.91882,220509
27.92817,220658
27.93750,225286
27.94683,221270
27.95618,219604
27.96552,221083
27.97485,220939
27.98420,221378
27.99353,226408
28.00287,228554
28.01222,224888
28.02155,227221
28.03090,226132
28.04023,223761
28.04957,228522
28.05892,228204
28.06825,235077
28.07758,230692
28.08693,232458
28.09627,238815
28.10560,237596
28.11495,242975
28.12428,246417
28.13362,253898
28.14297,258630
28.15230,245583
28.16163,243409
28.17098,247462
28.18032,247759
28.18965,244157
28.19900,246980
28.20833,245657
28.21768,251495
28.22702,250204
28.23635,252734
28.24570,250015
28.25503,247714
28.26437,251968
28.27372,252657
28.28305,250859
28.29238,250785
28.30173,250836
28.31107,255613
28.32040,256499
28.32975,250807
28.33908,254389
28.34842,249586
28.35777,257957
28.36710,257120
28.37643,255094
28.38578,260975
28.39512,263573
28.40447,262918
28.41380,262282
28.42313,261416
28.43248,263957
28.44182,270888
28.45115,271453
28.46050,263913
28.46983,264055
28.47917,268514
28.48852,274914
28.49785,267498
28.50718,270779
28.51653,272839
28.52587,276466
28.53520,280043
28.54455,282755
28.55388,285584
28.56323,284600
28.57257,288571
28.58190,293269
28.59125,305080
28.60058,309494
28.60992,324668
28.61927,328160
28.62860,327394
28.63793,323330
28.64728,324791
28.65662,326855
28.66595,327914
28.67530,370863
28.68463,447456
28.69397,496351
28.70332,464347
28.71265,379760
28.72198,338092
28.73133,312786
28.74067,307738
28.75002,306992
28.75935,302007
28.76868,306001
28.77803,305940
28.78737,301006
28.79670,304808
28.80605,309146
28.81538,304548
28.82472,313455
28.83407,312676
28.84340,315265
28.85273,312462
28.86208,313270
28.87142,318944
28.88075,312873
28.89010,312432
28.89943,321149
28.90877,317286
28.91812,317169
28.92745,315837
28.93680,318193
28.94613,315106
28.95547,320613
28.96482,326094
28.97415,331172
28.98348,341522
28.99283,337422
29.00217,331773
29.01150,323383
29.02085,334793
29.03018,333545
29.03952,336343
29.04887,336576
29.05820,337989
29.06753,339426
29.07688,330491
29.08622,331666
29.09555,338114
29.10490,334094
29.11423,336309
29.12358,337720
29.13292,327076
29.14225,336198
29.15160,333370
29.16093,337985
29.17027,331156
29.17962,340411
29.18895,340080
29.19828,349967
29.20763,369284
29.21697,379165
29.22630,380238
29.23565,372482
29.24498,378496
29.25432,374869
29.26367,375576
29.27300,377116
29.28233,375847
29.29168,372408
29.30102,366809
29.31037,357577
29.31970,356124
29.32903,353082
29.33838,349061
29.34772,349011
29.35705,344899
29.36640,341496
29.37573,344506
29.38507,344369
29.39442,343230
29.40375,345847
29.41308,344449
29.42243,345815
29.43177,344252
29.44110,340465
29.45045,351868
29.45978,360215
29.46913,361030
29.47847,375262
29.48780,370157
29.49715,373442
29.50648,366105
29.51582,358446
29.52517,361825
29.53450,356260
29.54383,357214
29.55318,355781
29.56252,355056
29.57185,352153
29.58120,349263
29.59053,348987
29.59987,345311
29.60922,348039
29.61855,342894
29.62788,347469
29.63723,345600
29.64657,346601
29.65592,347120
29.66525,347562
29.67458,347895
29.68393,349602
29.69327,348395
29.70260,350752
29.71195,342182
29.72128,347793
29.73062,351273
29.73997,353895
29.74930,357821
29.75863,353264
29.76798,359722
29.77732,358446
29.78665,353946
29.79600,352630
29.80533,350660
29.81467,351505
29.82402,348579
29.83335,342495
29.84270,347388
29.85203,341046
29.86137,343900
29.87072,342229
29.88005,340313
29.88938,346798
29.89873,342922
29.90807,348627
29.91740,352743
29.92675,351128
29.93608,352351
29.94542,354982
29.95477,359978
29.96410,358196
29.97343,356625
29.98278,353872
29.99212,350640
30.00145,355379
30.01080,352715
30.02013,351489
30.02948,350436
30.03882,348583
30.04815,342456
30.05750,344911
30.06683,347273
30.07617,344307
30.08552,345403
30.09485,343768
30.10418,346986
30.11353,348274
30.12287,356328
30.13220,363827
30.14155,376678
30.15088,404600
30.16022,447128
30.16957,507261
30.17890,576187
30.18825,690678
30.19758,777659
30.20692,888382
30.21627,961646
30.22560,1033124
30.23493,1071031
30.24428,1103738
30.25362,1133327
30.26295,1111983
30.27230,1081173
30.28163,996472
30.29097,916187
30.30032,823225
30.30965,714991
30.31898,611498
30.32833,536448
30.33767,482856
30.34700,445504
30.35635,414720
30.36568,395254
30.37503,382830
30.38437,380263
30.39370,376476
30.40305,375224
30.41238,393790
30.42172,390402
30.43107,380934
30.44040,369218
30.44973,356778
30.45908,357367
30.46842,357340
30.47775,348635
30.48710,356417
30.49643,361623
30.50577,358170
30.51512,354202
30.52445,351194
30.53378,349044
30.54313,349945
30.55247,348390
30.56182,341949
30.57115,348535
30.58048,355619
30.58983,347115
30.59917,349931
30.60850,350821
30.61785,351989
30.62718,353053
30.63652,360417
30.64587,369677
30.65520,376868
30.66453,386278
30.67388,381993
30.68322,378735
30.69255,377952
30.70190,368785
30.71123,363221
30.72057,355164
30.72992,350657
30.73925,359251
30.74860,351811
30.75793,355203
30.76727,357146
30.77662,348061
30.78595,355968
30.79528,356968
30.80463,363930
30.81397,360894
30.82330,359327
30.83265,362727
30.84198,362151
30.85132,359303
30.86067,352912
30.87000,353597
30.87933,355541
30.88868,358789
30.89802,356282
30.90735,361641
30.91670,355923
30.92603,356169
30.93538,360170
30.94472,363863
30.95405,364871
30.96340,365094
30.97273,361663
30.98207,368305
30.99142,367365
31.00075,363043
31.01008,367723
31.01943,368337
31.02877,365357
31.03810,360051
31.04745,361096
31.05678,360428
31.06612,358948
31.07547,357519
31.08480,352439
31.09413,354218
31.10348,356868
31.11282,351537
31.12217,359365
31.13150,359546
31.14083,357098
31.15018,356836
31.15952,361898
31.16885,361047
31.17820,354856
31.18753,360403
31.19687,354425
31.20622,355713
31.21555,355605
31.22488,349951
31.23423,354371
31.24357,351805
31.25290,352112
31.26225,352818
31.27158,355482
31.28093,354625
31.29027,353809
31.29960,357014
31.30895,357140
31.31828,359250
31.32762,355551
31.33697,356017
31.34630,360382
31.35563,357446
31.36498,353770
