D:\数据\20211222\ZS1E-Z-000181.D Wed Dec 22 20:12:03 2021
Start of data points
0.09760,25953
0.10693,26922
0.11628,25722
0.12562,26367
0.13495,25287
0.14430,25499
0.15363,26418
0.16297,26108
0.17232,24528
0.18165,25466
0.19100,24171
0.20033,24365
0.20967,26053
0.21902,26107
0.22835,24396
0.23768,25658
0.24703,25373
0.25637,25102
0.26570,25500
0.27505,26017
0.28438,24724
0.29372,25223
0.30307,24945
0.31240,24927
0.32173,25201
0.33108,24306
0.34042,25611
0.34975,25417
0.35910,25216
0.36843,25277
0.37778,24481
0.38712,24788
0.39645,25721
0.40580,26110
0.41513,24515
0.42447,25567
0.43382,26019
0.44315,22377
0.45248,18978
0.46183,16292
0.47117,12633
0.48050,7320
0.48985,5387
0.49918,5651
0.50852,5276
0.51787,5570
0.52720,5255
0.53653,5096
0.54588,5498
0.55522,5084
0.56457,4686
0.57390,4824
0.58323,4571
0.59258,4721
0.60192,4786
0.61125,5010
0.62060,4508
0.62993,4260
0.63927,3749
0.64862,4104
0.65795,4106
0.66728,4612
0.67663,4330
0.68597,4966
0.69530,4087
0.70465,4470
0.71398,4287
0.72332,4639
0.73267,4466
0.74200,3990
0.75135,4937
0.76068,4163
0.77002,4694
0.77937,4293
0.78870,4088
0.79803,4111
0.80738,4590
0.81672,4181
0.82605,3770
0.83540,3816
0.84473,4259
0.85407,3767
0.86342,4267
0.87275,4864
0.88208,4570
0.89143,4035
0.90077,4135
0.91010,4126
0.91945,4268
0.92878,4538
0.93813,3965
0.94747,3790
0.95680,3824
0.96615,4461
0.97548,4492
0.98482,4397
0.99417,3914
1.00350,4115
1.01283,4327
1.02218,3690
1.03152,4004
1.04085,4336
1.05020,4300
1.05953,4928
1.06887,4612
1.07822,3970
1.08755,4645
1.09690,3651
1.10623,3746
1.11557,4664
1.12492,3691
1.13425,4209
1.14358,4068
1.15293,4244
1.16227,3853
1.17160,4510
1.18095,4109
1.19028,3634
1.19962,3410
1.20897,4032
1.21830,3912
1.22763,3527
1.23698,4315
1.24632,4356
1.25565,3834
1.26500,3888
1.27433,3918
1.28368,4032
1.29302,4215
1.30235,3301
1.31170,3999
1.32103,4101
1.33037,3868
1.33972,3497
1.34905,3748
1.35838,3684
1.36773,3298
1.37707,3347
1.38640,3599
1.39575,4114
1.40508,3564
1.41442,3934
1.42377,3574
1.43310,3500
1.44243,3986
1.45178,4203
1.46112,4231
1.47047,3820
1.47980,3817
1.48913,3805
1.49848,4036
1.50782,3740
1.51715,3677
1.52650,4193
1.53583,3959
1.54517,3930
1.55452,3901
1.56385,3760
1.57318,3991
1.58253,4030
1.59187,3524
1.60120,3198
1.61055,5365
1.61988,10569
1.62922,17167
1.63857,22238
1.64790,28054
1.65725,40333
1.66658,50886
1.67592,58337
1.68527,55844
1.69460,48307
1.70393,40270
1.71328,28894
1.72262,22353
1.73195,19417
1.74130,21222
1.75063,25267
1.75997,26069
1.76932,31994
1.77865,37638
1.78798,41202
1.79733,42142
1.80667,41652
1.81602,42257
1.82535,40459
1.83468,38681
1.84403,38493
1.85337,37100
1.86270,36785
1.87205,40008
1.88138,50013
1.89072,78757
1.90007,107205
1.90940,130806
1.91873,180543
1.92808,362399
1.93742,800973
1.94675,1550226
1.95610,2261403
1.96543,2364418
1.97477,1903162
1.98412,1338788
1.99345,919826
2.00280,696767
2.01213,591288
2.02147,579212
2.03082,558315
2.04015,445409
2.04948,306480
2.05883,204370
2.06817,146684
2.07750,110729
2.08685,101788
2.09618,100712
2.10552,84907
2.11487,74968
2.12420,72516
2.13353,82631
2.14288,136574
2.15222,194908
2.16155,172387
2.17090,135731
2.18023,114548
2.18958,124468
2.19892,150659
2.20825,126123
2.21760,93411
2.22693,87627
2.23627,122336
2.24562,182243
2.25495,433123
2.26428,1763587
2.27363,2390848
2.28297,1910234
2.29230,1198355
2.30165,730053
2.31098,853259
2.32032,2031144
2.32967,2739471
2.33900,1848175
2.34833,870142
2.35768,393060
2.36702,214528
2.37637,145037
2.38570,140599
2.39503,141080
2.40438,129078
2.41372,121182
2.42305,110885
2.43240,92250
2.44173,78550
2.45107,72171
2.46042,69944
2.46975,85337
2.47908,112508
2.48843,115211
2.49777,97290
2.50710,78263
2.51645,66357
2.52578,61526
2.53512,57363
2.54447,57791
2.55380,63628
2.56315,72907
2.57248,93279
2.58182,266245
2.59117,270599
2.60050,217695
2.60983,169751
2.61918,148648
2.62852,145366
2.63785,139839
2.64720,125727
2.65653,120376
2.66587,107419
2.67522,88617
2.68455,70649
2.69388,61675
2.70323,56820
2.71257,54751
2.72190,66313
2.73125,94104
2.74058,116499
2.74993,133319
2.75927,163965
2.76860,235184
2.77795,429497
2.78728,644334
2.79662,605747
2.80597,426266
2.81530,282387
2.82463,203766
2.83398,159951
2.84332,129526
2.85265,116009
2.86200,116923
2.87133,122679
2.88067,155338
2.89002,153012
2.89935,126190
2.90870,106573
2.91803,92953
2.92737,89020
2.93672,80104
2.94605,70198
2.95538,63290
2.96473,60208
2.97407,57148
2.98340,54442
2.99275,54042
3.00208,59115
3.01142,67015
3.02077,67254
3.03010,64466
3.03943,64627
3.04878,94506
3.05812,118080
3.06745,128071
3.07680,129868
3.08613,111507
3.09548,83393
3.10482,64597
3.11415,53512
3.12350,50809
3.13283,52502
3.14217,50390
3.15152,53366
3.16085,57067
3.17018,62092
3.17953,56629
3.18887,53610
3.19820,51747
3.20755,49731
3.21688,50835
3.22622,53935
3.23557,54690
3.24490,51856
3.25423,48943
3.26358,48755
3.27292,47711
3.28227,45747
3.29160,45863
3.30093,49357
3.31028,49810
3.31962,49272
3.32895,46918
3.33830,46650
3.34763,46937
3.35697,47254
3.36632,47171
3.37565,44760
3.38498,44284
3.39433,42930
3.40367,43773
3.41300,49000
3.42235,55619
3.43168,57512
3.44102,53842
3.45037,61154
3.45970,66656
3.46905,67624
3.47838,62967
3.48772,65244
3.49707,66773
3.50640,66402
3.51573,58657
3.52508,51632
3.53442,48090
3.54375,48906
3.55310,83829
3.56243,207546
3.57177,403428
3.58112,464467
3.59045,334479
3.59978,181029
3.60913,106884
3.61847,75470
3.62782,64834
3.63715,62225
3.64648,66089
3.65583,59829
3.66517,58899
3.67450,61259
3.68385,60823
3.69318,58547
3.70252,52249
3.71187,46360
3.72120,48772
3.73053,49638
3.73988,49088
3.74922,47372
3.75855,49002
3.76790,48010
3.77723,45392
3.78657,43821
3.79592,43050
3.80525,44195
3.81460,51712
3.82393,60398
3.83327,63917
3.84262,56589
3.85195,48650
3.86128,44110
3.87063,42771
3.87997,46528
3.88930,46626
3.89865,49220
3.90798,54715
3.91732,54571
3.92667,55492
3.93600,61447
3.94533,66114
3.95468,83141
3.96402,113893
3.97335,118707
3.98270,102695
3.99203,75092
4.00138,57418
4.01072,52587
4.02005,63380
4.02940,64360
4.03873,77003
4.04807,102414
4.05742,115280
4.06675,99403
4.07608,85518
4.08543,90127
4.09477,98965
4.10410,96000
4.11345,82659
4.12278,68810
4.13212,58284
4.14147,51797
4.15080,49757
4.16013,51595
4.16948,49849
4.17882,47014
4.18817,45894
4.19750,43502
4.20683,46427
4.21618,50248
4.22552,48871
4.23485,47176
4.24420,45660
4.25353,45183
4.26287,42997
4.27222,46179
4.28155,49654
4.29088,65833
4.30023,69157
4.30957,65072
4.31890,68365
4.32825,66848
4.33758,66265
4.34692,65115
4.35627,59541
4.36560,55891
4.37495,50508
4.38428,48268
4.39362,58193
4.40297,59953
4.41230,54897
4.42163,48526
4.43098,44012
4.44032,41865
4.44965,41758
4.45900,40615
4.46833,43376
4.47767,48708
4.48702,53833
4.49635,55458
4.50568,50321
4.51503,45924
4.52437,45150
4.53372,45819
4.54305,49908
4.55238,56176
4.56173,55229
4.57107,52567
4.58040,48541
4.58975,46557
4.59908,44052
4.60842,42982
4.61777,41591
4.62710,40969
4.63643,39743
4.64578,43528
4.65512,54542
4.66445,63177
4.67380,63557
4.68313,60082
4.69247,53816
4.70182,50890
4.71115,51009
4.72050,47143
4.72983,44037
4.73917,50302
4.74852,68493
4.75785,68103
4.76718,60687
4.77653,55484
4.78587,53376
4.79520,48676
4.80455,48836
4.81388,50170
4.82322,48508
4.83257,46599
4.84190,46443
4.85123,49244
4.86058,48136
4.86992,47397
4.87925,51893
4.88860,57673
4.89793,52303
4.90728,51081
4.91662,48928
4.92595,46113
4.93530,44956
4.94463,45618
4.95397,44081
4.96332,43774
4.97265,42345
4.98198,42696
4.99133,41553
5.00067,40611
5.01000,42875
5.01935,42774
5.02868,45487
5.03802,44929
5.04737,48824
5.05670,45156
5.06603,46165
5.07538,45695
5.08472,49422
5.09407,50895
5.10340,51461
5.11273,47206
5.12208,44261
5.13142,46590
5.14075,44963
5.15010,46150
5.15943,48442
5.16877,47023
5.17812,44994
5.18745,43357
5.19678,43683
5.20613,51599
5.21547,54820
5.22480,50840
5.23415,48406
5.24348,49677
5.25283,48577
5.26217,48653
5.27150,53275
5.28085,84687
5.29018,149484
5.29952,197882
5.30887,175009
5.31820,115110
5.32753,72873
5.33688,59354
5.34622,52948
5.35555,49047
5.36490,45910
5.37423,46825
5.38357,47602
5.39292,52307
5.40225,54529
5.41158,52922
5.42093,49551
5.43027,46633
5.43962,43906
5.44895,41387
5.45828,42711
5.46763,40594
5.47697,40518
5.48630,41914
5.49565,40857
5.50498,43110
5.51432,45427
5.52367,53525
5.53300,64437
5.54233,64999
5.55168,60522
5.56102,52583
5.57035,45770
5.57970,43071
5.58903,41658
5.59837,41798
5.60772,43657
5.61705,45865
5.62640,41880
5.63573,40300
5.64507,40788
5.65442,41715
5.66375,42289
5.67308,44128
5.68243,44879
5.69177,46625
5.70110,48652
5.71045,49727
5.71978,49048
5.72912,49133
5.73847,47653
5.74780,52917
5.75713,63697
5.76648,64604
5.77582,57724
5.78515,60719
5.79450,65270
5.80383,61187
5.81318,52718
5.82252,50321
5.83185,51299
5.84120,53982
5.85053,55703
5.85987,48303
5.86922,47304
5.87855,42275
5.88788,39240
5.89723,34474
5.90657,32658
5.91590,47965
5.92525,85939
5.93458,121647
5.94392,117434
5.95327,99975
5.96260,107099
5.97193,95047
5.98128,69188
5.99062,53054
5.99997,44575
6.00930,39394
6.01863,36907
6.02798,32998
6.03732,29052
6.04665,24277
6.05600,24213
6.06533,23770
6.07467,23704
6.08402,22276
6.09335,19247
6.10268,17624
6.11203,16159
6.12137,19073
6.13070,22100
6.14005,26673
6.14938,25558
6.15873,21107
6.16807,18232
6.17740,16618
6.18675,17311
6.19608,16270
6.20542,16554
6.21477,16592
6.22410,19568
6.23343,20289
6.24278,24026
6.25212,23173
6.26145,22352
6.27080,20669
6.28013,22940
6.28947,26863
6.29882,29652
6.30815,23984
6.31748,21110
6.32683,17108
6.33617,16270
6.34552,16247
6.35485,16018
6.36418,16490
6.37353,18008
6.38287,21002
6.39220,36752
6.40155,112631
6.41088,391333
6.42022,788490
6.42957,836435
6.43890,499491
6.44823,184523
6.45758,62019
6.46692,32063
6.47625,28907
6.48560,27017
6.49493,26026
6.50427,21677
6.51362,21766
6.52295,20059
6.53230,20323
6.54163,19009
6.55097,16242
6.56032,16496
6.56965,16845
6.57898,18279
6.58833,18641
6.59767,19051
6.60700,20110
6.61635,20285
6.62568,19243
6.63502,20296
6.64437,23140
6.65370,22773
6.66303,24353
6.67238,25270
6.68172,24676
6.69105,22556
6.70040,20074
6.70973,22138
6.71908,27873
6.72842,29237
6.73775,26025
6.74710,23752
6.75643,20600
6.76577,20606
6.77512,21048
6.78445,21311
6.79378,27525
6.80313,34220
6.81247,32919
6.82180,27954
6.83115,22320
6.84048,21993
6.84982,24157
6.85917,30436
6.86850,30493
6.87785,26355
6.88718,21865
6.89652,21566
6.90587,20742
6.91520,20127
6.92453,20967
6.93388,21157
6.94322,19865
6.95255,21106
6.96190,19505
6.97123,20045
6.98057,21036
6.98992,21647
6.99925,20391
7.00858,18149
7.01793,18056
7.02727,18930
7.03660,15879
7.04595,15798
7.05528,14268
7.06463,13709
7.07397,13178
7.08330,14390
7.09265,16704
7.10198,17464
7.11132,22515
7.12067,21478
7.13000,21643
7.13933,20010
7.14868,17541
7.15802,15407
7.16735,14102
7.17670,13717
7.18603,16332
7.19537,15641
7.20472,16928
7.21405,17735
7.22338,19508
7.23273,29116
7.24207,53014
7.25142,75852
7.26075,67729
7.27008,41392
7.27943,28873
7.28877,24518
7.29810,22159
7.30745,20195
7.31678,18467
7.32612,15831
7.33547,14978
7.34480,15568
7.35413,15269
7.36348,16102
7.37282,15982
7.38215,16446
7.39150,24598
7.40083,54145
7.41017,105212
7.41952,140849
7.42885,126134
7.43820,79442
7.44753,44287
7.45687,26519
7.46622,19332
7.47555,22716
7.48488,45468
7.49423,54154
7.50357,44011
7.51290,31487
7.52225,23514
7.53158,18449
7.54092,15498
7.55027,15890
7.55960,16465
7.56893,18433
7.57828,19414
7.58762,21411
7.59695,21549
7.60630,22880
7.61563,23928
7.62498,23631
7.63432,25046
7.64365,23053
7.65300,22706
7.66233,20652
7.67167,20210
7.68102,19634
7.69035,19494
7.69968,19867
7.70903,20533
7.71837,21031
7.72770,19592
7.73705,20647
7.74638,21097
7.75572,22780
7.76507,24693
7.77440,25685
7.78373,24422
7.79308,25103
7.80242,24376
7.81177,22332
7.82110,20943
7.83043,19344
7.83978,18002
7.84912,20397
7.85845,34513
7.86780,66161
7.87713,90895
7.88647,92465
7.89582,64248
7.90515,43766
7.91448,45431
7.92383,64358
7.93317,70994
7.94250,51962
7.95185,33163
7.96118,31177
7.97053,42990
7.97987,47466
7.98920,43734
7.99855,36454
8.00788,33214
8.01722,27388
8.02657,25029
8.03590,29843
8.04523,36087
8.05458,43034
8.06392,36818
8.07325,27040
8.08260,22663
8.09193,30048
8.10127,52573
8.11062,64857
8.11995,53800
8.12928,38325
8.13863,26950
8.14797,23431
8.15732,20827
8.16665,19449
8.17598,19792
8.18533,20569
8.19467,19878
8.20400,18497
8.21335,19011
8.22268,18440
8.23202,18041
8.24137,18488
8.25070,21965
8.26003,23563
8.26938,23137
8.27872,22076
8.28805,20786
8.29740,21044
8.30673,18551
8.31607,19427
8.32542,19481
8.33475,19024
8.34410,20685
8.35343,19864
8.36277,19052
8.37212,17847
8.38145,17765
8.39078,18660
8.40013,23703
8.40947,28370
8.41880,29053
8.42815,28889
8.43748,29171
8.44682,27991
8.45617,27243
8.46550,26165
8.47483,26631
8.48418,26538
8.49352,26263
8.50285,24035
8.51220,23725
8.52153,22058
8.53088,21709
8.54022,21159
8.54955,20873
8.55890,22398
8.56823,23569
8.57757,23838
8.58692,24784
8.59625,21994
8.60558,26653
8.61493,27186
8.62427,27694
8.63360,25452
8.64295,23224
8.65228,23024
8.66162,22326
8.67097,26419
8.68030,24561
8.68965,23470
8.69898,23079
8.70832,23978
8.71767,23914
8.72700,21792
8.73633,22394
8.74568,26428
8.75502,36056
8.76435,41430
8.77370,37253
8.78303,30281
8.79237,25547
8.80172,31846
8.81105,46064
8.82038,58209
8.82973,50404
8.83907,36427
8.84840,26678
8.85775,25340
8.86708,24891
8.87643,27284
8.88577,28215
8.89510,29127
8.90445,27674
8.91378,26211
8.92312,25362
8.93247,27213
8.94180,26581
8.95113,23870
8.96048,22119
8.96982,21528
8.97915,23147
8.98850,23007
8.99783,23199
9.00717,26405
9.01652,27838
9.02585,26957
9.03518,25516
9.04453,24233
9.05387,25487
9.06322,28003
9.07255,30006
9.08188,36923
9.09123,41312
9.10057,44630
9.10990,37532
9.11925,31415
9.12858,26720
9.13792,26991
9.14727,30054
9.15660,25904
9.16593,24566
9.17528,24820
9.18462,25887
9.19395,25488
9.20330,27712
9.21263,32783
9.22197,46573
9.23132,73179
9.24065,91916
9.25000,81249
9.25933,56852
9.26867,39016
9.27802,33175
9.28735,29701
9.29668,29244
9.30603,27948
9.31537,31314
9.32470,37941
9.33405,57962
9.34338,65581
9.35272,53343
9.36207,69254
9.37140,154695
9.38073,248027
9.39008,249930
9.39942,170691
9.40875,96136
9.41810,61124
9.42743,50793
9.43678,44041
9.44612,36349
9.45545,30503
9.46480,26865
9.47413,25796
9.48347,26091
9.49282,28258
9.50215,33227
9.51148,33099
9.52083,30164
9.53017,26612
9.53950,30571
9.54885,35850
9.55818,48867
9.56752,72069
9.57687,75782
9.58620,54495
9.59555,38266
9.60488,44122
9.61422,46890
9.62357,38228
9.63290,30396
9.64223,29958
9.65158,28191
9.66092,28579
9.67025,28565
9.67960,26949
9.68893,27645
9.69827,24495
9.70762,24490
9.71695,28225
9.72628,69838
9.73563,300605
9.74497,921420
9.75430,1372709
9.76365,1154657
9.77298,610270
9.78233,278741
9.79167,156908
9.80100,114163
9.81035,91719
9.81968,80563
9.82902,83315
9.83837,87151
9.84770,90595
9.85703,88037
9.86638,74497
9.87572,64706
9.88505,73961
9.89440,101199
9.90373,110305
9.91307,123049
9.92242,177490
9.93175,222006
9.94108,173420
9.95043,101336
9.95977,60816
9.96912,48476
9.97845,64574
9.98778,112147
9.99713,156660
10.00647,143045
10.01580,94071
10.02515,59063
10.03448,43298
10.04382,36948
10.05317,38617
10.06250,39912
10.07183,46022
10.08118,52656
10.09052,50025
10.09985,43465
10.10920,42804
10.11853,86288
10.12787,210464
10.13722,337638
10.14655,375666
10.15590,793057
10.16523,2092165
10.17457,3129700
10.18392,2344581
10.19325,860072
10.20258,182000
10.21193,55459
10.22127,43694
10.23060,44695
10.23995,68732
10.24928,96752
10.25862,101611
10.26797,71222
10.27730,47174
10.28663,38606
10.29598,40244
10.30532,41624
10.31467,41160
10.32400,36470
10.33333,32874
10.34268,27599
10.35202,28968
10.36135,30635
10.37070,30721
10.38003,29011
10.38937,28407
10.39872,25489
10.40805,26462
10.41738,26438
10.42673,26487
10.43607,26023
10.44540,26721
10.45475,29640
10.46408,34349
10.47342,37516
10.48277,32884
10.49210,30687
10.50145,27104
10.51078,25593
10.52012,24200
10.52947,25990
10.53880,28305
10.54813,33974
10.55748,42786
10.56682,47569
10.57615,40314
10.58550,34728
10.59483,27462
10.60417,30573
10.61352,29399
10.62285,28290
10.63218,30939
10.64153,34996
10.65087,32692
10.66020,30203
10.66955,28830
10.67888,31058
10.68823,35538
10.69757,31951
10.70690,32002
10.71625,41994
10.72558,53200
10.73492,48558
10.74427,39811
10.75360,45842
10.76293,79387
10.77228,112693
10.78162,108494
10.79095,103006
10.80030,151231
10.80963,246946
10.81897,249539
10.82832,156953
10.83765,72389
10.84698,43168
10.85633,33349
10.86567,33593
10.87502,40223
10.88435,52221
10.89368,61783
10.90303,55368
10.91237,38884
10.92170,37185
10.93105,39848
10.94038,40761
10.94972,35047
10.95907,31433
10.96840,31874
10.97773,29955
10.98708,30351
10.99642,28111
11.00575,31627
11.01510,33970
11.02443,30305
11.03377,26710
11.04312,25612
11.05245,25405
11.06180,26171
11.07113,26445
11.08047,27330
11.08982,26253
11.09915,28980
11.10848,38385
11.11783,51953
11.12717,54875
11.13650,44892
11.14585,36249
11.15518,33740
11.16452,30526
11.17387,30540
11.18320,28165
11.19253,26238
11.20188,25908
11.21122,25673
11.22055,26804
11.22990,27747
11.23923,27931
11.24858,25573
11.25792,26994
11.26725,30943
11.27660,33609
11.28593,30039
11.29527,27411
11.30462,25389
11.31395,25793
11.32328,25532
11.33263,27649
11.34197,35905
11.35130,42609
11.36065,49567
11.36998,47301
11.37932,43122
11.38867,38391
11.39800,36065
11.40735,41087
11.41668,47644
11.42602,47249
11.43537,40483
11.44470,32525
11.45403,30038
11.46338,33969
11.47272,43390
11.48205,50094
11.49140,44304
11.50073,35131
11.51007,27884
11.51942,26107
11.52875,24625
11.53808,26538
11.54743,36507
11.55677,53049
11.56610,80559
11.57545,122141
11.58478,164051
11.59413,157537
11.60347,109959
11.61280,76220
11.62215,55922
11.63148,46015
11.64082,40640
11.65017,36543
11.65950,35930
11.66883,38849
11.67818,37349
11.68752,35400
11.69685,34005
11.70620,33697
11.71553,34802
11.72487,35304
11.73422,32570
11.74355,28920
11.75288,30602
11.76223,30017
11.77157,31605
11.78092,34912
11.79025,38490
11.79958,38541
11.80893,34921
11.81827,32266
11.82760,32329
11.83695,33769
11.84628,37538
11.85562,39049
11.86497,37005
11.87430,36838
11.88363,37829
11.89298,35737
11.90232,32790
11.91165,30883
11.92100,29881
11.93033,27855
11.93967,32605
11.94902,40608
11.95835,45384
11.96770,37470
11.97703,33283
11.98637,29009
11.99572,31655
12.00505,42270
12.01438,68053
12.02373,92284
12.03307,78108
12.04240,53761
12.05175,39646
12.06108,36539
12.07042,33273
12.07977,30127
12.08910,29932
12.09843,30426
12.10778,32580
12.11712,32432
12.12647,28819
12.13580,29250
12.14513,29707
12.15448,31075
12.16382,38134
12.17315,70825
12.18250,113910
12.19183,120450
12.20117,80419
12.21052,47117
12.21985,38395
12.22918,42569
12.23853,47044
12.24787,42626
12.25720,38438
12.26655,53876
12.27588,130758
12.28522,243583
12.29457,252418
12.30390,149539
12.31325,69087
12.32258,45210
12.33192,39794
12.34127,41964
12.35060,40259
12.35993,35109
12.36928,31620
12.37862,33098
12.38795,34308
12.39730,40558
12.40663,42680
12.41597,39904
12.42532,38136
12.43465,35013
12.44398,33209
12.45333,32924
12.46267,36394
12.47200,39266
12.48135,38603
12.49068,37955
12.50003,39455
12.50937,42681
12.51870,42170
12.52805,43406
12.53738,42664
12.54672,40474
12.55607,39211
12.56540,45332
12.57473,52980
12.58408,50966
12.59342,41636
12.60275,35326
12.61210,33173
12.62143,34387
12.63077,38167
12.64012,42483
12.64945,47266
12.65878,45922
12.66813,41565
12.67747,38077
12.68682,32070
12.69615,28002
12.70548,29315
12.71483,32418
12.72417,35687
12.73350,36203
12.74285,36391
12.75218,37254
12.76152,38065
12.77087,35583
12.78020,33252
12.78953,29979
12.79888,30908
12.80822,32530
12.81755,33548
12.82690,34355
12.83623,35499
12.84557,34797
12.85492,32996
12.86425,30915
12.87360,30509
12.88293,30304
12.89227,32559
12.90162,33985
12.91095,32232
12.92028,30740
12.92963,29558
12.93897,31203
12.94830,31489
12.95765,32658
12.96698,33224
12.97632,30581
12.98567,28136
12.99500,29824
13.00433,30342
13.01368,30538
13.02302,32263
13.03237,38897
13.04170,45479
13.05103,43686
13.06038,37044
13.06972,34438
13.07905,39683
13.08840,36916
13.09773,36264
13.10707,34405
13.11642,32916
13.12575,33261
13.13508,36915
13.14443,42321
13.15377,40719
13.16310,39531
13.17245,40893
13.18178,41101
13.19112,45854
13.20047,71036
13.20980,139932
13.21915,205622
13.22848,188358
13.23782,124599
13.24717,101905
13.25650,111900
13.26583,95303
13.27518,62780
13.28452,43961
13.29385,38125
13.30320,33807
13.31253,32309
13.32187,38946
13.33122,44564
13.34055,44448
13.34988,45738
13.35923,45933
13.36857,42935
13.37790,36025
13.38725,34824
13.39658,36145
13.40593,43198
13.41527,40522
13.42460,36733
13.43395,37988
13.44328,43955
13.45262,50850
13.46197,43445
13.47130,41790
13.48063,42724
13.48998,42859
13.49932,38364
13.50865,37613
13.51800,56364
13.52733,112607
13.53667,156617
13.54602,134267
13.55535,80617
13.56468,44787
13.57403,34469
13.58337,33633
13.59272,29055
13.60205,28042
13.61138,28330
13.62073,30234
13.63007,29203
13.63940,31542
13.64875,39476
13.65808,45859
13.66742,42510
13.67677,35203
13.68610,31724
13.69543,29291
13.70478,26359
13.71412,26073
13.72345,27376
13.73280,28151
13.74213,25792
13.75148,27010
13.76082,27141
13.77015,28392
13.77950,29303
13.78883,29050
13.79817,32480
13.80752,37836
13.81685,41124
13.82618,36509
13.83553,32093
13.84487,29609
13.85420,29333
13.86355,30018
13.87288,33941
13.88222,38280
13.89157,49057
13.90090,70353
13.91023,125513
13.91958,211970
13.92892,262561
13.93827,181327
13.94760,88935
13.95693,52467
13.96628,48342
13.97562,43645
13.98495,37812
13.99430,36646
14.00363,37445
14.01297,36476
14.02232,34181
14.03165,32686
14.04098,48596
14.05033,231456
14.05967,1345121
14.06900,4377253
14.07835,7573938
14.08768,6657039
14.09702,2723730
14.10637,542032
14.11570,102524
14.12505,56096
14.13438,46415
14.14372,43327
14.15307,44427
14.16240,46261
14.17173,49115
14.18108,60409
14.19042,99459
14.19975,168143
14.20910,183538
14.21843,124510
14.22777,60474
14.23712,39094
14.24645,31673
14.25578,29295
14.26513,30394
14.27447,32287
14.28380,30683
14.29315,30403
14.30248,28043
14.31183,29015
14.32117,36727
14.33050,44561
14.33985,49781
14.34918,49301
14.35852,41133
14.36787,33710
14.37720,29760
14.38653,30405
14.39588,30197
14.40522,29674
14.41455,27251
14.42390,26289
14.43323,27972
14.44257,30186
14.45192,33649
14.46125,39211
14.47058,43352
14.47993,45526
14.48927,37936
14.49862,31750
14.50795,28763
14.51728,25852
14.52663,25916
14.53597,25503
14.54530,26802
14.55465,29278
14.56398,32815
14.57332,33401
14.58267,32837
14.59200,31541
14.60133,28247
14.61068,27823
14.62002,27956
14.62935,29402
14.63870,32284
14.64803,42055
14.65737,53912
14.66672,62534
14.67605,55573
14.68540,44014
14.69473,35597
14.70407,34226
14.71342,30386
14.72275,30444
14.73208,31849
14.74143,33940
14.75077,29880
14.76010,32866
14.76945,31839
14.77878,35989
14.78812,37175
14.79747,35988
14.80680,33861
14.81613,29911
14.82548,30814
14.83482,33054
14.84417,29880
14.85350,27608
14.86283,31567
14.87218,42973
14.88152,51603
14.89085,47199
14.90020,38974
14.90953,33082
14.91887,31749
14.92822,31283
14.93755,29791
14.94688,30589
14.95623,31432
14.96557,32274
14.97490,32972
14.98425,31963
14.99358,31835
15.00292,31429
15.01227,36047
15.02160,38346
15.03095,34722
15.04028,30001
15.04962,32428
15.05897,34682
15.06830,35298
15.07763,34203
15.08698,31114
15.09632,30642
15.10565,27792
15.11500,30028
15.12433,31947
15.13367,37638
15.14302,40220
15.15235,36812
15.16168,30940
15.17103,28373
15.18037,28634
15.18970,30646
15.19905,37817
15.20838,54205
15.21773,75483
15.22707,78867
15.23640,64194
15.24575,45840
15.25508,36572
15.26442,32351
15.27377,33252
15.28310,31838
15.29243,30688
15.30178,31431
15.31112,30574
15.32045,34025
15.32980,34487
15.33913,36309
15.34847,37130
15.35782,38515
15.36715,40305
15.37648,43473
15.38583,43041
15.39517,36142
15.40452,29585
15.41385,28505
15.42318,33309
15.43253,37583
15.44187,36026
15.45120,36229
15.46055,31363
15.46988,29021
15.47922,29970
15.48857,32985
15.49790,36133
15.50723,40275
15.51658,47028
15.52592,56481
15.53525,56272
15.54460,47963
15.55393,38161
15.56328,31056
15.57262,29894
15.58195,27837
15.59130,28694
15.60063,28939
15.60997,28111
15.61932,30283
15.62865,34372
15.63798,38656
15.64733,40911
15.65667,39571
15.66600,40715
15.67535,41019
15.68468,41678
15.69402,50775
15.70337,64629
15.71270,75051
15.72203,64185
15.73138,48655
15.74072,37270
15.75007,37925
15.75940,45027
15.76873,48739
15.77808,45082
15.78742,38777
15.79675,34518
15.80610,34392
15.81543,36698
15.82477,48286
15.83412,78378
15.84345,130330
15.85278,159966
15.86213,121275
15.87147,68687
15.88080,49157
15.89015,50960
15.89948,53591
15.90882,58410
15.91817,53092
15.92750,44339
15.93685,36182
15.94618,33037
15.95552,31166
15.96487,31469
15.97420,34265
15.98353,47784
15.99288,66626
16.00222,79640
16.01155,67922
16.02090,48766
16.03023,38599
16.03957,38497
16.04892,41633
16.05825,45532
16.06758,42132
16.07693,39263
16.08627,37270
16.09560,35900
16.10495,35877
16.11428,37472
16.12363,41427
16.13297,42892
16.14230,41515
16.15165,34970
16.16098,35765
16.17032,34117
16.17967,32813
16.18900,32921
16.19833,36343
16.20768,41749
16.21702,43839
16.22635,43984
16.23570,42458
16.24503,44657
16.25437,43424
16.26372,39956
16.27305,42258
16.28238,60871
16.29173,120538
16.30107,197758
16.31042,219338
16.31975,146602
16.32908,74291
16.33843,43452
16.34777,36127
16.35710,30579
16.36645,30075
16.37578,30554
16.38512,32151
16.39447,30488
16.40380,31197
16.41313,33271
16.42248,31911
16.43182,33111
16.44115,31110
16.45050,36010
16.45983,42656
16.46918,43464
16.47852,40215
16.48785,40271
16.49720,42772
16.50653,39363
16.51587,38995
16.52522,41535
16.53455,41658
16.54388,38007
16.55323,34632
16.56257,33643
16.57190,32781
16.58125,31828
16.59058,34191
16.59992,34055
16.60927,33342
16.61860,36554
16.62793,39011
16.63728,44429
16.64662,44260
16.65597,47127
16.66530,40715
16.67463,36955
16.68398,36089
16.69332,45672
16.70265,53732
16.71200,53728
16.72133,44548
16.73067,38930
16.74002,50889
16.74935,87160
16.75868,121427
16.76803,106863
16.77737,66099
16.78670,38793
16.79605,32633
16.80538,32288
16.81472,37519
16.82407,42396
16.83340,45217
16.84275,49979
16.85208,53435
16.86142,54197
16.87077,48816
16.88010,42542
16.88943,40267
16.89878,38152
16.90812,42583
16.91745,51558
16.92680,53683
16.93613,50626
16.94547,47419
16.95482,52274
16.96415,55312
16.97348,57993
16.98283,51266
16.99217,45915
17.00150,38315
17.01085,36635
17.02018,38794
17.02953,58653
17.03887,91606
17.04820,94562
17.05755,64314
17.06688,45690
17.07622,42086
17.08557,37684
17.09490,36862
17.10423,35620
17.11358,34977
17.12292,34231
17.13225,36660
17.14160,40477
17.15093,41125
17.16027,34566
17.16962,33285
17.17895,37739
17.18830,48828
17.19763,53624
17.20697,48406
17.21632,39752
17.22565,34060
17.23498,33320
17.24433,32700
17.25367,33077
17.26300,37582
17.27235,38848
17.28168,43289
17.29102,48649
17.30037,46412
17.30970,41432
17.31903,42210
17.32838,45604
17.33772,44823
17.34705,39912
17.35640,36996
17.36573,34999
17.37508,47472
17.38442,85983
17.39375,128048
17.40310,124114
17.41243,77703
17.42177,51298
17.43112,40050
17.44045,38774
17.44978,39543
17.45913,39064
17.46847,39965
17.47780,38232
17.48715,52334
17.49648,170178
17.50582,721517
17.51517,1789011
17.52450,2229185
17.53383,1368460
17.54318,441647
17.55252,98849
17.56187,50092
17.57120,45339
17.58053,49929
17.58988,51115
17.59922,47268
17.60855,42148
17.61790,36736
17.62723,38532
17.63657,39159
17.64592,37867
17.65525,40633
17.66458,41868
17.67393,47250
17.68327,58460
17.69260,67410
17.70195,68667
17.71128,59990
17.72062,50281
17.72997,45329
17.73930,41220
17.74865,41178
17.75798,44947
17.76732,47790
17.77667,48571
17.78600,46732
17.79533,46100
17.80468,42793
17.81402,42614
17.82335,37404
17.83270,34420
17.84203,35694
17.85137,38991
17.86072,48241
17.87005,57271
17.87938,59432
17.88873,49861
17.89807,43184
17.90740,36968
17.91675,35178
17.92608,34860
17.93543,36473
17.94477,37371
17.95410,36332
17.96345,34594
17.97278,36199
17.98212,35319
17.99147,34102
18.00080,33265
18.01013,34653
18.01948,33882
18.02882,33964
18.03815,35107
18.04750,37920
18.05683,40661
18.06617,42909
18.07552,40094
18.08485,35291
18.09418,35337
18.10353,43586
18.11287,58864
18.12222,66586
18.13155,62625
18.14088,50682
18.15023,45235
18.15957,42620
18.16890,40336
18.17825,41526
18.18758,41537
18.19692,40697
18.20627,36821
18.21560,38255
18.22493,36703
18.23428,39781
18.24362,37623
18.25295,35747
18.26230,33234
18.27163,34748
18.28098,40038
18.29032,44546
18.29965,48561
18.30900,46781
18.31833,50127
18.32767,46431
18.33702,47315
18.34635,52958
18.35568,53740
18.36503,58797
18.37437,58135
18.38370,54769
18.39305,55266
18.40238,65194
18.41172,79286
18.42107,84584
18.43040,64934
18.43973,52736
18.44908,50319
18.45842,50539
18.46777,46014
18.47710,39276
18.48643,41363
18.49578,48510
18.50512,58952
18.51445,70833
18.52380,70403
18.53313,62023
18.54247,49887
18.55182,45775
18.56115,43188
18.57048,43679
18.57983,41044
18.58917,40599
18.59850,42312
18.60785,45735
18.61718,50436
18.62652,50248
18.63587,46196
18.64520,45686
18.65455,46160
18.66388,40945
18.67322,39256
18.68257,43230
18.69190,42462
18.70123,45743
18.71058,49884
18.71992,50838
18.72925,51922
18.73860,53149
18.74793,52005
18.75727,48348
18.76662,43424
18.77595,39602
18.78528,35274
18.79463,35303
18.80397,37769
18.81330,39308
18.82265,37783
18.83198,38078
18.84133,37690
18.85067,36366
18.86000,35282
18.86935,33751
18.87868,33039
18.88802,34444
18.89737,34643
18.90670,39991
18.91603,47818
18.92538,53224
18.93472,50294
18.94405,47380
18.95340,49842
18.96273,51543
18.97207,64865
18.98142,67938
18.99075,57080
19.00010,50382
19.00943,43429
19.01877,40185
19.02812,40395
19.03745,41469
19.04678,53662
19.05613,69579
19.06547,86667
19.07480,103788
19.08415,138959
19.09348,154459
19.10282,124289
19.11217,78791
19.12150,53398
19.13083,38709
19.14018,35391
19.14952,32463
19.15885,32682
19.16820,32804
19.17753,31434
19.18688,33758
19.19622,37419
19.20555,40268
19.21490,44729
19.22423,44648
19.23357,41133
19.24292,39961
19.25225,38187
19.26158,41720
19.27093,50460
19.28027,54792
19.28960,57363
19.29895,60578
19.30828,76458
19.31762,108302
19.32697,118980
19.33630,90794
19.34563,63229
19.35498,46959
19.36432,40176
19.37367,37739
19.38300,36522
19.39233,35212
19.40168,38250
19.41102,40298
19.42035,37897
19.42970,36497
19.43903,32563
19.44837,33061
19.45772,31104
19.46705,32974
19.47638,36216
19.48573,40840
19.49507,42225
19.50440,40055
19.51375,38306
19.52308,34489
19.53242,34409
19.54177,36039
19.55110,34859
19.56045,33328
19.56978,35013
19.57912,39058
19.58847,38068
19.59780,40888
19.60713,39589
19.61648,35676
19.62582,37103
19.63515,41058
19.64450,43078
19.65383,42967
19.66317,37388
19.67252,34979
19.68185,36188
19.69118,39604
19.70053,42547
19.70987,46312
19.71920,49045
19.72855,54523
19.73788,63751
19.74723,62469
19.75657,52894
19.76590,45318
19.77525,42486
19.78458,44518
19.79392,41743
19.80327,41808
19.81260,38252
19.82193,37364
19.83128,35126
19.84062,36399
19.84995,31551
19.85930,34593
19.86863,39217
19.87797,52562
19.88732,68115
19.89665,60778
19.90600,46564
19.91533,40177
19.92467,38151
19.93402,38565
19.94335,39144
19.95268,35430
19.96203,34579
19.97137,35715
19.98070,35764
19.99005,34593
19.99938,31876
20.00872,33422
20.01807,34891
20.02740,36056
20.03673,38210
20.04608,37370
20.05542,38648
20.06475,36711
20.07410,37938
20.08343,39132
20.09278,38211
20.10212,36519
20.11145,33057
20.12080,31695
20.13013,30753
20.13947,32475
20.14882,37058
20.15815,43035
20.16748,47049
20.17683,44794
20.18617,38609
20.19550,34466
20.20485,33658
20.21418,34048
20.22352,34792
20.23287,35498
20.24220,34046
20.25153,32846
20.26088,32510
20.27022,32528
20.27957,32058
20.28890,36400
20.29823,36922
20.30758,36109
20.31692,33105
20.32625,33854
20.33560,30738
20.34493,31198
20.35427,30792
20.36362,31976
20.37295,34703
20.38228,33030
20.39163,32313
20.40097,29980
20.41030,30853
20.41965,31567
20.42898,32624
20.43832,31027
20.44767,33422
20.45700,32229
20.46635,35336
20.47568,39540
20.48502,38739
20.49437,36002
20.50370,32925
20.51303,31743
20.52238,32603
20.53172,30249
20.54105,32966
20.55040,34027
20.55973,41034
20.56907,65178
20.57842,134134
20.58775,184146
20.59708,152016
20.60643,88065
20.61577,52913
20.62512,41835
20.63445,43891
20.64378,45651
20.65313,49932
20.66247,48815
20.67180,44617
20.68115,39284
20.69048,37550
20.69982,40488
20.70917,38683
20.71850,40537
20.72783,40164
20.73718,39965
20.74652,37316
20.75585,37259
20.76520,36624
20.77453,33599
20.78387,37183
20.79322,39040
20.80255,43684
20.81190,44992
20.82123,39952
20.83057,37860
20.83992,35799
20.84925,35206
20.85858,32559
20.86793,30709
20.87727,30999
20.88660,32062
20.89595,32549
20.90528,36984
20.91462,37243
20.92397,36983
20.93330,34843
20.94263,33762
20.95198,32762
20.96132,31519
20.97065,31298
20.98000,32410
20.98933,31185
20.99868,31097
21.00802,32713
21.01735,32149
21.02670,33212
21.03603,30764
21.04537,33128
21.05472,31339
21.06405,34845
21.07338,36978
21.08273,33301
21.09207,32617
21.10140,34831
21.11075,34366
21.12008,36750
21.12942,35707
21.13877,37333
21.14810,37301
21.15743,33235
21.16678,35615
21.17612,39255
21.18547,50198
21.19480,58339
21.20413,52821
21.21348,43471
21.22282,39127
21.23215,36525
21.24150,36279
21.25083,33123
21.26017,34135
21.26952,36288
21.27885,42392
21.28818,47100
21.29753,50637
21.30687,45954
21.31620,39472
21.32555,36526
21.33488,35106
21.34422,34446
21.35357,35948
21.36290,36451
21.37225,35481
21.38158,35542
21.39092,34907
21.40027,36723
21.40960,37520
21.41893,39040
21.42828,40292
21.43762,38998
21.44695,38370
21.45630,36381
21.46563,36074
21.47497,35875
21.48432,37277
21.49365,39701
21.50298,40466
21.51233,38423
21.52167,36445
21.53100,36412
21.54035,36260
21.54968,37526
21.55903,41202
21.56837,50843
21.57770,62584
21.58705,68151
21.59638,57153
21.60572,43640
21.61507,39873
21.62440,39181
21.63373,40028
21.64308,41692
21.65242,37960
21.66175,37449
21.67110,40708
21.68043,46151
21.68977,53833
21.69912,53081
21.70845,48354
21.71780,45863
21.72713,46592
21.73647,44017
21.74582,42626
21.75515,37924
21.76448,34633
21.77383,32836
21.78317,34775
21.79250,36858
21.80185,37879
21.81118,43713
21.82052,50151
21.82987,52919
21.83920,46620
21.84853,43039
21.85788,37798
21.86722,38147
21.87655,38806
21.88590,42422
21.89523,45137
21.90458,45938
21.91392,45728
21.92325,41665
21.93260,38441
21.94193,36034
21.95127,37410
21.96062,40742
21.96995,44080
21.97928,49867
21.98863,55096
21.99797,57356
22.00730,55827
22.01665,49274
22.02598,44171
22.03532,48008
22.04467,49686
22.05400,56876
22.06333,56354
22.07268,50909
22.08202,50072
22.09137,47157
22.10070,44703
22.11003,40816
22.11938,40335
22.12872,38114
22.13805,38703
22.14740,41753
22.15673,47588
22.16607,60050
22.17542,67141
22.18475,65105
22.19408,54211
22.20343,47554
22.21277,43913
22.22210,46977
22.23145,52393
22.24078,55429
22.25012,53710
22.25947,50042
22.26880,49288
22.27815,59742
22.28748,74776
22.29682,77324
22.30617,72653
22.31550,60785
22.32483,49240
22.33418,45136
22.34352,45144
22.35285,51105
22.36220,62193
22.37153,66228
22.38087,69230
22.39022,64098
22.39955,59053
22.40888,51520
22.41823,47012
22.42757,50470
22.43692,53963
22.44625,57682
22.45558,53018
22.46493,47652
22.47427,46284
22.48360,46104
22.49295,44239
22.50228,42650
22.51162,42107
22.52097,41697
22.53030,43810
22.53963,41426
22.54898,41251
22.55832,44423
22.56765,48573
22.57700,56712
22.58633,56795
22.59567,54256
22.60502,57960
22.61435,58123
22.62370,60152
22.63303,59199
22.64237,52299
22.65172,47311
22.66105,42918
22.67038,43480
22.67973,46486
22.68907,53529
22.69840,60011
22.70775,58084
22.71708,53462
22.72642,52519
22.73577,58769
22.74510,62858
22.75443,61584
22.76378,58372
22.77312,54687
22.78245,51388
22.79180,54353
22.80113,62752
22.81048,70920
22.81982,67078
22.82915,58871
22.83850,55808
22.84783,54321
22.85717,51502
22.86652,49882
22.87585,48588
22.88518,52040
22.89453,52984
22.90387,51406
22.91320,52678
22.92255,56651
22.93188,59843
22.94122,57922
22.95057,52965
22.95990,51123
22.96923,48309
22.97858,44186
22.98792,41867
22.99727,40081
23.00660,41861
23.01593,40501
23.02528,41080
23.03462,42401
23.04395,45710
23.05330,49738
23.06263,48464
23.07197,48020
23.08132,44887
23.09065,44036
23.09998,42074
23.10933,40738
23.11867,40289
23.12800,40727
23.13735,41301
23.14668,41163
23.15602,39123
23.16537,41996
23.17470,42397
23.18405,42956
23.19338,40988
23.20272,40470
23.21207,38182
23.22140,38432
23.23073,38965
23.24008,39974
23.24942,41580
23.25875,47581
23.26810,46166
23.27743,46181
23.28677,43488
23.29612,41430
23.30545,40094
23.31478,39316
23.32413,42270
23.33347,46712
23.34282,52534
23.35215,52820
23.36148,47175
23.37083,43762
23.38017,42844
23.38950,41284
23.39885,41539
23.40818,41121
23.41752,40621
23.42687,37883
23.43620,39345
23.44553,41659
23.45488,41205
23.46422,41743
23.47355,40076
23.48290,39155
23.49223,37639
23.50157,37706
23.51092,38722
23.52025,38709
23.52960,39414
23.53893,36429
23.54827,37254
23.55762,37100
23.56695,36850
23.57628,40772
23.58563,39607
23.59497,40887
23.60430,40221
23.61365,38746
23.62298,36646
23.63232,35852
23.64167,34339
23.65100,35372
23.66033,34354
23.66968,35309
23.67902,36798
23.68835,38388
23.69770,41729
23.70703,43789
23.71638,45110
23.72572,45352
23.73505,45079
23.74440,44721
23.75373,41264
23.76307,39195
23.77242,36662
23.78175,37443
23.79108,35950
23.80043,36428
23.80977,36914
23.81910,35357
23.82845,36327
23.83778,35461
23.84712,35262
23.85647,34668
23.86580,34706
23.87513,35749
23.88448,36442
23.89382,38728
23.90317,39799
23.91250,39355
23.92183,39345
23.93118,37300
23.94052,37318
23.94985,38523
23.95920,37387
23.96853,36697
23.97787,36085
23.98722,35156
23.99655,35772
24.00588,37705
24.01523,36712
24.02457,38312
24.03390,35724
24.04325,33938
24.05258,33806
24.06193,33648
24.07127,33764
24.08060,34509
24.08995,34384
24.09928,37745
24.10862,34651
24.11797,34351
24.12730,35189
24.13663,35257
24.14598,35485
24.15532,35510
24.16465,36488
24.17400,36986
24.18333,34990
24.19267,34192
24.20202,32715
24.21135,34896
24.22068,34843
24.23003,35744
24.23937,34957
24.24872,36056
24.25805,35246
24.26738,38305
24.27673,36628
24.28607,36084
24.29540,37807
24.30475,36009
24.31408,37205
24.32342,41823
24.33277,41219
24.34210,40277
24.35143,39138
24.36078,34747
24.37012,36583
24.37945,38766
24.38880,37779
24.39813,39169
24.40747,38219
24.41682,37566
24.42615,35312
24.43550,35529
24.44483,36988
24.45417,35916
24.46352,35562
24.47285,34400
24.48218,36708
24.49153,35845
24.50087,38210
24.51020,37851
24.51955,39113
24.52888,37497
24.53822,35989
24.54757,37846
24.55690,38798
24.56623,37850
24.57558,37411
24.58492,36829
24.59425,37390
24.60360,36998
24.61293,38195
24.62228,41156
24.63162,40100
24.64095,39126
24.65030,37367
24.65963,36429
24.66897,41712
24.67832,40925
24.68765,40062
24.69698,39850
24.70633,38342
24.71567,36947
24.72500,38417
24.73435,37592
24.74368,37038
24.75302,38160
24.76237,37325
24.77170,36801
24.78103,37415
24.79038,36296
24.79972,35126
24.80907,36865
24.81840,35170
24.82773,36338
24.83708,37191
24.84642,36091
24.85575,36143
24.86510,35066
24.87443,39782
24.88377,38613
24.89312,38430
24.90245,37297
24.91178,38264
24.92113,37334
24.93047,37967
24.93980,38414
24.94915,38838
24.95848,36885
24.96782,39907
24.97717,38456
24.98650,37319
24.99585,36660
25.00518,36033
25.01452,36748
25.02387,36300
25.03320,37730
25.04253,35727
25.05188,37994
25.06122,36322
25.07055,36974
25.07990,37694
25.08923,37337
25.09857,37035
25.10792,35788
25.11725,37497
25.12658,39054
25.13593,39530
25.14527,41391
25.15462,41729
25.16395,41286
25.17328,42500
25.18263,40224
25.19197,39828
25.20130,39569
25.21065,39599
25.21998,39059
25.22932,40138
25.23867,39631
25.24800,41008
25.25733,39231
25.26668,40844
25.27602,42822
25.28535,43826
25.29470,45822
25.30403,47139
25.31337,50658
25.32272,64425
25.33205,89674
25.34140,97118
25.35073,89261
25.36007,71474
25.36942,68677
25.37875,63762
25.38808,65387
25.39743,62515
25.40677,66103
25.41610,68580
25.42545,69970
25.43478,70594
25.44412,73820
25.45347,79937
25.46280,83663
25.47213,88381
25.48148,97888
25.49082,106626
25.50015,111220
25.50950,115125
25.51883,120108
25.52818,125457
25.53752,131934
25.54685,130579
25.55620,128669
25.56553,125561
25.57487,121061
25.58422,115180
25.59355,114707
25.60288,113507
25.61223,107636
25.62157,104428
25.63090,100260
25.64025,99772
25.64958,100423
25.65892,100023
25.66827,101071
25.67760,97615
25.68693,96392
25.69628,91045
25.70562,87768
25.71497,86848
25.72430,82915
25.73363,84184
25.74298,81830
25.75232,83445
25.76165,82377
25.77100,80830
25.78033,78553
25.78967,79501
25.79902,82060
25.80835,82918
25.81768,83935
25.82703,81866
25.83637,81337
25.84570,77909
25.85505,75971
25.86438,72405
25.87373,73402
25.88307,70511
25.89240,71084
25.90175,70253
25.91108,69186
25.92042,68360
25.92977,69529
25.93910,72213
25.94843,70500
25.95778,76486
25.96712,76733
25.97645,73520
25.98580,70135
25.99513,69689
26.00447,68713
26.01382,68880
26.02315,68095
26.03248,70171
26.04183,71317
26.05117,72519
26.06052,71156
26.06985,70852
26.07918,70105
26.08853,66540
26.09787,67465
26.10720,67160
26.11655,68636
26.12588,66873
26.13522,68640
26.14457,75499
26.15390,76435
26.16323,77805
26.17258,73077
26.18192,74089
26.19125,66851
26.20060,64927
26.20993,60035
26.21927,59679
26.22862,58460
26.23795,58852
26.24730,58235
26.25663,55906
26.26597,56661
26.27532,59250
26.28465,59201
26.29398,59756
26.30333,58172
26.31267,59197
26.32200,60281
26.33135,61843
26.34068,60172
26.35002,60172
26.35937,61078
26.36870,60085
26.37803,58298
26.38738,55425
26.39672,55890
26.40605,53666
26.41540,53823
26.42473,52658
26.43408,53866
26.44342,56809
26.45275,58255
26.46210,59533
26.47143,59248
26.48077,59525
26.49012,58459
26.49945,58858
26.50878,57987
26.51813,59602
26.52747,63206
26.53680,65497
26.54615,67346
26.55548,64524
26.56482,64423
26.57417,60516
26.58350,61813
26.59283,62801
26.60218,59610
26.61152,61262
26.62087,59924
26.63020,58684
26.63953,56252
26.64888,56581
26.65822,57644
26.66755,58783
26.67690,58682
26.68623,57830
26.69557,54155
26.70492,52319
26.71425,52526
26.72358,53170
26.73293,53248
26.74227,55332
26.75160,54385
26.76095,55348
26.77028,56694
26.77963,56621
26.78897,56349
26.79830,56804
26.80765,54146
26.81698,54979
26.82632,55833
26.83567,56359
26.84500,56759
26.85433,59330
26.86368,57141
26.87302,56835
26.88235,55274
26.89170,52550
26.90103,52008
26.91037,53493
26.91972,53431
26.92905,52650
26.93838,51015
26.94773,54158
26.95707,52824
26.96642,53280
26.97575,54412
26.98508,54252
26.99443,54127
27.00377,55057
27.01310,55519
27.02245,58664
27.03178,54918
27.04112,54482
27.05047,56962
27.05980,57627
27.06913,55056
27.07848,57711
27.08782,57382
27.09715,55322
27.10650,52556
27.11583,52791
27.12517,53840
27.13452,59326
27.14385,57960
27.15320,55305
27.16253,57681
27.17187,54226
27.18122,54285
27.19055,53165
27.19988,52787
27.20923,54294
27.21857,55131
27.22790,53837
27.23725,53987
27.24658,57394
27.25592,63549
27.26527,66481
27.27460,66354
27.28393,57122
27.29328,54286
27.30262,52250
27.31195,54792
27.32130,54422
27.33063,52586
27.33998,52144
27.34932,52635
27.35865,51827
27.36800,54550
27.37733,53618
27.38667,51422
27.39602,50752
27.40535,51906
27.41468,52943
27.42403,52748
27.43337,53280
27.44270,55101
27.45205,52450
27.46138,53854
27.47072,54741
27.48007,50840
27.48940,52772
27.49875,50899
27.50808,54810
27.51742,56906
27.52677,55747
27.53610,55175
27.54543,54830
27.55478,53253
27.56412,52611
27.57345,52236
27.58280,52607
27.59213,52072
27.60147,53162
27.61082,52088
27.62015,53090
27.62948,54303
27.63883,53575
27.64817,53720
27.65750,53842
27.66685,60869
27.67618,72929
27.68553,80141
27.69487,69959
27.70420,66858
27.71355,62889
27.72288,59352
27.73222,60204
27.74157,57017
27.75090,55790
27.76023,55521
27.76958,56969
27.77892,55290
27.78825,58796
27.79760,57217
27.80693,58273
27.81627,57906
27.82562,54503
27.83495,55682
27.84428,55734
27.85363,55628
27.86297,54238
27.87232,56033
27.88165,56715
27.89098,55129
27.90033,58033
27.90967,55182
27.91900,61053
27.92835,66117
27.93768,71808
27.94702,66383
27.95637,63132
27.96570,59552
27.97503,62249
27.98438,58616
27.99372,61179
28.00305,59250
28.01240,57691
28.02173,56650
28.03107,56931
28.04042,54447
28.04975,58860
28.05910,55388
28.06843,59015
28.07777,60993
28.08712,57828
28.09645,60472
28.10578,57516
28.11513,61215
28.12447,61945
28.13380,64243
28.14315,64300
28.15248,61752
28.16182,60770
28.17117,62271
28.18050,61227
28.18983,60390
28.19918,59554
28.20852,59587
28.21785,59747
28.22720,59719
28.23653,60289
28.24588,60857
28.25522,61708
28.26455,60168
28.27390,59029
28.28323,59400
28.29257,57539
28.30192,57078
28.31125,55758
28.32058,56883
28.32993,58078
28.33927,56845
28.34860,58055
28.35795,57242
28.36728,58231
28.37662,58939
28.38597,55870
28.39530,57751
28.40463,58870
28.41398,58704
28.42332,57848
28.43267,59097
28.44200,60600
28.45133,57437
28.46068,59067
28.47002,60095
28.47935,61233
28.48870,58786
28.49803,58230
28.50737,61762
28.51672,61465
28.52605,60554
28.53538,58474
28.54473,60187
28.55407,63021
28.56340,60848
28.57275,60973
28.58208,63412
28.59143,66055
28.60077,69466
28.61010,67095
28.61945,65370
28.62878,67386
28.63812,65165
28.64747,67812
28.65680,68312
28.66613,79867
28.67548,106446
28.68482,140527
28.69415,152805
28.70350,123001
28.71283,97269
28.72217,80199
28.73152,73294
28.74085,72270
28.75018,70148
28.75953,71703
28.76887,65207
28.77822,69026
28.78755,66471
28.79688,66869
28.80623,67857
28.81557,66265
28.82490,64808
28.83425,67149
28.84358,65009
28.85292,66187
28.86227,65897
28.87160,68397
28.88093,67121
28.89028,62972
28.89962,66717
28.90895,65149
28.91830,66876
28.92763,67884
28.93697,64858
28.94632,66065
28.95565,66874
28.96500,69151
28.97433,70310
28.98367,70310
28.99302,69377
29.00235,70493
29.01168,68770
29.02103,67227
29.03037,69180
29.03970,69226
29.04905,70773
29.05838,71080
29.06772,66794
29.07707,66549
29.08640,69632
29.09573,69144
29.10508,68924
29.11442,66447
29.12375,69911
29.13310,67644
29.14243,68425
29.15178,66288
29.16112,67220
29.17045,66434
29.17980,68863
29.18913,70378
29.19847,72016
29.20782,74914
29.21715,76656
29.22648,75401
29.23583,73090
29.24517,70894
29.25450,73133
29.26385,72325
29.27318,68074
29.28252,68458
29.29187,69436
29.30120,71405
29.31055,69206
29.31988,72130
29.32922,72323
29.33857,70608
29.34790,68836
29.35723,71900
29.36658,71139
29.37592,72905
29.38525,71498
29.39460,71698
29.40393,70027
29.41327,71657
29.42262,71590
29.43195,69637
29.44128,71297
29.45063,71414
29.45997,78501
29.46930,82078
29.47865,82966
29.48798,82805
29.49733,77949
29.50667,75449
29.51600,73578
29.52535,71836
29.53468,74315
29.54402,71124
29.55337,67842
29.56270,70864
29.57203,68423
29.58138,67589
29.59072,69749
29.60005,70038
29.60940,68877
29.61873,68329
29.62807,69074
29.63742,67843
29.64675,70251
29.65608,69211
29.66543,69329
29.67477,67860
29.68412,69654
29.69345,70757
29.70278,68706
29.71213,71148
29.72147,68835
29.73080,74025
29.74015,75277
29.74948,70531
29.75882,75478
29.76817,72868
29.77750,68910
29.78683,71903
29.79618,70385
29.80552,72804
29.81485,70079
29.82420,66817
29.83353,68849
29.84287,66734
29.85222,67104
29.86155,68978
29.87090,68271
29.88023,67463
29.88957,67280
29.89892,68868
29.90825,71218
29.91758,74373
29.92693,77236
29.93627,82962
29.94560,78260
29.95495,81767
29.96428,92246
29.97362,114615
29.98297,142132
29.99230,165729
30.00163,166602
30.01098,142831
30.02032,122207
30.02965,111957
30.03900,106831
30.04833,105267
30.05768,105548
30.06702,101286
30.07635,101057
30.08570,99352
30.09503,97573
30.10437,96961
30.11372,95610
30.12305,94666
30.13238,93437
30.14173,92812
30.15107,94170
30.16040,90797
30.16975,93008
30.17908,91357
30.18842,90488
30.19777,90537
30.20710,89418
30.21643,88965
30.22578,85912
30.23512,87236
30.24447,88610
30.25380,83082
30.26313,84305
30.27248,89386
30.28182,90932
30.29115,87579
30.30050,89219
30.30983,87221
30.31917,86454
30.32852,85677
30.33785,88481
30.34718,94711
30.35653,104903
30.36587,122402
30.37520,125726
30.38455,122636
30.39388,117892
30.40323,109566
30.41257,109350
30.42190,107964
30.43125,104837
30.44058,99214
30.44992,97192
30.45927,93420
30.46860,95195
30.47793,95277
30.48728,91722
30.49662,88810
30.50595,89758
30.51530,87510
30.52463,88445
30.53397,88405
30.54332,88917
30.55265,86124
30.56198,87669
30.57133,86863
30.58067,86507
30.59002,86664
30.59935,90469
30.60868,91091
30.61803,94419
30.62737,95365
30.63670,101529
30.64605,105309
30.65538,110788
30.66472,112118
30.67407,108759
30.68340,106388
30.69273,102682
30.70208,99788
30.71142,98629
30.72075,98096
30.73010,94591
30.73943,90562
30.74877,92857
30.75812,91039
30.76745,92831
30.77680,90039
30.78613,92607
30.79547,93416
30.80482,89954
30.81415,89940
30.82348,91657
30.83283,91163
30.84217,91166
30.85150,91543
30.86085,89913
30.87018,92562
30.87952,87371
30.88887,93979
30.89820,95177
30.90753,94551
30.91688,95256
30.92622,93689
30.93555,97964
30.94490,97295
30.95423,96222
30.96358,98017
30.97292,99011
30.98225,97251
30.99160,99502
31.00093,98527
31.01027,93534
31.01962,92200
31.02895,96041
31.03828,90930
31.04763,91339
31.05697,91532
31.06630,90922
31.07565,87412
31.08498,91417
31.09432,89379
31.10367,91007
31.11300,90548
31.12235,88752
31.13168,91141
31.14102,89842
31.15037,90665
31.15970,94836
31.16903,91425
31.17838,92428
31.18772,90595
31.19705,88641
31.20640,88032
31.21573,87112
31.22507,87127
31.23442,86509
31.24375,82411
31.25308,84214
31.26243,85301
31.27177,84100
31.28110,84984
31.29045,83324
31.29978,84868
31.30913,83275
31.31847,83161
31.32780,84963
31.33715,85623
31.34648,85759
31.35582,88634
31.36517,85721
