D:\数据\20211216\ZS1E-TJ-000218.D Thu Dec 16 20:23:28 2021
Start of data points
0.09745,26742
0.10678,27062
0.11613,28155
0.12547,30112
0.13480,27629
0.14415,28845
0.15348,28849
0.16282,28121
0.17217,28811
0.18150,28965
0.19083,27335
0.20018,27873
0.20952,28968
0.21885,28182
0.22820,28099
0.23753,28724
0.24687,28759
0.25622,27304
0.26555,27566
0.27488,26919
0.28423,29445
0.29357,27969
0.30292,27713
0.31225,28210
0.32158,27107
0.33093,26443
0.34027,27055
0.34960,26396
0.35895,26835
0.36828,27647
0.37762,28364
0.38697,26757
0.39630,28038
0.40563,26847
0.41498,27993
0.42432,27328
0.43365,26896
0.44300,24380
0.45233,21852
0.46167,17812
0.47102,16495
0.48035,9636
0.48970,6684
0.49903,5495
0.50837,5592
0.51772,5353
0.52705,5872
0.53638,5538
0.54573,5926
0.55507,4926
0.56440,5451
0.57375,5827
0.58308,5484
0.59242,5119
0.60177,4752
0.61110,5265
0.62043,5313
0.62978,4865
0.63912,5455
0.64845,5055
0.65780,4993
0.66713,4415
0.67648,4665
0.68582,5645
0.69515,5626
0.70450,5542
0.71383,5584
0.72317,5346
0.73252,4648
0.74185,5131
0.75118,5439
0.76053,5378
0.76987,5055
0.77920,5040
0.78855,4642
0.79788,4555
0.80722,4842
0.81657,4722
0.82590,5145
0.83525,5172
0.84458,4730
0.85392,4639
0.86327,5014
0.87260,4694
0.88193,4634
0.89128,4691
0.90062,5020
0.90995,4926
0.91930,4486
0.92863,5101
0.93797,4540
0.94732,4893
0.95665,4834
0.96598,4471
0.97533,4611
0.98467,4840
0.99400,4390
1.00335,4724
1.01268,4404
1.02203,4352
1.03137,4734
1.04070,4561
1.05005,4411
1.05938,5117
1.06872,4736
1.07807,4328
1.08740,4484
1.09673,4411
1.10608,4157
1.11542,4108
1.12475,4895
1.13410,4497
1.14343,4657
1.15277,4589
1.16212,4360
1.17145,4408
1.18078,3952
1.19013,4741
1.19947,4841
1.20882,4452
1.21815,4483
1.22748,4853
1.23683,4738
1.24617,4674
1.25550,4030
1.26485,4651
1.27418,4482
1.28352,4206
1.29287,4551
1.30220,4635
1.31153,4850
1.32088,4043
1.33022,4255
1.33955,4039
1.34890,4901
1.35823,4523
1.36757,3910
1.37692,4554
1.38625,4208
1.39560,4598
1.40493,4523
1.41427,4135
1.42362,4098
1.43295,4744
1.44228,4040
1.45163,4501
1.46097,4352
1.47030,5144
1.47965,3924
1.48898,4437
1.49832,4404
1.50767,4653
1.51700,3871
1.52633,4377
1.53568,4647
1.54502,4289
1.55437,4374
1.56370,4228
1.57303,4241
1.58238,4477
1.59172,4989
1.60105,4795
1.61040,6970
1.61973,13339
1.62907,20993
1.63842,26028
1.64775,33739
1.65708,48269
1.66643,58546
1.67577,60596
1.68510,55477
1.69445,45475
1.70378,33908
1.71312,24466
1.72247,19824
1.73180,21760
1.74115,24782
1.75048,26335
1.75982,30606
1.76917,35464
1.77850,38014
1.78783,38187
1.79718,36795
1.80652,38289
1.81585,36852
1.82520,36756
1.83453,36113
1.84387,33437
1.85322,33705
1.86255,34898
1.87188,39041
1.88123,52550
1.89057,84890
1.89990,131776
1.90925,165660
1.91858,211268
1.92793,378201
1.93727,789109
1.94660,1355250
1.95595,1765595
1.96528,1739372
1.97462,1420118
1.98397,1037931
1.99330,762004
2.00263,625019
2.01198,581601
2.02132,564722
2.03065,489322
2.04000,369179
2.04933,256042
2.05867,185259
2.06802,137918
2.07735,110487
2.08668,95324
2.09603,81819
2.10537,76916
2.11472,75470
2.12405,75895
2.13338,77362
2.14273,86492
2.15207,96542
2.16140,97496
2.17075,94121
2.18008,106270
2.18942,197642
2.19877,337301
2.20810,292679
2.21743,178737
2.22678,127137
2.23612,150354
2.24545,292704
2.25480,1272318
2.26413,3419661
2.27347,3871226
2.28282,2881159
2.29215,1824474
2.30150,1246805
2.31083,2911933
2.32017,9547526
2.32952,1.291615E+07
2.33885,8817809
2.34818,4148928
2.35753,1767820
2.36687,816845
2.37620,498364
2.38555,400431
2.39488,320802
2.40422,242147
2.41357,194603
2.42290,170260
2.43223,164297
2.44158,150359
2.45092,128096
2.46027,116842
2.46960,141432
2.47893,187581
2.48828,188079
2.49762,146625
2.50695,114753
2.51630,97128
2.52563,86550
2.53497,80229
2.54432,79261
2.55365,84603
2.56298,103861
2.57233,385775
2.58167,501883
2.59100,410911
2.60035,305597
2.60968,254850
2.61902,268798
2.62837,307563
2.63770,273960
2.64705,206449
2.65638,162741
2.66572,151704
2.67507,136220
2.68440,111823
2.69373,91162
2.70308,76927
2.71242,82455
2.72175,124449
2.73110,184817
2.74043,211927
2.74977,235580
2.75912,264853
2.76845,296862
2.77778,353381
2.78713,444176
2.79647,430155
2.80580,270805
2.81515,203163
2.82448,187883
2.83383,169809
2.84317,146955
2.85250,155751
2.86185,213607
2.87118,259562
2.88052,285684
2.88987,229944
2.89920,171599
2.90853,129355
2.91788,109791
2.92722,101887
2.93655,88559
2.94590,78384
2.95523,70308
2.96457,68909
2.97392,65418
2.98325,68443
2.99258,68320
3.00193,75686
3.01127,81144
3.02062,82451
3.02995,78466
3.03928,101576
3.04863,172273
3.05797,194483
3.06730,200718
3.07665,200147
3.08598,166971
3.09532,119808
3.10467,88577
3.11400,68872
3.12333,61223
3.13268,63694
3.14202,69582
3.15135,75457
3.16070,84913
3.17003,97532
3.17938,92320
3.18872,82584
3.19805,74163
3.20740,66066
3.21673,64524
3.22607,64622
3.23542,60034
3.24475,59145
3.25408,60119
3.26343,60035
3.27277,58908
3.28210,55230
3.29145,57140
3.30078,58623
3.31012,61735
3.31947,61187
3.32880,58298
3.33813,56170
3.34748,54671
3.35682,56318
3.36617,54225
3.37550,53678
3.38483,52153
3.39418,49894
3.40352,52236
3.41285,59799
3.42220,70020
3.43153,75086
3.44087,72361
3.45022,78179
3.45955,87168
3.46888,81445
3.47823,72191
3.48757,67257
3.49690,62354
3.50625,60843
3.51558,58460
3.52492,56520
3.53427,53516
3.54360,58180
3.55295,97749
3.56228,237658
3.57162,444424
3.58097,492709
3.59030,347441
3.59963,214933
3.60898,276493
3.61832,276634
3.62765,226356
3.63700,186737
3.64633,158961
3.65567,129349
3.66502,108647
3.67435,101682
3.68368,99858
3.69303,90884
3.70237,76915
3.71170,75299
3.72105,95910
3.73038,117017
3.73973,114824
3.74907,88129
3.75840,72185
3.76775,62247
3.77708,57228
3.78642,55305
3.79577,52375
3.80510,63116
3.81443,102796
3.82378,154257
3.83312,158887
3.84245,121711
3.85180,87015
3.86113,74516
3.87047,65870
3.87982,64891
3.88915,67419
3.89848,79571
3.90783,89677
3.91717,84443
3.92652,78142
3.93585,77996
3.94518,86287
3.95453,117029
3.96387,138077
3.97320,116312
3.98255,89772
3.99188,68063
4.00122,86665
4.01057,88880
4.01990,87237
4.02923,100665
4.03858,210742
4.04792,478874
4.05725,630788
4.06660,495013
4.07593,294519
4.08527,210085
4.09462,198960
4.10395,177006
4.11330,141106
4.12263,106346
4.13197,79379
4.14132,67549
4.15065,64333
4.15998,61688
4.16933,60794
4.17867,57823
4.18800,55290
4.19735,55095
4.20668,52577
4.21602,55702
4.22537,56626
4.23470,58364
4.24403,57980
4.25338,54904
4.26272,53092
4.27207,54242
4.28140,58163
4.29073,63428
4.30008,67697
4.30942,68607
4.31875,79344
4.32810,104193
4.33743,115423
4.34677,99116
4.35612,76167
4.36545,63175
4.37478,54777
4.38413,52956
4.39347,63430
4.40280,65391
4.41215,64267
4.42148,55364
4.43082,51790
4.44017,50190
4.44950,48925
4.45885,51635
4.46818,63724
4.47752,94655
4.48687,124896
4.49620,120947
4.50553,89959
4.51488,63760
4.52422,54192
4.53355,50502
4.54290,50640
4.55223,55261
4.56157,56700
4.57092,53629
4.58025,54072
4.58958,52443
4.59893,50260
4.60827,52632
4.61760,49451
4.62695,49698
4.63628,49635
4.64563,52542
4.65497,57998
4.66430,60254
4.67365,62741
4.68298,67790
4.69232,81171
4.70167,126937
4.71100,156854
4.72033,134240
4.72968,88367
4.73902,61856
4.74835,55683
4.75770,57107
4.76703,62555
4.77637,63784
4.78572,60157
4.79505,57271
4.80438,56549
4.81373,56715
4.82307,56982
4.83242,57252
4.84175,58773
4.85108,62559
4.86043,59262
4.86977,66641
4.87910,84810
4.88845,94995
4.89778,85315
4.90712,66942
4.91647,56025
4.92580,49077
4.93513,52315
4.94448,56945
4.95382,59175
4.96315,58745
4.97250,52045
4.98183,48424
4.99118,47008
5.00052,54011
5.00985,71814
5.01920,75920
5.02853,77742
5.03787,78011
5.04722,74060
5.05655,66992
5.06588,60869
5.07523,60033
5.08457,61524
5.09390,64898
5.10325,64075
5.11258,58660
5.12192,54768
5.13127,61479
5.14060,62102
5.14993,61144
5.15928,66354
5.16862,69937
5.17797,64949
5.18730,64726
5.19663,74049
5.20598,85491
5.21532,81589
5.22465,68982
5.23400,61580
5.24333,63720
5.25267,63945
5.26202,63195
5.27135,81109
5.28068,188736
5.29003,424709
5.29937,621748
5.30870,540518
5.31805,295170
5.32738,132316
5.33672,77271
5.34607,64647
5.35540,60210
5.36475,59444
5.37408,61093
5.38342,67636
5.39277,74454
5.40210,74686
5.41143,81023
5.42078,72107
5.43012,60712
5.43945,53030
5.44880,51159
5.45813,50244
5.46747,51023
5.47682,49412
5.48615,51034
5.49548,50966
5.50483,53084
5.51417,53516
5.52350,54907
5.53285,61702
5.54218,63296
5.55153,60671
5.56087,51909
5.57020,51613
5.57955,55544
5.58888,60556
5.59822,61017
5.60757,56486
5.61690,51339
5.62623,47149
5.63558,45212
5.64492,46777
5.65425,50020
5.66360,53503
5.67293,64062
5.68227,75238
5.69162,70638
5.70095,80661
5.71028,78563
5.71963,81631
5.72897,81700
5.73832,80526
5.74765,82810
5.75698,94162
5.76633,116691
5.77567,132275
5.78500,125664
5.79435,97467
5.80368,82511
5.81302,73795
5.82237,69188
5.83170,74806
5.84103,84479
5.85038,86870
5.85972,75612
5.86905,69112
5.87840,65498
5.88773,63824
5.89708,63993
5.90642,64330
5.91575,72715
5.92510,93056
5.93443,115738
5.94377,112287
5.95312,113215
5.96245,113297
5.97178,98693
5.98113,78965
5.99047,65628
5.99980,61087
6.00915,59568
6.01848,58145
6.02782,58775
6.03717,56839
6.04650,52133
6.05583,46910
6.06518,42948
6.07452,41799
6.08387,37811
6.09320,33901
6.10253,31018
6.11188,31089
6.12122,35581
6.13055,47389
6.13990,64811
6.14923,71398
6.15857,58088
6.16792,39035
6.17725,31704
6.18658,29204
6.19593,28281
6.20527,28437
6.21460,26871
6.22395,28056
6.23328,34195
6.24262,40322
6.25197,40009
6.26130,37639
6.27065,38316
6.27998,47968
6.28932,60608
6.29867,55140
6.30800,41406
6.31733,31318
6.32668,25332
6.33602,23932
6.34535,23484
6.35470,24583
6.36403,25219
6.37337,23977
6.38272,29869
6.39205,50422
6.40138,156661
6.41073,577992
6.42007,1273320
6.42940,1415244
6.43875,873666
6.44808,333538
6.45743,104327
6.46677,48608
6.47610,37991
6.48545,33016
6.49478,27329
6.50412,27005
6.51347,27436
6.52280,30148
6.53213,28383
6.54148,25709
6.55082,25170
6.56015,23446
6.56950,23016
6.57883,23201
6.58817,25654
6.59752,28213
6.60685,28878
6.61620,29115
6.62553,30464
6.63487,32850
6.64422,32453
6.65355,32112
6.66288,33769
6.67223,34826
6.68157,33042
6.69090,30464
6.70025,31023
6.70958,39188
6.71892,41736
6.72827,39447
6.73760,33909
6.74693,29319
6.75628,28275
6.76562,24843
6.77495,24031
6.78430,24366
6.79363,30398
6.80298,38571
6.81232,43162
6.82165,36502
6.83100,30298
6.84033,27034
6.84967,28258
6.85902,27403
6.86835,28947
6.87768,27514
6.88703,25869
6.89637,24143
6.90570,24600
6.91505,25440
6.92438,28352
6.93372,25814
6.94307,24986
6.95240,25080
6.96173,25719
6.97108,26120
6.98042,25326
6.98977,27506
6.99910,26410
7.00843,25522
7.01778,24377
7.02712,22830
7.03645,22241
7.04580,19254
7.05513,19521
7.06447,16863
7.07382,18740
7.08315,19706
7.09248,20937
7.10183,25375
7.11117,29471
7.12050,33121
7.12985,36155
7.13918,32025
7.14852,28107
7.15787,23371
7.16720,21247
7.17655,22012
7.18588,22712
7.19522,22416
7.20457,23976
7.21390,25380
7.22323,27164
7.23258,44977
7.24192,86094
7.25125,127571
7.26060,117590
7.26993,73715
7.27927,43182
7.28862,34826
7.29795,31566
7.30728,27902
7.31663,25518
7.32597,21274
7.33530,21242
7.34465,21467
7.35398,20151
7.36333,21085
7.37267,20108
7.38200,22528
7.39135,31756
7.40068,68500
7.41002,147719
7.41937,211645
7.42870,205101
7.43803,135117
7.44738,74717
7.45672,39613
7.46605,26914
7.47540,24914
7.48473,28337
7.49407,30845
7.50342,33411
7.51275,28690
7.52210,24492
7.53143,20356
7.54077,20233
7.55012,19322
7.55945,20813
7.56878,23337
7.57813,25405
7.58747,25316
7.59680,27462
7.60615,26608
7.61548,27684
7.62482,29175
7.63417,29331
7.64350,28721
7.65283,26051
7.66218,24994
7.67152,22522
7.68085,25310
7.69020,26755
7.69953,26215
7.70888,27476
7.71822,31371
7.72755,28318
7.73690,27830
7.74623,29056
7.75557,32499
7.76492,35153
7.77425,35349
7.78358,31868
7.79293,31149
7.80227,30742
7.81160,28158
7.82095,25019
7.83028,23826
7.83962,25536
7.84897,28442
7.85830,37648
7.86763,63404
7.87698,93151
7.88632,98845
7.89567,74148
7.90500,54308
7.91433,64791
7.92368,103821
7.93302,120953
7.94235,94070
7.95170,70030
7.96103,83788
7.97037,86234
7.97972,68319
7.98905,51512
7.99838,38597
8.00773,33631
8.01707,30590
8.02640,31565
8.03575,35341
8.04508,45158
8.05442,53977
8.06377,49812
8.07310,39103
8.08245,31433
8.09178,41413
8.10112,66365
8.11047,77866
8.11980,66213
8.12913,45581
8.13848,34569
8.14782,30080
8.15715,29543
8.16650,30283
8.17583,28442
8.18517,29550
8.19452,28664
8.20385,31860
8.21318,31484
8.22253,30335
8.23187,29291
8.24122,29855
8.25055,33357
8.25988,34175
8.26923,31748
8.27857,29223
8.28790,26031
8.29725,25271
8.30658,25676
8.31592,25150
8.32527,26860
8.33460,26587
8.34393,26663
8.35328,27687
8.36262,25827
8.37195,24211
8.38130,25086
8.39063,30165
8.39997,36911
8.40932,41043
8.41865,40891
8.42800,40364
8.43733,41436
8.44667,37829
8.45602,34725
8.46535,31079
8.47468,27258
8.48403,28305
8.49337,28989
8.50270,27317
8.51205,25460
8.52138,25860
8.53072,25954
8.54007,26674
8.54940,48668
8.55873,56745
8.56808,60434
8.57742,56814
8.58675,50962
8.59610,46645
8.60543,43074
8.61478,40771
8.62412,38335
8.63345,34327
8.64280,34009
8.65213,33004
8.66147,33533
8.67082,34625
8.68015,33946
8.68948,31375
8.69883,28849
8.70817,27034
8.71750,27472
8.72685,27059
8.73618,25212
8.74552,27629
8.75487,26518
8.76420,31821
8.77353,31088
8.78288,31909
8.79222,36596
8.80157,60729
8.81090,122586
8.82023,161831
8.82958,141636
8.83892,81467
8.84825,41710
8.85760,31055
8.86693,28598
8.87627,29918
8.88562,30326
8.89495,28855
8.90428,30158
8.91363,30391
8.92297,27621
8.93230,27925
8.94165,27640
8.95098,26571
8.96032,25731
8.96967,26363
8.97900,27015
8.98835,27955
8.99768,28905
9.00702,33644
9.01637,38642
9.02570,35200
9.03503,33872
9.04438,30632
9.05372,29042
9.06305,28876
9.07240,30763
9.08173,31083
9.09107,34109
9.10042,36029
9.10975,33530
9.11908,33829
9.12843,40178
9.13777,53579
9.14710,64916
9.15645,58201
9.16578,44539
9.17513,31284
9.18447,28015
9.19380,28493
9.20315,27823
9.21248,33965
9.22182,61323
9.23117,100489
9.24050,111201
9.24983,87094
9.25918,60200
9.26852,48538
9.27785,42324
9.28720,39286
9.29653,34520
9.30587,36054
9.31522,35984
9.32455,35625
9.33390,39365
9.34323,41619
9.35257,42578
9.36192,58765
9.37125,123785
9.38058,204694
9.38993,220408
9.39927,164391
9.40860,103590
9.41795,69241
9.42728,58741
9.43662,54311
9.44597,49906
9.45530,40257
9.46463,35770
9.47398,30208
9.48332,30823
9.49265,28693
9.50200,30513
9.51133,33087
9.52068,30028
9.53002,31591
9.53935,36042
9.54870,42598
9.55803,46185
9.56737,54479
9.57672,55488
9.58605,47332
9.59538,38429
9.60473,37183
9.61407,38032
9.62340,36200
9.63275,36000
9.64208,36203
9.65142,42877
9.66077,52764
9.67010,63173
9.67943,53357
9.68878,40319
9.69812,31371
9.70747,32808
9.71680,56564
9.72613,197054
9.73548,678102
9.74482,1533519
9.75415,2070366
9.76350,1631260
9.77283,807041
9.78217,341837
9.79152,176421
9.80085,128403
9.81018,99596
9.81953,82343
9.82887,79074
9.83820,80797
9.84755,82874
9.85688,76579
9.86622,65400
9.87557,57757
9.88490,64719
9.89425,81783
9.90358,96061
9.91292,97272
9.92227,94449
9.93160,103436
9.94093,102395
9.95028,89342
9.95962,73252
9.96895,65070
9.97830,70018
9.98763,103648
9.99697,153311
10.00632,158525
10.01565,118060
10.02498,79457
10.03433,55633
10.04367,52496
10.05302,49209
10.06235,51788
10.07168,62576
10.08103,73108
10.09037,68836
10.09970,61499
10.10905,60755
10.11838,118038
10.12772,310016
10.13707,522792
10.14640,513992
10.15573,525930
10.16508,1065339
10.17442,1654772
10.18375,1333809
10.19310,531421
10.20243,139609
10.21177,56174
10.22112,46922
10.23045,46512
10.23980,54664
10.24913,74341
10.25847,79133
10.26782,65270
10.27715,50358
10.28648,44001
10.29583,44652
10.30517,45871
10.31450,45755
10.32385,44429
10.33318,42818
10.34252,38129
10.35187,37937
10.36120,37705
10.37053,39867
10.37988,39435
10.38922,35386
10.39855,35575
10.40790,35277
10.41723,42583
10.42658,60165
10.43592,72151
10.44525,65980
10.45460,51990
10.46393,46593
10.47327,50715
10.48262,50254
10.49195,44991
10.50128,38830
10.51063,35734
10.51997,34650
10.52930,34598
10.53865,34298
10.54798,38374
10.55732,41397
10.56667,46702
10.57600,42122
10.58533,37391
10.59468,34961
10.60402,34022
10.61337,33781
10.62270,33936
10.63203,38080
10.64138,45560
10.65072,43158
10.66005,38877
10.66940,37237
10.67873,40921
10.68807,43015
10.69742,43832
10.70675,45851
10.71608,54129
10.72543,71943
10.73477,71111
10.74410,55440
10.75345,56545
10.76278,95227
10.77212,132254
10.78147,135061
10.79080,181962
10.80015,473018
10.80948,947918
10.81882,1026774
10.82817,616062
10.83750,240629
10.84683,84075
10.85618,49840
10.86552,46750
10.87485,61609
10.88420,94834
10.89353,104627
10.90287,87078
10.91222,60621
10.92155,45502
10.93088,41914
10.94023,42328
10.94957,39609
10.95890,39316
10.96825,41833
10.97758,40732
10.98693,35959
10.99627,33924
11.00560,32299
11.01495,34432
11.02428,34352
11.03362,33221
11.04297,35999
11.05230,35565
11.06163,34546
11.07098,32955
11.08032,35039
11.08965,35010
11.09900,37632
11.10833,45581
11.11767,61842
11.12702,65241
11.13635,55040
11.14570,48453
11.15503,44868
11.16437,41376
11.17372,37936
11.18305,37090
11.19238,37354
11.20173,33393
11.21107,32030
11.22040,32842
11.22975,34901
11.23908,35740
11.24842,33602
11.25777,36882
11.26710,42775
11.27643,44820
11.28578,41848
11.29512,36941
11.30445,34066
11.31380,33073
11.32313,34113
11.33248,38710
11.34182,50519
11.35115,66472
11.36050,73923
11.36983,76367
11.37917,63474
11.38852,48927
11.39785,47541
11.40718,66293
11.41653,102792
11.42587,119820
11.43520,95044
11.44455,59264
11.45388,40869
11.46322,41456
11.47257,47407
11.48190,51672
11.49123,48230
11.50058,36413
11.50992,34202
11.51927,31325
11.52860,31054
11.53793,33185
11.54728,34239
11.55662,38110
11.56595,58947
11.57530,102611
11.58463,147828
11.59397,145665
11.60332,107283
11.61265,78419
11.62198,59920
11.63133,54312
11.64067,45926
11.65000,48001
11.65935,49551
11.66868,48976
11.67802,48404
11.68737,42978
11.69670,40091
11.70605,39138
11.71538,37912
11.72472,38815
11.73407,37562
11.74340,36785
11.75273,36196
11.76208,35460
11.77142,38350
11.78075,40945
11.79010,47903
11.79943,50624
11.80877,48211
11.81812,42145
11.82745,44901
11.83678,45832
11.84613,44580
11.85547,41760
11.86482,39167
11.87415,39423
11.88348,42098
11.89283,43317
11.90217,39662
11.91150,36893
11.92085,36787
11.93018,36618
11.93952,45070
11.94887,58465
11.95820,71095
11.96753,60641
11.97688,46815
11.98622,36580
11.99555,37571
12.00490,42778
12.01423,62685
12.02357,86085
12.03292,80689
12.04225,64153
12.05160,54698
12.06093,46899
12.07027,38974
12.07962,33791
12.08895,33383
12.09828,34404
12.10763,35760
12.11697,37856
12.12630,37143
12.13565,38923
12.14498,37978
12.15432,38779
12.16367,41982
12.17300,63317
12.18233,92601
12.19168,101366
12.20102,79421
12.21035,59482
12.21970,49218
12.22903,48236
12.23838,50958
12.24772,49262
12.25705,41957
12.26640,43584
12.27573,64295
12.28507,103584
12.29442,112584
12.30375,82073
12.31308,52829
12.32243,41331
12.33177,42446
12.34110,43720
12.35045,48175
12.35978,44372
12.36912,41382
12.37847,44301
12.38780,49664
12.39713,58536
12.40648,61141
12.41582,52741
12.42517,44228
12.43450,39646
12.44383,37116
12.45318,37518
12.46252,36025
12.47185,39059
12.48120,45019
12.49053,45023
12.49987,46243
12.50922,46169
12.51855,45056
12.52788,45521
12.53723,48841
12.54657,49254
12.55590,50965
12.56525,53920
12.57458,55494
12.58392,50638
12.59327,43273
12.60260,39473
12.61195,37811
12.62128,39126
12.63062,49768
12.63997,65892
12.64930,86735
12.65863,85643
12.66798,75248
12.67732,61707
12.68665,49332
12.69600,40252
12.70533,37139
12.71467,34363
12.72402,36378
12.73335,38335
12.74268,39821
12.75203,40254
12.76137,44587
12.77072,44694
12.78005,39147
12.78938,36867
12.79873,37898
12.80807,38460
12.81740,38732
12.82675,39353
12.83608,37677
12.84542,36720
12.85477,34391
12.86410,33575
12.87343,32488
12.88278,32779
12.89212,33814
12.90145,36117
12.91080,37248
12.92013,36804
12.92947,33619
12.93882,34698
12.94815,36621
12.95750,37146
12.96683,38774
12.97617,38152
12.98552,34247
12.99485,34644
13.00418,34946
13.01353,35385
13.02287,42095
13.03220,49845
13.04155,54961
13.05088,51503
13.06022,47590
13.06957,46186
13.07890,48310
13.08823,50196
13.09758,45057
13.10692,43389
13.11625,39884
13.12560,40276
13.13493,43850
13.14428,60920
13.15362,126361
13.16295,291091
13.17230,445778
13.18163,408830
13.19097,245044
13.20032,150448
13.20965,180011
13.21898,268170
13.22833,259447
13.23767,162733
13.24700,108076
13.25635,101187
13.26568,97247
13.27502,80346
13.28437,78917
13.29370,80028
13.30303,73973
13.31238,62298
13.32172,61570
13.33107,62547
13.34040,59468
13.34973,57745
13.35908,53724
13.36842,50890
13.37775,48373
13.38710,50122
13.39643,62331
13.40577,68298
13.41512,60514
13.42445,50183
13.43378,47584
13.44313,52015
13.45247,54847
13.46180,52463
13.47115,48257
13.48048,49499
13.48983,49627
13.49917,47975
13.50850,45125
13.51785,57677
13.52718,92474
13.53652,121284
13.54587,109417
13.55520,77496
13.56453,56565
13.57388,46096
13.58322,40311
13.59255,38011
13.60190,36542
13.61123,35679
13.62057,36349
13.62992,35883
13.63925,41716
13.64858,51012
13.65793,55344
13.66727,53182
13.67662,44772
13.68595,39520
13.69528,35087
13.70463,35962
13.71397,34502
13.72330,34786
13.73265,33125
13.74198,34694
13.75132,35713
13.76067,37276
13.77000,37497
13.77933,36244
13.78868,36503
13.79802,38029
13.80735,44135
13.81670,48964
13.82603,47907
13.83537,42032
13.84472,40189
13.85405,40469
13.86340,45586
13.87273,49592
13.88207,55354
13.89142,62169
13.90075,83433
13.91008,126646
13.91943,211006
13.92877,258701
13.93810,190087
13.94745,103484
13.95678,63592
13.96612,57391
13.97547,53093
13.98480,48742
13.99413,48288
14.00348,47892
14.01282,47078
14.02215,44071
14.03150,41096
14.04083,52260
14.05018,180468
14.05952,961748
14.06885,3207676
14.07820,5882027
14.08753,5271363
14.09687,2298612
14.10622,498320
14.11555,101060
14.12488,58107
14.13423,51235
14.14357,49016
14.15290,52745
14.16225,54800
14.17158,56757
14.18092,56663
14.19027,58944
14.19960,73184
14.20893,78698
14.21828,62608
14.22762,43801
14.23697,39432
14.24630,36202
14.25563,36836
14.26498,37914
14.27432,38823
14.28365,39158
14.29300,38746
14.30233,35128
14.31167,37959
14.32102,45131
14.33035,58406
14.33968,65215
14.34903,60474
14.35837,51931
14.36770,43123
14.37705,39052
14.38638,36277
14.39572,36986
14.40507,36427
14.41440,36666
14.42375,35068
14.43308,34796
14.44242,34476
14.45177,43543
14.46110,57711
14.47043,74012
14.47978,71557
14.48912,61453
14.49845,51249
14.50780,43979
14.51713,38364
14.52647,35480
14.53582,34037
14.54515,34796
14.55448,40981
14.56383,42136
14.57317,44295
14.58252,43989
14.59185,40470
14.60118,37348
14.61053,36870
14.61987,36929
14.62920,39916
14.63855,46547
14.64788,65541
14.65722,89149
14.66657,97460
14.67590,87070
14.68523,66805
14.69458,54343
14.70392,49040
14.71325,44350
14.72260,43988
14.73193,42090
14.74127,42180
14.75062,43558
14.75995,41824
14.76930,44046
14.77863,47235
14.78797,49365
14.79732,48484
14.80665,44987
14.81598,41690
14.82533,41928
14.83467,41933
14.84400,38600
14.85335,38730
14.86268,40402
14.87202,48129
14.88137,58844
14.89070,54105
14.90003,47084
14.90938,41723
14.91872,40829
14.92805,41917
14.93740,42131
14.94673,44376
14.95608,41964
14.96542,45252
14.97475,48936
14.98410,47623
14.99343,45078
15.00277,43567
15.01212,47073
15.02145,52997
15.03078,47855
15.04013,44779
15.04947,47575
15.05880,51816
15.06815,47665
15.07748,47831
15.08682,46080
15.09617,42499
15.10550,37298
15.11483,38752
15.12418,43567
15.13352,51946
15.14287,57068
15.15220,52647
15.16153,43764
15.17088,41074
15.18022,41168
15.18955,40945
15.19890,49703
15.20823,62253
15.21757,85578
15.22692,99297
15.23625,91791
15.24558,66788
15.25493,53354
15.26427,45339
15.27360,41168
15.28295,41331
15.29228,42339
15.30163,41046
15.31097,37534
15.32030,38524
15.32965,44797
15.33898,50904
15.34832,54633
15.35767,48168
15.36700,51754
15.37633,58120
15.38568,58961
15.39502,50781
15.40435,41529
15.41370,38284
15.42303,40063
15.43237,41226
15.44172,42708
15.45105,41074
15.46038,39650
15.46973,38632
15.47907,38680
15.48842,39496
15.49775,40279
15.50708,44830
15.51643,58516
15.52577,73086
15.53510,74757
15.54445,59255
15.55378,47177
15.56312,38200
15.57247,35839
15.58180,36588
15.59113,36179
15.60048,36116
15.60982,40129
15.61915,39401
15.62850,43172
15.63783,49063
15.64717,55855
15.65652,59162
15.66585,60697
15.67520,62135
15.68453,59066
15.69387,62343
15.70322,69272
15.71255,74994
15.72188,71174
15.73123,59285
15.74057,50487
15.74990,52895
15.75925,57977
15.76858,61425
15.77792,60372
15.78727,52331
15.79660,50781
15.80593,63569
15.81528,130330
15.82462,305641
15.83395,520422
15.84330,599697
15.85263,493621
15.86198,292395
15.87132,143691
15.88065,88421
15.89000,81809
15.89933,86246
15.90867,93020
15.91802,81387
15.92735,66416
15.93668,57413
15.94603,49975
15.95537,46628
15.96470,46440
15.97405,52710
15.98338,62960
15.99272,76574
16.00207,88584
16.01140,76911
16.02073,60608
16.03008,50447
16.03942,47646
16.04877,49446
16.05810,51694
16.06743,51980
16.07678,51289
16.08612,48992
16.09545,49470
16.10480,50024
16.11413,55324
16.12347,62369
16.13282,62875
16.14215,58715
16.15148,54247
16.16083,52518
16.17017,49225
16.17950,47702
16.18885,49301
16.19818,51654
16.20753,58814
16.21687,66434
16.22620,66220
16.23555,68674
16.24488,67060
16.25422,65231
16.26357,60943
16.27290,58842
16.28223,70807
16.29158,111139
16.30092,181300
16.31025,207803
16.31960,158909
16.32893,91763
16.33827,58604
16.34762,47262
16.35695,44522
16.36628,40493
16.37563,40339
16.38497,40880
16.39432,43066
16.40365,43703
16.41298,45050
16.42233,47212
16.43167,47402
16.44100,44673
16.45035,46940
16.45968,53804
16.46902,55982
16.47837,52407
16.48770,50077
16.49703,45803
16.50638,46788
16.51572,51518
16.52505,52139
16.53440,53267
16.54373,48206
16.55307,50017
16.56242,46666
16.57175,45527
16.58110,45493
16.59043,46675
16.59977,45757
16.60912,45255
16.61845,46557
16.62778,52122
16.63713,57129
16.64647,59981
16.65580,54584
16.66515,48784
16.67448,46060
16.68382,46128
16.69317,53832
16.70250,61679
16.71183,63581
16.72118,54244
16.73052,47143
16.73985,52041
16.74920,78957
16.75853,114551
16.76788,112062
16.77722,76651
16.78655,52805
16.79590,48032
16.80523,46404
16.81457,50132
16.82392,55169
16.83325,61601
16.84258,67534
16.85193,70237
16.86127,69253
16.87060,63580
16.87995,57050
16.88928,53761
16.89862,52178
16.90797,54602
16.91730,66231
16.92665,71919
16.93598,66247
16.94532,60065
16.95467,61560
16.96400,66397
16.97333,63012
16.98268,61945
16.99202,54538
17.00135,49583
17.01070,46436
17.02003,48141
17.02937,64614
17.03872,91503
17.04805,101302
17.05738,79687
17.06673,58642
17.07607,51292
17.08540,47779
17.09475,48049
17.10408,46642
17.11343,43958
17.12277,42948
17.13210,44559
17.14145,50339
17.15078,49651
17.16012,46888
17.16947,42974
17.17880,48110
17.18813,59332
17.19748,65328
17.20682,59283
17.21615,51964
17.22550,45090
17.23483,43423
17.24417,44241
17.25352,43624
17.26285,46108
17.27218,48214
17.28153,55525
17.29087,62152
17.30022,67997
17.30955,68596
17.31888,68032
17.32823,65637
17.33757,59368
17.34690,50482
17.35625,45211
17.36558,46650
17.37492,57422
17.38427,101959
17.39360,158182
17.40293,157164
17.41228,106416
17.42162,73948
17.43095,58867
17.44030,52175
17.44963,50460
17.45897,49698
17.46832,49903
17.47765,49799
17.48700,60963
17.49633,176255
17.50567,713227
17.51502,1825735
17.52435,2462551
17.53368,1652515
17.54303,589238
17.55237,144026
17.56170,65796
17.57105,59184
17.58038,63114
17.58972,65839
17.59907,61931
17.60840,57320
17.61773,49365
17.62708,46163
17.63642,47523
17.64575,46383
17.65510,49515
17.66443,53010
17.67378,60000
17.68312,64832
17.69245,68416
17.70180,68991
17.71113,65624
17.72047,61781
17.72982,54922
17.73915,52985
17.74848,51935
17.75783,53697
17.76717,62551
17.77650,63897
17.78585,60785
17.79518,61646
17.80452,59751
17.81387,54919
17.82320,49346
17.83253,48695
17.84188,46662
17.85122,50154
17.86057,59354
17.86990,69510
17.87923,72362
17.88858,61979
17.89792,56233
17.90725,51863
17.91660,45647
17.92593,46339
17.93527,44562
17.94462,50437
17.95395,49023
17.96328,44655
17.97263,47000
17.98197,47628
17.99130,47347
18.00065,46080
18.00998,45177
18.01933,44728
18.02867,45668
18.03800,46110
18.04735,56220
18.05668,73552
18.06602,85585
18.07537,80050
18.08470,58873
18.09403,49690
18.10338,46690
18.11272,53352
18.12205,58230
18.13140,55728
18.14073,52964
18.15007,53150
18.15942,52415
18.16875,52869
18.17808,53143
18.18743,50552
18.19677,49878
18.20612,47438
18.21545,46777
18.22478,51551
18.23413,50116
18.24347,47775
18.25280,45577
18.26215,43039
18.27148,43843
18.28082,50010
18.29017,56900
18.29950,61918
18.30883,62544
18.31818,64488
18.32752,60707
18.33685,60882
18.34620,61677
18.35553,68335
18.36487,72755
18.37422,74235
18.38355,71439
18.39290,68954
18.40223,65347
18.41157,61374
18.42092,56740
18.43025,51858
18.43958,51793
18.44893,60365
18.45827,60593
18.46760,57282
18.47695,52388
18.48628,51784
18.49562,61446
18.50497,74233
18.51430,88729
18.52363,92026
18.53298,77516
18.54232,61465
18.55165,55408
18.56100,57318
18.57033,58804
18.57968,54111
18.58902,51926
18.59835,50369
18.60770,54334
18.61703,59803
18.62637,61133
18.63572,60501
18.64505,60051
18.65438,58808
18.66373,55340
18.67307,53466
18.68240,55752
18.69175,54084
18.70108,56537
18.71042,60989
18.71977,61418
18.72910,63951
18.73845,60898
18.74778,56514
18.75712,55811
18.76647,49485
18.77580,46109
18.78513,45720
18.79448,44775
18.80382,46479
18.81315,46901
18.82250,46846
18.83183,46137
18.84117,45347
18.85052,45924
18.85985,44252
18.86918,42523
18.87853,42266
18.88787,44350
18.89720,42239
18.90655,52068
18.91588,60073
18.92523,66708
18.93457,62408
18.94390,58011
18.95325,60257
18.96258,65650
18.97192,72603
18.98127,72638
18.99060,65454
18.99993,54044
19.00928,52263
19.01862,50391
19.02795,49238
19.03730,52074
19.04663,61462
19.05597,81398
19.06532,98272
19.07465,105948
19.08398,128664
19.09333,148156
19.10267,137501
19.11202,96065
19.12135,68007
19.13068,53843
19.14003,45795
19.14937,44197
19.15870,45481
19.16805,42345
19.17738,41500
19.18672,42212
19.19607,46302
19.20540,51863
19.21473,55644
19.22408,55050
19.23342,54675
19.24275,52190
19.25210,49250
19.26143,46452
19.27077,45569
19.28012,51555
19.28945,55811
19.29880,60454
19.30813,68434
19.31747,84507
19.32682,91266
19.33615,80443
19.34548,63155
19.35483,57355
19.36417,47517
19.37350,46250
19.38285,44533
19.39218,44121
19.40152,45726
19.41087,48596
19.42020,49413
19.42953,48434
19.43888,45294
19.44822,42268
19.45755,44252
19.46690,44708
19.47623,49039
19.48558,51224
19.49492,53127
19.50425,52295
19.51360,47882
19.52293,46029
19.53227,46716
19.54162,45860
19.55095,46755
19.56028,43098
19.56963,44303
19.57897,49505
19.58830,52759
19.59765,53405
19.60698,50668
19.61632,50815
19.62567,52607
19.63500,52396
19.64435,57288
19.65368,56531
19.66302,51345
19.67237,47337
19.68170,47617
19.69103,49974
19.70038,59494
19.70972,60811
19.71905,63712
19.72840,70677
19.73773,77054
19.74707,76133
19.75642,67325
19.76575,57052
19.77508,55545
19.78443,56661
19.79377,54773
19.80310,54172
19.81245,49057
19.82178,46861
19.83113,48572
19.84047,48276
19.84980,44622
19.85915,45134
19.86848,51810
19.87782,65677
19.88717,77445
19.89650,72515
19.90583,57031
19.91518,50872
19.92452,48501
19.93385,49182
19.94320,48572
19.95253,48521
19.96187,50538
19.97122,49529
19.98055,47671
19.98988,44789
19.99923,44272
20.00857,42379
20.01792,45098
20.02725,45653
20.03658,49879
20.04593,50905
20.05527,51791
20.06460,52072
20.07395,49728
20.08328,53571
20.09262,51420
20.10197,48228
20.11130,46765
20.12063,44910
20.12998,41497
20.13932,43021
20.14865,48283
20.15800,57549
20.16733,60586
20.17667,56495
20.18602,48965
20.19535,46157
20.20470,43630
20.21403,46165
20.22337,42987
20.23272,44660
20.24205,44843
20.25138,42943
20.26073,44137
20.27007,41932
20.27940,43553
20.28875,44444
20.29808,42939
20.30742,41153
20.31677,40730
20.32610,38922
20.33543,40764
20.34478,38411
20.35412,39976
20.36347,41681
20.37280,42547
20.38213,43402
20.39148,40163
20.40082,40430
20.41015,40826
20.41950,39523
20.42883,40144
20.43817,43008
20.44752,42981
20.45685,40898
20.46618,45302
20.47553,52093
20.48487,56381
20.49420,49502
20.50355,44228
20.51288,41500
20.52222,39246
20.53157,41774
20.54090,44672
20.55025,44587
20.55958,52789
20.56892,91103
20.57827,192398
20.58760,278490
20.59693,225222
20.60628,129192
20.61562,72882
20.62495,54575
20.63430,51316
20.64363,48632
20.65297,50738
20.66232,48937
20.67165,47970
20.68098,44463
20.69033,46958
20.69967,46149
20.70900,46672
20.71835,48742
20.72768,47887
20.73703,46191
20.74637,45498
20.75570,46813
20.76505,45549
20.77438,41849
20.78372,43563
20.79307,44218
20.80240,47370
20.81173,49220
20.82108,49910
20.83042,46092
20.83975,44107
20.84910,41949
20.85843,41729
20.86777,41028
20.87712,39882
20.88645,39611
20.89578,42812
20.90513,44122
20.91447,46462
20.92382,44281
20.93315,42065
20.94248,41316
20.95183,39896
20.96117,39100
20.97050,39035
20.97985,37653
20.98918,37701
20.99852,39036
21.00787,41754
21.01720,41257
21.02653,40984
21.03588,39659
21.04522,40559
21.05455,41867
21.06390,41677
21.07323,41436
21.08257,39885
21.09192,41641
21.10125,43905
21.11060,39869
21.11993,41747
21.12927,41151
21.13862,41659
21.14795,41318
21.15728,41439
21.16663,40229
21.17597,49010
21.18530,61985
21.19465,67430
21.20398,63710
21.21332,52648
21.22267,49227
21.23200,44721
21.24133,45395
21.25068,42023
21.26002,42114
21.26935,45213
21.27870,47723
21.28803,51083
21.29738,53486
21.30672,52465
21.31605,47507
21.32540,46148
21.33473,47569
21.34407,45818
21.35342,45257
21.36275,46675
21.37208,44325
21.38143,45073
21.39077,43557
21.40010,46983
21.40945,47544
21.41878,49449
21.42812,48611
21.43747,48068
21.44680,47456
21.45615,46954
21.46548,45731
21.47482,44755
21.48417,48772
21.49350,50152
21.50283,49659
21.51218,46992
21.52152,49913
21.53085,44560
21.54020,44478
21.54953,47304
21.55887,50655
21.56822,59044
21.57755,73809
21.58688,73257
21.59623,65469
21.60557,52812
21.61490,49802
21.62425,46115
21.63358,50695
21.64293,49456
21.65227,49771
21.66160,43900
21.67095,48692
21.68028,55096
21.68962,60041
21.69897,58150
21.70830,56022
21.71763,54587
21.72698,56991
21.73632,53876
21.74565,51408
21.75500,47221
21.76433,44399
21.77367,45292
21.78302,43820
21.79235,47609
21.80168,48957
21.81103,55515
21.82037,55074
21.82972,59509
21.83905,53713
21.84838,52234
21.85773,46991
21.86707,47733
21.87640,49295
21.88575,56049
21.89508,57141
21.90442,56756
21.91377,52906
21.92310,49863
21.93243,47671
21.94178,44668
21.95112,45154
21.96045,47144
21.96980,54419
21.97913,57979
21.98847,63016
21.99782,68575
22.00715,66862
22.01650,57872
22.02583,51844
22.03517,50680
22.04452,54480
22.05385,61191
22.06318,59150
22.07253,55968
22.08187,55621
22.09120,53312
22.10055,50233
22.10988,48598
22.11922,47426
22.12857,43645
22.13790,44987
22.14723,46432
22.15658,51480
22.16592,62839
22.17527,69692
22.18460,67742
22.19393,60890
22.20328,52429
22.21262,51554
22.22195,53708
22.23130,56080
22.24063,60484
22.24997,56345
22.25932,54229
22.26865,57434
22.27798,66214
22.28733,74425
22.29667,79839
22.30600,74638
22.31535,66969
22.32468,57458
22.33402,53313
22.34337,53363
22.35270,59279
22.36205,66082
22.37138,72674
22.38072,74970
22.39007,72389
22.39940,68256
22.40873,59379
22.41808,57049
22.42742,58646
22.43675,62108
22.44610,64892
22.45543,61238
22.46477,61100
22.47412,59183
22.48345,56700
22.49278,52855
22.50213,53817
22.51147,55646
22.52080,52557
22.53015,54253
22.53948,53357
22.54883,54371
22.55817,54127
22.56750,60516
22.57685,64961
22.58618,68531
22.59552,67471
22.60487,70765
22.61420,71171
22.62353,71407
22.63288,67836
22.64222,66692
22.65155,60898
22.66090,55657
22.67023,57302
22.67957,60766
22.68892,64403
22.69825,68698
22.70758,68267
22.71693,63486
22.72627,59447
22.73562,64666
22.74495,67747
22.75428,70529
22.76363,70056
22.77297,65900
22.78230,61845
22.79165,59537
22.80098,64488
22.81032,73323
22.81967,70221
22.82900,63566
22.83833,60479
22.84768,58387
22.85702,56307
22.86635,55675
22.87570,53747
22.88503,59149
22.89437,56836
22.90372,55723
22.91305,55411
22.92240,60035
22.93173,60545
22.94107,60944
22.95042,53703
22.95975,52467
22.96908,51218
22.97843,48957
22.98777,48135
22.99710,46985
23.00645,46992
23.01578,43015
23.02512,42981
23.03447,45469
23.04380,45695
23.05313,45470
23.06248,45078
23.07182,45130
23.08117,45059
23.09050,44943
23.09983,41834
23.10918,42853
23.11852,43897
23.12785,42055
23.13720,43095
23.14653,44504
23.15587,43103
23.16522,44909
23.17455,46015
23.18388,47091
23.19323,46889
23.20257,44753
23.21190,43367
23.22125,43913
23.23058,44336
23.23992,46491
23.24927,50339
23.25860,55768
23.26795,58097
23.27728,55380
23.28662,49838
23.29597,46586
23.30530,45692
23.31463,44525
23.32398,49209
23.33332,54436
23.34265,63298
23.35200,61453
23.36133,55286
23.37067,48460
23.38002,46630
23.38935,45960
23.39868,46047
23.40803,43454
23.41737,43284
23.42670,44070
23.43605,41825
23.44538,44362
23.45473,43366
23.46407,45260
23.47340,46010
23.48275,41731
23.49208,43471
23.50142,45480
23.51077,45452
23.52010,45209
23.52943,43211
23.53878,46471
23.54812,43361
23.55745,41365
23.56680,41269
23.57613,43325
23.58547,45714
23.59482,46499
23.60415,44086
23.61348,43691
23.62283,42954
23.63217,40647
23.64152,40135
23.65085,41694
23.66018,42091
23.66953,40262
23.67887,41135
23.68820,43830
23.69755,46333
23.70688,46921
23.71622,47877
23.72557,48322
23.73490,48997
23.74423,50753
23.75358,48406
23.76292,44662
23.77225,40361
23.78160,42135
23.79093,38607
23.80028,40639
23.80962,42725
23.81895,40721
23.82830,40677
23.83763,42215
23.84697,39019
23.85632,41285
23.86565,40855
23.87498,38872
23.88433,40440
23.89367,42300
23.90300,43903
23.91235,46360
23.92168,43166
23.93102,43493
23.94037,42086
23.94970,40879
23.95903,39796
23.96838,40757
23.97772,42143
23.98707,40348
23.99640,39132
24.00573,40178
24.01508,41925
24.02442,42073
24.03375,41874
24.04310,41159
24.05243,40219
24.06177,40696
24.07112,42574
24.08045,42737
24.08978,44181
24.09913,45654
24.10847,47861
24.11780,50099
24.12715,48962
24.13648,47730
24.14582,46289
24.15517,45525
24.16450,42755
24.17385,43249
24.18318,44062
24.19252,44711
24.20187,41717
24.21120,40283
24.22053,41404
24.22988,41586
24.23922,42145
24.24855,43659
24.25790,41304
24.26723,42435
24.27657,40225
24.28592,43203
24.29525,41842
24.30458,43537
24.31393,42528
24.32327,44079
24.33260,47069
24.34195,44621
24.35128,42466
24.36063,42577
24.36997,39805
24.37930,42224
24.38865,44004
24.39798,45032
24.40732,45819
24.41667,43869
24.42600,45060
24.43533,41577
24.44468,41244
24.45402,40694
24.46335,40825
24.47270,40415
24.48203,41166
24.49137,42365
24.50072,42012
24.51005,41921
24.51938,41124
24.52873,43178
24.53807,42393
24.54742,43156
24.55675,45002
24.56608,46497
24.57543,43745
24.58477,45694
24.59410,41733
24.60345,42219
24.61278,45964
24.62212,46801
24.63147,46700
24.64080,44463
24.65013,43300
24.65948,45088
24.66882,45463
24.67815,44733
24.68750,43957
24.69683,43981
24.70617,42289
24.71552,41043
24.72485,42350
24.73420,42416
24.74353,42318
24.75287,41901
24.76222,41851
24.77155,40177
24.78088,40884
24.79023,39080
24.79957,38750
24.80890,40511
24.81825,41525
24.82758,40857
24.83692,40086
24.84627,41332
24.85560,41272
24.86493,40785
24.87428,40989
24.88362,42881
24.89297,41183
24.90230,43731
24.91163,43078
24.92098,42799
24.93032,43386
24.93965,41427
24.94900,43339
24.95833,44086
24.96767,43442
24.97702,44713
24.98635,42147
24.99568,42499
25.00503,43998
25.01437,41701
25.02370,44319
25.03305,41778
25.04238,41689
25.05172,42826
25.06107,42890
25.07040,42499
25.07975,42166
25.08908,43858
25.09842,44715
25.10777,45964
25.11710,44113
25.12643,43362
25.13578,42775
25.14512,44962
25.15445,48438
25.16380,49667
25.17313,46320
25.18247,46785
25.19182,44308
25.20115,46668
25.21048,43743
25.21983,43067
25.22917,42146
25.23850,44472
25.24785,43955
25.25718,45201
25.26653,47725
25.27587,47787
25.28520,46252
25.29455,47135
25.30388,47861
25.31322,54515
25.32257,83040
25.33190,147382
25.34123,235881
25.35058,304187
25.35992,265756
25.36925,164075
25.37860,108974
25.38793,89026
25.39727,80821
25.40662,73211
25.41595,68403
25.42528,68446
25.43463,66102
25.44397,66328
25.45332,63061
25.46265,66438
25.47198,65020
25.48133,67485
25.49067,69666
25.50000,67615
25.50935,66584
25.51868,66069
25.52802,64054
25.53737,64011
25.54670,63064
25.55603,66997
25.56538,62594
25.57472,59884
25.58405,57040
25.59340,57197
25.60273,58536
25.61208,55887
25.62142,51936
25.63075,55729
25.64010,55443
25.64943,56680
25.65877,57715
25.66812,58906
25.67745,58349
25.68678,56056
25.69613,55090
25.70547,53157
25.71480,53336
25.72415,52516
25.73348,53150
25.74282,54899
25.75217,54194
25.76150,54910
25.77083,54105
25.78018,54123
25.78952,53410
25.79887,54188
25.80820,57719
25.81753,56459
25.82688,57847
25.83622,55805
25.84555,54850
25.85490,55613
25.86423,53945
25.87357,52296
25.88292,52523
25.89225,52610
25.90158,53752
25.91093,50091
25.92027,52796
25.92960,48250
25.93895,53129
25.94828,52669
25.95762,56044
25.96697,54555
25.97630,55562
25.98565,53920
25.99498,54274
26.00432,52826
26.01367,51287
26.02300,51916
26.03233,54588
26.04168,55916
26.05102,57017
26.06035,56851
26.06970,53673
26.07903,53995
26.08837,51886
26.09772,53448
26.10705,53790
26.11638,52172
26.12573,51272
26.13507,53972
26.14440,57324
26.15375,58394
26.16308,58135
26.17243,59249
26.18177,57430
26.19110,57250
26.20045,53746
26.20978,52837
26.21912,50001
26.22847,49266
26.23780,49313
26.24713,51971
26.25648,51591
26.26582,49454
26.27515,50008
26.28450,52374
26.29383,53670
26.30317,51735
26.31252,53098
26.32185,52972
26.33118,51768
26.34053,53005
26.34987,51073
26.35922,51580
26.36855,49822
26.37788,52082
26.38723,51341
26.39657,51619
26.40590,50670
26.41525,48006
26.42458,47896
26.43392,47453
26.44327,50164
26.45260,53381
26.46193,56939
26.47128,55534
26.48062,56401
26.48995,56974
26.49930,57673
26.50863,59721
26.51797,60595
26.52732,61459
26.53665,62350
26.54600,62784
26.55533,64975
26.56467,62465
26.57402,59740
26.58335,58477
26.59268,60850
26.60203,63048
26.61137,64485
26.62070,60834
26.63005,60358
26.63938,56557
26.64872,55185
26.65807,55362
26.66740,57345
26.67673,57561
26.68608,58636
26.69542,54461
26.70477,51331
26.71410,51377
26.72343,53323
26.73278,51855
26.74212,52559
26.75145,54091
26.76080,51744
26.77013,52830
26.77947,54244
26.78882,55499
26.79815,54065
26.80748,52867
26.81683,53103
26.82617,51785
26.83550,52770
26.84485,53897
26.85418,53089
26.86352,54169
26.87287,52073
26.88220,51116
26.89155,50541
26.90088,50513
26.91022,49461
26.91957,49583
26.92890,48005
26.93823,50850
26.94758,46597
26.95692,49146
26.96625,49439
26.97560,50847
26.98493,49807
26.99427,51286
27.00362,52841
27.01295,52795
27.02228,54605
27.03163,54221
27.04097,54053
27.05030,55268
27.05965,55642
27.06898,57350
27.07833,57513
27.08767,57085
27.09700,55259
27.10635,53936
27.11568,53997
27.12502,54210
27.13437,55535
27.14370,59397
27.15303,60267
27.16238,57165
27.17172,57105
27.18105,56741
27.19040,56464
27.19973,56751
27.20907,56192
27.21842,58098
27.22775,59672
27.23710,64445
27.24643,68456
27.25577,75366
27.26512,77844
27.27445,79243
27.28378,76609
27.29313,74024
27.30247,72736
27.31180,70793
27.32115,72657
27.33048,69161
27.33982,70245
27.34917,66079
27.35850,63880
27.36783,64700
27.37718,63199
27.38652,61099
27.39585,60097
27.40520,61934
27.41453,59095
27.42388,61891
27.43322,63523
27.44255,62665
27.45190,62231
27.46123,62611
27.47057,64518
27.47992,64011
27.48925,71885
27.49858,80436
27.50793,89252
27.51727,98563
27.52660,105487
27.53595,112298
27.54528,113908
27.55462,111615
27.56397,110110
27.57330,102620
27.58263,97437
27.59198,90559
27.60132,79772
27.61067,77125
27.62000,73265
27.62933,72049
27.63868,70099
27.64802,67847
27.65735,70318
27.66670,85021
27.67603,122697
27.68537,163448
27.69472,166792
27.70405,126174
27.71338,96839
27.72273,80064
27.73207,75210
27.74140,71322
27.75075,71456
27.76008,66629
27.76942,66552
27.77877,66274
27.78810,66680
27.79745,69901
27.80678,64056
27.81612,61969
27.82547,61596
27.83480,60521
27.84413,62410
27.85348,61064
27.86282,58210
27.87215,59690
27.88150,60573
27.89083,59473
27.90017,59304
27.90952,62338
27.91885,59984
27.92818,60687
27.93753,61645
27.94687,62699
27.95620,58753
27.96555,60019
27.97488,58250
27.98423,57915
27.99357,58857
28.00290,60401
28.01225,56631
28.02158,58650
28.03092,54920
28.04027,56245
28.04960,56681
28.05893,55116
28.06828,58027
28.07762,57033
28.08695,59532
28.09630,56730
28.10563,57776
28.11497,60443
28.12432,63802
28.13365,69300
28.14298,68237
28.15233,63610
28.16167,60362
28.17102,61200
28.18035,61114
28.18968,59173
28.19903,60026
28.20837,59983
28.21770,58718
28.22705,59088
28.23638,59486
28.24572,59841
28.25507,59028
28.26440,57584
28.27373,58518
28.28308,57169
28.29242,57600
28.30175,55293
28.31110,59742
28.32043,56951
28.32978,56677
28.33912,57669
28.34845,54320
28.35780,55682
28.36713,56164
28.37647,57395
28.38582,57473
28.39515,59420
28.40448,59950
28.41383,62363
28.42317,58481
28.43250,59887
28.44185,59943
28.45118,60049
28.46052,60734
28.46987,62121
28.47920,59283
28.48853,60092
28.49788,57997
28.50722,56881
28.51657,59103
28.52590,58665
28.53523,61838
28.54458,60487
28.55392,60813
28.56325,61071
28.57260,63445
28.58193,63786
28.59127,66246
28.60062,68251
28.60995,71198
28.61928,70056
28.62863,68786
28.63797,67301
28.64730,64461
28.65665,69319
28.66598,77937
28.67532,106744
28.68467,133035
28.69400,141972
28.70335,122275
28.71268,96408
28.72202,78511
28.73137,72810
28.74070,69409
28.75003,66997
28.75938,67470
28.76872,64359
28.77805,64478
28.78740,63312
28.79673,66871
28.80607,62822
28.81542,63242
28.82475,64385
28.83408,66970
28.84343,62098
28.85277,61634
28.86210,62731
28.87145,62398
28.88078,63707
28.89013,61646
28.89947,60811
28.90880,61795
28.91815,63801
28.92748,63808
28.93682,63063
28.94617,63721
28.95550,66431
28.96483,70743
28.97418,72537
28.98352,76097
28.99285,73721
29.00220,68143
29.01153,67087
29.02087,67420
29.03022,65588
29.03955,66474
29.04890,67301
29.05823,63456
29.06757,63075
29.07692,64420
29.08625,65866
29.09558,65274
29.10493,66213
29.11427,63170
29.12360,65671
29.13295,62820
29.14228,63064
29.15162,62661
29.16097,64079
29.17030,61442
29.17963,64378
29.18898,67774
29.19832,76727
29.20765,88134
29.21700,93256
29.22633,86704
29.23568,78035
29.24502,71634
29.25435,70406
29.26370,68646
29.27303,69052
29.28237,69321
29.29172,66279
29.30105,68092
29.31038,68156
29.31973,68196
29.32907,66746
29.33840,66330
29.34775,63393
29.35708,66403
29.36642,65055
29.37577,68378
29.38510,65579
29.39443,66696
29.40378,67229
29.41312,69172
29.42247,66344
29.43180,69116
29.44113,68904
29.45048,69604
29.45982,71400
29.46915,74523
29.47850,73254
29.48783,70886
29.49717,69910
29.50652,71354
29.51585,69049
29.52518,69788
29.53453,66857
29.54387,67551
29.55320,65902
29.56255,66939
29.57188,63455
29.58122,64317
29.59057,66199
29.59990,65703
29.60925,65499
29.61858,63881
29.62792,64120
29.63727,63543
29.64660,64452
29.65593,64377
29.66528,65347
29.67462,63443
29.68395,62716
29.69330,64183
29.70263,64627
29.71197,65299
29.72132,66227
29.73065,67331
29.73998,66952
29.74933,69770
29.75867,68787
29.76800,68654
29.77735,66395
29.78668,68655
29.79603,64905
29.80537,67898
29.81470,64371
29.82405,64693
29.83338,66146
29.84272,64977
29.85207,65269
29.86140,64594
29.87073,63711
29.88008,61828
29.88942,65554
29.89875,66143
29.90810,65560
29.91743,67103
29.92677,66776
29.93612,67874
29.94545,66943
29.95478,67881
29.96413,68974
29.97347,75142
29.98282,80313
29.99215,84830
30.00148,84333
30.01083,77581
30.02017,74704
30.02950,68504
30.03885,67611
30.04818,69416
30.05752,67454
30.06687,68578
30.07620,68767
30.08553,69804
30.09488,73444
30.10422,76374
30.11355,80356
30.12290,85957
30.13223,95103
30.14158,109355
30.15092,114214
30.16025,122174
30.16960,131726
30.17893,129549
30.18827,132920
30.19762,123195
30.20695,118446
30.21628,114641
30.22563,105402
30.23497,99953
30.24430,93565
30.25365,85962
30.26298,85836
30.27232,81696
30.28167,84041
30.29100,81942
30.30033,78567
30.30968,76867
30.31902,76818
30.32837,75482
30.33770,72058
30.34703,73851
30.35638,72750
30.36572,70818
30.37505,74946
30.38440,80461
30.39373,94536
30.40307,109934
30.41242,122583
30.42175,124307
30.43108,115402
30.44043,101651
30.44977,90019
30.45910,85055
30.46845,79179
30.47778,81986
30.48712,81579
30.49647,80172
30.50580,77218
30.51515,74694
30.52448,74529
30.53382,71850
30.54317,71943
30.55250,73191
30.56183,71695
30.57118,72567
30.58052,73645
30.58985,75673
30.59920,77743
30.60853,76100
30.61787,82056
30.62722,86223
30.63655,87867
30.64588,96090
30.65523,100710
30.66457,101527
30.67390,97774
30.68325,93416
30.69258,94084
30.70193,87982
30.71127,87350
30.72060,86735
30.72995,84139
30.73928,82746
30.74862,81696
30.75797,80769
30.76730,80150
30.77663,80159
30.78598,80549
30.79532,80806
30.80465,80204
30.81400,77696
30.82333,75405
30.83267,77480
30.84202,77473
30.85135,77003
30.86070,81613
30.87003,78802
30.87937,81227
30.88872,75929
30.89805,82838
30.90738,80292
30.91673,82066
30.92607,85165
30.93540,83866
30.94475,88441
30.95408,88710
30.96342,87819
30.97277,89607
30.98210,87457
30.99143,85077
31.00078,89424
31.01012,85132
31.01945,85850
31.02880,86205
31.03813,85773
31.04748,84996
31.05682,84451
31.06615,86039
31.07550,83389
31.08483,83577
31.09417,81649
31.10352,87231
31.11285,84234
31.12218,81309
31.13153,84784
31.14087,80186
31.15020,81556
31.15955,83407
31.16888,85885
31.17822,82859
31.18757,83097
31.19690,80334
31.20623,84420
31.21558,80985
31.22492,80807
31.23427,79072
31.24360,79130
31.25293,79207
31.26228,80862
31.27162,77163
31.28095,78562
31.29030,75461
31.29963,76390
31.30897,76181
31.31832,78462
31.32765,78468
31.33698,78663
31.34633,79801
31.35567,75206
31.36500,77614
