D:\数据\20211216\ZS1E-TJ-000221.D Thu Dec 16 12:34:45 2021
Start of data points
0.09755,29719
0.10690,28013
0.11623,29807
0.12558,30452
0.13492,29358
0.14425,29276
0.15360,30186
0.16293,30061
0.17227,28475
0.18162,29183
0.19095,30164
0.20028,28797
0.20963,27837
0.21897,28451
0.22830,28958
0.23765,28347
0.24698,28785
0.25632,28046
0.26567,29419
0.27500,28780
0.28433,28214
0.29368,28893
0.30302,27460
0.31237,30246
0.32170,29307
0.33103,29627
0.34038,28782
0.34972,27834
0.35905,28773
0.36840,28666
0.37773,28724
0.38707,28060
0.39642,29180
0.40575,27397
0.41508,28062
0.42443,29358
0.43377,29436
0.44310,25795
0.45245,22216
0.46178,20076
0.47112,16848
0.48047,10858
0.48980,7008
0.49915,6790
0.50848,7024
0.51782,6991
0.52717,6440
0.53650,7406
0.54583,6861
0.55518,6508
0.56452,6052
0.57385,6305
0.58320,6292
0.59253,6256
0.60187,5709
0.61122,6357
0.62055,6159
0.62988,5546
0.63923,5872
0.64857,5848
0.65790,6276
0.66725,5576
0.67658,5895
0.68593,5996
0.69527,6517
0.70460,5781
0.71395,6488
0.72328,5856
0.73262,6831
0.74197,6077
0.75130,5679
0.76063,5589
0.76998,5932
0.77932,4720
0.78865,5951
0.79800,4716
0.80733,5768
0.81667,5444
0.82602,5574
0.83535,5533
0.84470,5725
0.85403,6039
0.86337,5753
0.87272,4729
0.88205,5301
0.89138,5527
0.90073,5668
0.91007,5265
0.91940,5138
0.92875,5036
0.93808,5441
0.94742,5177
0.95677,5423
0.96610,4919
0.97543,5049
0.98478,5042
0.99412,5166
1.00345,5234
1.01280,5335
1.02213,5697
1.03148,4761
1.04082,5627
1.05015,5982
1.05950,5096
1.06883,5322
1.07817,5261
1.08752,5733
1.09685,5228
1.10618,5744
1.11553,5185
1.12487,4927
1.13420,5044
1.14355,4852
1.15288,4925
1.16222,4944
1.17157,5326
1.18090,4715
1.19023,5470
1.19958,5249
1.20892,5922
1.21827,5472
1.22760,5245
1.23693,4860
1.24628,6054
1.25562,4864
1.26495,5665
1.27430,4768
1.28363,4593
1.29297,5167
1.30232,5506
1.31165,4398
1.32098,4815
1.33033,5357
1.33967,5791
1.34900,5402
1.35835,4815
1.36768,4768
1.37702,4741
1.38637,4895
1.39570,5025
1.40505,4797
1.41438,5216
1.42372,4846
1.43307,5484
1.44240,4292
1.45173,5144
1.46108,5704
1.47042,4945
1.47975,5750
1.48910,4744
1.49843,5406
1.50777,5226
1.51712,5307
1.52645,5629
1.53578,4319
1.54513,4578
1.55447,5286
1.56380,5341
1.57315,5174
1.58248,5310
1.59183,5864
1.60117,5569
1.61050,6523
1.61985,11885
1.62918,21549
1.63852,25635
1.64787,30132
1.65720,41491
1.66653,50193
1.67588,57361
1.68522,56568
1.69455,49704
1.70390,41563
1.71323,30004
1.72257,21855
1.73192,21173
1.74125,23532
1.75060,26250
1.75993,29433
1.76927,31056
1.77862,32612
1.78795,33581
1.79728,33925
1.80663,35107
1.81597,34473
1.82530,34486
1.83465,33305
1.84398,32791
1.85332,33557
1.86267,35058
1.87200,36172
1.88133,41819
1.89068,52978
1.90002,70846
1.90935,96104
1.91870,132195
1.92803,176391
1.93738,246739
1.94672,325188
1.95605,387481
1.96540,389313
1.97473,343521
1.98407,267211
1.99342,193943
2.00275,147585
2.01208,124683
2.02143,130366
2.03077,153158
2.04010,142350
2.04945,116327
2.05878,95141
2.06812,80200
2.07747,69131
2.08680,63748
2.09613,57874
2.10548,54649
2.11482,57173
2.12417,65720
2.13350,93422
2.14283,156251
2.15218,186264
2.16152,160855
2.17085,131240
2.18020,117775
2.18953,172957
2.19887,245463
2.20822,202496
2.21755,124673
2.22688,97344
2.23623,119059
2.24557,155057
2.25490,339232
2.26425,1840846
2.27358,2622605
2.28292,2133431
2.29227,1363294
2.30160,938331
2.31095,2003089
2.32028,6064107
2.32962,7874801
2.33897,5064948
2.34830,2301370
2.35763,990184
2.36698,459947
2.37632,270148
2.38565,223291
2.39500,192966
2.40433,160082
2.41367,138359
2.42302,128394
2.43235,120470
2.44168,112674
2.45103,98009
2.46037,83433
2.46972,78797
2.47905,78775
2.48838,72336
2.49773,66184
2.50707,59366
2.51640,57276
2.52575,54638
2.53508,54083
2.54442,56567
2.55377,64414
2.56310,74210
2.57243,474088
2.58178,659851
2.59112,524043
2.60045,385054
2.60980,283025
2.61913,243007
2.62847,226168
2.63782,184482
2.64715,139289
2.65650,115460
2.66583,100626
2.67517,92014
2.68452,81835
2.69385,71365
2.70318,65935
2.71253,67528
2.72187,84536
2.73120,110406
2.74055,112970
2.74988,108981
2.75922,107785
2.76857,106144
2.77790,129341
2.78723,177538
2.79658,207225
2.80592,180314
2.81525,141548
2.82460,122019
2.83393,104997
2.84328,96175
2.85262,101661
2.86195,119753
2.87130,120219
2.88063,153871
2.88997,158902
2.89932,131700
2.90865,112385
2.91798,100302
2.92733,93161
2.93667,81687
2.94600,71754
2.95535,62110
2.96468,57194
2.97402,54563
2.98337,54241
2.99270,53493
3.00203,58056
3.01138,64631
3.02072,63475
3.03007,59077
3.03940,62845
3.04873,96388
3.05808,138077
3.06742,169923
3.07675,165285
3.08610,130040
3.09543,92562
3.10477,69199
3.11412,58270
3.12345,52818
3.13278,53169
3.14213,55102
3.15147,59536
3.16080,67476
3.17015,70708
3.17948,67472
3.18882,63407
3.19817,59886
3.20750,55355
3.21685,53817
3.22618,50831
3.23552,52455
3.24487,50168
3.25420,52386
3.26353,50933
3.27288,46869
3.28222,46449
3.29155,47852
3.30090,50974
3.31023,53719
3.31957,52621
3.32892,47662
3.33825,47708
3.34758,47142
3.35693,48698
3.36627,47203
3.37562,46041
3.38495,43370
3.39428,44274
3.40363,47504
3.41297,56132
3.42230,68940
3.43165,71159
3.44098,65260
3.45032,64387
3.45967,64745
3.46900,62625
3.47833,57249
3.48768,56183
3.49702,54779
3.50635,53319
3.51570,49950
3.52503,48759
3.53437,46120
3.54372,53058
3.55305,93140
3.56240,214713
3.57173,367501
3.58107,372893
3.59042,260264
3.59975,155189
3.60908,107022
3.61843,86671
3.62777,117699
3.63710,113723
3.64645,100396
3.65578,81850
3.66512,71228
3.67447,68690
3.68380,66772
3.69313,61047
3.70248,54123
3.71182,55988
3.72115,64722
3.73050,73466
3.73983,71341
3.74918,59672
3.75852,52880
3.76785,49877
3.77720,47709
3.78653,46046
3.79587,47532
3.80522,48498
3.81455,59172
3.82388,70961
3.83323,70735
3.84257,62073
3.85190,55917
3.86125,52978
3.87058,51995
3.87992,51680
3.88927,57205
3.89860,66182
3.90793,75859
3.91728,74890
3.92662,68435
3.93597,69460
3.94530,78958
3.95463,93362
3.96398,116827
3.97332,105249
3.98265,84715
3.99200,64956
4.00133,59256
4.01067,53073
4.02002,52015
4.02935,55893
4.03868,84894
4.04803,136662
4.05737,159867
4.06670,129194
4.07605,97431
4.08538,107803
4.09473,127576
4.10407,127794
4.11340,107948
4.12275,83099
4.13208,66452
4.14142,57805
4.15077,54550
4.16010,52982
4.16943,52139
4.17878,49128
4.18812,47879
4.19745,47146
4.20680,47591
4.21613,50765
4.22547,51368
4.23482,47906
4.24415,45957
4.25348,47435
4.26283,44994
4.27217,45187
4.28152,48842
4.29085,49342
4.30018,52631
4.30953,52084
4.31887,51304
4.32820,53181
4.33755,59478
4.34688,59933
4.35622,58236
4.36557,52389
4.37490,48546
4.38423,46591
4.39358,52425
4.40292,55936
4.41225,55646
4.42160,49966
4.43093,46722
4.44027,46310
4.44962,43145
4.45895,45762
4.46830,50180
4.47763,59327
4.48697,67243
4.49632,63595
4.50565,57100
4.51498,49535
4.52433,46723
4.53367,44730
4.54300,45493
4.55235,50059
4.56168,51233
4.57102,47023
4.58037,47256
4.58970,47245
4.59903,45987
4.60838,46613
4.61772,46642
4.62705,43987
4.63640,45708
4.64573,46749
4.65508,54775
4.66442,61326
4.67375,61850
4.68310,61245
4.69243,60837
4.70177,58201
4.71112,58764
4.72045,53099
4.72978,46396
4.73913,44055
4.74847,48285
4.75780,56291
4.76715,54685
4.77648,55496
4.78582,50822
4.79517,49158
4.80450,49087
4.81383,49872
4.82318,50169
4.83252,50641
4.84187,51406
4.85120,52543
4.86053,51569
4.86988,49053
4.87922,51758
4.88855,53985
4.89790,51666
4.90723,48940
4.91657,43743
4.92592,43928
4.93525,46537
4.94458,52274
4.95393,51940
4.96327,48846
4.97260,46612
4.98195,43964
4.99128,43091
5.00063,43985
5.00997,45817
5.01930,47798
5.02865,51782
5.03798,56574
5.04732,58869
5.05667,52843
5.06600,47883
5.07533,48105
5.08468,50199
5.09402,50603
5.10335,48266
5.11270,46753
5.12203,44904
5.13137,47468
5.14072,44423
5.15005,46290
5.15938,45341
5.16873,44205
5.17807,42417
5.18742,45295
5.19675,48793
5.20608,59191
5.21543,59743
5.22477,52341
5.23410,48239
5.24345,53239
5.25278,52794
5.26212,53546
5.27147,73838
5.28080,176113
5.29013,371440
5.29948,489054
5.30882,382916
5.31815,200703
5.32750,95743
5.33683,63545
5.34617,55031
5.35552,50790
5.36485,50808
5.37420,51520
5.38353,57352
5.39287,64048
5.40222,67661
5.41155,62218
5.42088,54562
5.43023,50099
5.43957,45342
5.44890,43094
5.45825,43942
5.46758,44095
5.47692,44315
5.48627,45291
5.49560,45952
5.50493,44187
5.51428,48002
5.52362,47505
5.53295,54278
5.54230,54703
5.55163,54065
5.56098,50267
5.57032,48773
5.57965,46537
5.58900,46298
5.59833,43240
5.60767,43150
5.61702,41485
5.62635,43534
5.63568,42720
5.64503,41660
5.65437,40112
5.66370,44012
5.67305,45066
5.68238,45420
5.69172,45268
5.70107,48467
5.71040,55850
5.71973,62848
5.72908,65559
5.73842,60047
5.74777,56408
5.75710,63348
5.76643,65854
5.77578,58654
5.78512,50025
5.79445,47436
5.80380,48846
5.81313,48127
5.82247,48324
5.83182,48967
5.84115,53350
5.85048,54724
5.85983,50212
5.86917,46130
5.87850,40410
5.88785,36329
5.89718,32822
5.90653,34477
5.91587,44816
5.92520,70553
5.93455,92884
5.94388,83018
5.95322,65528
5.96257,67970
5.97190,71922
5.98123,59691
5.99058,50101
5.99992,43292
6.00925,36257
6.01860,30855
6.02793,25465
6.03727,23465
6.04662,21476
6.05595,21302
6.06528,24467
6.07463,24500
6.08397,22818
6.09332,20471
6.10265,18492
6.11198,18861
6.12133,25264
6.13067,36804
6.14000,56228
6.14935,59923
6.15868,44381
6.16802,28788
6.17737,21528
6.18670,21430
6.19603,21384
6.20538,21127
6.21472,20030
6.22405,19875
6.23340,23494
6.24273,25428
6.25207,24819
6.26142,21769
6.27075,20568
6.28010,27977
6.28943,38588
6.29877,40683
6.30812,31879
6.31745,21802
6.32678,18318
6.33613,17321
6.34547,17624
6.35480,18000
6.36415,17419
6.37348,21259
6.38282,25521
6.39217,48593
6.40150,167489
6.41083,577787
6.42018,1159081
6.42952,1168760
6.43885,659442
6.44820,225225
6.45753,69517
6.46688,33459
6.47622,27506
6.48555,26038
6.49490,25425
6.50423,22711
6.51357,23318
6.52292,24253
6.53225,23198
6.54158,22070
6.55093,21047
6.56027,19408
6.56960,19944
6.57895,19330
6.58828,20482
6.59762,22457
6.60697,22288
6.61630,22993
6.62563,23281
6.63498,24263
6.64432,25524
6.65367,24756
6.66300,24673
6.67233,28251
6.68168,27396
6.69102,25574
6.70035,25436
6.70970,25089
6.71903,25764
6.72837,24822
6.73772,23504
6.74705,23527
6.75638,22245
6.76573,22132
6.77507,22529
6.78440,22407
6.79375,26315
6.80308,33919
6.81243,34234
6.82177,29901
6.83110,24008
6.84045,21604
6.84978,22757
6.85912,27529
6.86847,28935
6.87780,25374
6.88713,23095
6.89648,22086
6.90582,22280
6.91515,23998
6.92450,25322
6.93383,22287
6.94317,21874
6.95252,22706
6.96185,21639
6.97118,20890
6.98053,21348
6.98987,22055
6.99922,22236
7.00855,20857
7.01788,21208
7.02723,21201
7.03657,19903
7.04590,18020
7.05525,16717
7.06458,16374
7.07392,15474
7.08327,16961
7.09260,18065
7.10193,19541
7.11128,22864
7.12062,25559
7.12995,25164
7.13930,23003
7.14863,21408
7.15797,17714
7.16732,16971
7.17665,17589
7.18600,17355
7.19533,18429
7.20467,19093
7.21402,22288
7.22335,21791
7.23268,41630
7.24203,81107
7.25137,113784
7.26070,99973
7.27005,63193
7.27938,40745
7.28872,32037
7.29807,28013
7.30740,24386
7.31673,21499
7.32608,17822
7.33542,17614
7.34475,18302
7.35410,18374
7.36343,17383
7.37278,17086
7.38212,20746
7.39145,41631
7.40080,120007
7.41013,264331
7.41947,345064
7.42882,282366
7.43815,163581
7.44748,75624
7.45683,40765
7.46617,25186
7.47550,20505
7.48485,21224
7.49418,26802
7.50352,36625
7.51287,35616
7.52220,29716
7.53155,23785
7.54088,19318
7.55022,18716
7.55957,18649
7.56890,21660
7.57823,21231
7.58758,20751
7.59692,20303
7.60625,21520
7.61560,20865
7.62493,23179
7.63427,24506
7.64362,25467
7.65295,23260
7.66228,20622
7.67163,21586
7.68097,18953
7.69030,18783
7.69965,19065
7.70898,20337
7.71833,23086
7.72767,23703
7.73700,22359
7.74635,21386
7.75568,22571
7.76502,27154
7.77437,27374
7.78370,28547
7.79303,27969
7.80238,26838
7.81172,25488
7.82105,21648
7.83040,20434
7.83973,19728
7.84907,22879
7.85842,30902
7.86775,56207
7.87708,78974
7.88643,78398
7.89577,60795
7.90512,45924
7.91445,64595
7.92378,104094
7.93313,125105
7.94247,93223
7.95180,47679
7.96115,32878
7.97048,39282
7.97982,45767
7.98917,43736
7.99850,38905
8.00783,36745
8.01718,32322
8.02652,30277
8.03585,29112
8.04520,37480
8.05453,43777
8.06387,38360
8.07322,28394
8.08255,22980
8.09190,22799
8.10123,28420
8.11057,32682
8.11992,29212
8.12925,24852
8.13858,21561
8.14793,22716
8.15727,22537
8.16660,22732
8.17595,21378
8.18528,20551
8.19462,20312
8.20397,20398
8.21330,23348
8.22263,21889
8.23198,23754
8.24132,20865
8.25065,26438
8.26000,26831
8.26933,27831
8.27868,25851
8.28802,22163
8.29735,21008
8.30670,20673
8.31603,20461
8.32537,20268
8.33472,19760
8.34405,20487
8.35338,22203
8.36273,21735
8.37207,19434
8.38140,20354
8.39075,20816
8.40008,20239
8.40942,24371
8.41877,28026
8.42810,29930
8.43743,28163
8.44678,25107
8.45612,24172
8.46547,24825
8.47480,23377
8.48413,23847
8.49348,24757
8.50282,24646
8.51215,23453
8.52150,20747
8.53083,22261
8.54017,22018
8.54952,22769
8.55885,22194
8.56818,23829
8.57753,24186
8.58687,25065
8.59620,25465
8.60555,27793
8.61488,30743
8.62423,30958
8.63357,29246
8.64290,26332
8.65225,26247
8.66158,24347
8.67092,26004
8.68027,25913
8.68960,24760
8.69893,24565
8.70828,25373
8.71762,25894
8.72695,23709
8.73630,22859
8.74563,22517
8.75497,23797
8.76432,24698
8.77365,25529
8.78298,27547
8.79233,30861
8.80167,47917
8.81102,87987
8.82035,117478
8.82968,97113
8.83903,55148
8.84837,33136
8.85770,26296
8.86705,24266
8.87638,24506
8.88572,24696
8.89507,24590
8.90440,24161
8.91373,24572
8.92308,25282
8.93242,24836
8.94175,25122
8.95110,24164
8.96043,21801
8.96977,20572
8.97912,22003
8.98845,20987
8.99780,22423
9.00713,22904
9.01647,26117
9.02582,24523
9.03515,24408
9.04448,24273
9.05383,24383
9.06317,24506
9.07250,25377
9.08185,25134
9.09118,27432
9.10052,28200
9.10987,27716
9.11920,25205
9.12853,25449
9.13788,31560
9.14722,33242
9.15655,31273
9.16590,27695
9.17523,24666
9.18458,23099
9.19392,23944
9.20325,24716
9.21260,23941
9.22193,32056
9.23127,47018
9.24062,58368
9.24995,54626
9.25928,40029
9.26863,31004
9.27797,28283
9.28730,26816
9.29665,26608
9.30598,26839
9.31532,26217
9.32467,25253
9.33400,29611
9.34335,30296
9.35268,31058
9.36202,40015
9.37137,77314
9.38070,132115
9.39003,155855
9.39938,126734
9.40872,93573
9.41805,67453
9.42740,55685
9.43673,54720
9.44607,43517
9.45542,33803
9.46475,26657
9.47408,25280
9.48343,24681
9.49277,24481
9.50210,26250
9.51145,27641
9.52078,24947
9.53013,25876
9.53947,30536
9.54880,37038
9.55815,43192
9.56748,52983
9.57682,51989
9.58617,41185
9.59550,28699
9.60483,26433
9.61418,25774
9.62352,25162
9.63285,26234
9.64220,25645
9.65153,26990
9.66087,28151
9.67022,29249
9.67955,29809
9.68888,36032
9.69823,56267
9.70757,75781
9.71692,77541
9.72625,93387
9.73558,267845
9.74493,742220
9.75427,1106398
9.76360,953555
9.77295,525327
9.78228,247149
9.79162,143931
9.80097,106265
9.81030,82086
9.81963,70605
9.82898,70932
9.83832,73146
9.84765,74300
9.85700,65019
9.86633,55833
9.87567,52214
9.88502,55765
9.89435,64017
9.90370,68981
9.91303,61587
9.92237,55991
9.93172,56674
9.94105,53358
9.95038,47739
9.95973,43339
9.96907,42412
9.97840,54329
9.98775,90880
9.99708,126864
10.00642,117414
10.01577,77446
10.02510,51336
10.03443,40143
10.04378,35204
10.05312,35260
10.06245,42962
10.07180,61887
10.08113,78752
10.09048,76230
10.09982,59237
10.10915,53047
10.11850,93023
10.12783,219033
10.13717,350495
10.14652,324613
10.15585,282403
10.16518,495701
10.17453,694666
10.18387,516031
10.19320,202130
10.20255,64721
10.21188,35781
10.22122,33144
10.23057,30486
10.23990,33379
10.24925,42843
10.25858,45113
10.26792,37933
10.27727,32539
10.28660,28992
10.29593,30235
10.30528,28125
10.31462,28551
10.32395,29827
10.33330,27655
10.34263,26180
10.35197,26906
10.36132,28126
10.37065,30985
10.37998,30304
10.38933,28217
10.39867,26639
10.40800,25361
10.41735,26614
10.42668,28903
10.43603,31844
10.44537,31962
10.45470,35437
10.46405,41098
10.47338,43122
10.48272,37452
10.49207,30981
10.50140,25723
10.51073,26634
10.52008,25884
10.52942,25350
10.53875,25715
10.54810,26615
10.55743,26883
10.56677,27250
10.57612,28995
10.58545,30167
10.59478,30044
10.60413,27564
10.61347,27179
10.62282,28395
10.63215,37263
10.64148,47077
10.65083,49001
10.66017,39686
10.66950,33424
10.67885,36798
10.68818,43674
10.69752,42698
10.70687,36469
10.71620,40322
10.72553,44134
10.73488,45500
10.74422,49122
10.75355,105330
10.76290,259953
10.77223,373332
10.78157,300713
10.79092,177058
10.80025,146442
10.80960,174995
10.81893,181622
10.82827,118705
10.83762,64410
10.84695,40606
10.85628,37507
10.86563,37464
10.87497,40355
10.88430,50197
10.89365,58525
10.90298,55076
10.91232,43975
10.92167,37393
10.93100,34917
10.94033,35155
10.94968,34617
10.95902,34636
10.96837,37828
10.97770,36942
10.98703,35143
10.99638,29751
11.00572,27276
11.01505,29356
11.02440,28368
11.03373,27353
11.04307,27176
11.05242,27306
11.06175,27204
11.07108,31107
11.08043,34957
11.08977,35198
11.09910,30442
11.10845,28328
11.11778,32010
11.12712,32182
11.13647,31983
11.14580,32814
11.15515,32356
11.16448,30915
11.17382,32686
11.18317,32445
11.19250,30553
11.20183,28902
11.21118,29608
11.22052,28454
11.22985,33305
11.23920,31520
11.24853,30861
11.25787,30853
11.26722,36495
11.27655,38278
11.28588,34336
11.29523,30370
11.30457,27751
11.31390,26523
11.32325,26558
11.33258,33489
11.34193,47674
11.35127,61071
11.36060,69120
11.36995,65787
11.37928,51227
11.38862,38925
11.39797,44330
11.40730,55741
11.41663,58993
11.42598,46867
11.43532,36158
11.44465,29469
11.45400,29116
11.46333,35728
11.47267,46368
11.48202,53194
11.49135,45334
11.50068,31369
11.51003,27258
11.51937,28461
11.52872,28081
11.53805,25765
11.54738,27128
11.55673,27655
11.56607,32935
11.57540,50555
11.58475,74802
11.59408,84041
11.60342,79908
11.61277,67930
11.62210,57418
11.63143,46326
11.64078,44107
11.65012,58562
11.65945,84086
11.66880,94402
11.67813,78061
11.68747,55233
11.69682,43363
11.70615,38393
11.71550,36109
11.72483,36576
11.73417,34613
11.74352,32371
11.75285,29934
11.76218,33504
11.77153,33438
11.78087,38409
11.79020,46087
11.79955,47800
11.80888,44093
11.81822,40324
11.82757,41083
11.83690,42718
11.84623,38325
11.85558,36931
11.86492,34787
11.87427,34624
11.88360,35878
11.89293,38470
11.90228,35141
11.91162,35366
11.92095,32274
11.93030,32933
11.93963,36108
11.94897,53630
11.95832,65433
11.96765,58163
11.97698,42061
11.98633,34470
11.99567,32333
12.00500,35986
12.01435,44515
12.02368,54742
12.03302,51761
12.04237,44378
12.05170,35593
12.06105,32858
12.07038,31190
12.07972,28528
12.08907,29560
12.09840,31224
12.10773,31819
12.11708,33096
12.12642,28961
12.13575,28220
12.14510,30607
12.15443,32348
12.16377,41476
12.17312,72069
12.18245,122508
12.19178,132412
12.20113,83082
12.21047,47892
12.21980,38045
12.22915,42564
12.23848,52704
12.24783,48836
12.25717,38321
12.26650,39432
12.27585,56372
12.28518,97060
12.29452,108614
12.30387,78227
12.31320,48411
12.32253,37965
12.33188,38482
12.34122,40218
12.35055,40541
12.35990,36225
12.36923,33226
12.37857,37011
12.38792,41792
12.39725,40608
12.40658,37090
12.41593,34122
12.42527,31490
12.43462,32136
12.44395,31947
12.45328,29686
12.46263,31267
12.47197,36655
12.48130,42587
12.49065,41948
12.49998,40000
12.50932,42091
12.51867,40435
12.52800,40575
12.53733,41046
12.54668,40836
12.55602,43002
12.56535,49623
12.57470,49327
12.58403,44005
12.59338,35738
12.60272,30998
12.61205,30497
12.62140,34469
12.63073,40773
12.64007,60175
12.64942,75091
12.65875,79094
12.66808,67637
12.67743,54432
12.68677,39962
12.69610,31969
12.70545,31473
12.71478,34121
12.72412,37154
12.73347,38748
12.74280,34573
12.75213,32689
12.76148,36005
12.77082,33331
12.78017,31668
12.78950,30555
12.79883,32878
12.80818,33835
12.81752,35471
12.82685,36466
12.83620,37155
12.84553,35542
12.85487,34267
12.86422,32107
12.87355,32415
12.88288,30934
12.89223,31468
12.90157,35376
12.91090,37196
12.92025,32646
12.92958,29826
12.93892,30764
12.94827,30936
12.95760,34834
12.96695,35302
12.97628,36214
12.98562,29856
12.99497,27799
13.00430,28329
13.01363,30817
13.02298,35317
13.03232,44817
13.04165,51096
13.05100,48542
13.06033,38385
13.06967,38868
13.07902,43416
13.08835,40438
13.09768,38989
13.10703,35800
13.11637,35570
13.12570,34959
13.13505,38385
13.14438,44839
13.15373,47668
13.16307,50509
13.17240,50435
13.18175,52112
13.19108,60102
13.20042,139470
13.20977,353451
13.21910,594109
13.22843,556923
13.23778,303534
13.24712,140047
13.25645,104346
13.26580,87832
13.27513,71864
13.28447,69656
13.29382,66490
13.30315,55818
13.31248,52486
13.32183,58137
13.33117,58083
13.34052,55883
13.34985,48024
13.35918,44654
13.36853,41617
13.37787,41261
13.38720,38903
13.39655,47273
13.40588,56562
13.41522,57293
13.42457,44323
13.43390,39298
13.44323,46537
13.45258,48812
13.46192,46212
13.47125,43439
13.48060,41390
13.48993,41339
13.49927,40374
13.50862,40949
13.51795,56561
13.52730,95599
13.53663,131244
13.54597,114483
13.55532,70720
13.56465,43797
13.57398,36946
13.58333,31880
13.59267,33905
13.60200,34178
13.61135,33536
13.62068,33854
13.63002,35398
13.63937,40160
13.64870,47316
13.65803,54645
13.66738,51842
13.67672,42516
13.68607,36725
13.69540,32013
13.70473,30397
13.71408,30058
13.72342,30293
13.73275,28699
13.74210,27402
13.75143,30639
13.76077,31547
13.77012,35161
13.77945,34998
13.78878,33829
13.79813,35225
13.80747,41990
13.81680,47548
13.82615,45046
13.83548,40510
13.84482,35891
13.85417,36453
13.86350,36279
13.87285,38946
13.88218,42341
13.89152,50965
13.90087,78909
13.91020,136176
13.91953,231324
13.92888,275168
13.93822,199432
13.94755,99017
13.95690,55028
13.96623,47030
13.97557,44360
13.98492,41657
13.99425,41638
14.00358,43937
14.01293,41952
14.02227,39250
14.03160,39298
14.04095,52674
14.05028,220431
14.05963,1248067
14.06897,4112696
14.07830,7127874
14.08765,6356129
14.09698,2718460
14.10632,560591
14.11567,110068
14.12500,61517
14.13433,52425
14.14368,53358
14.15302,54151
14.16235,56782
14.17170,58158
14.18103,58730
14.19037,62764
14.19972,75458
14.20905,76922
14.21838,62469
14.22773,45355
14.23707,36763
14.24642,34221
14.25575,34355
14.26508,36675
14.27443,40304
14.28377,43218
14.29310,38251
14.30245,36095
14.31178,38518
14.32112,48916
14.33047,69501
14.33980,80025
14.34913,71653
14.35848,52613
14.36782,43759
14.37715,36707
14.38650,34261
14.39583,37486
14.40518,39990
14.41452,35760
14.42385,34089
14.43320,31334
14.44253,34575
14.45187,45121
14.46122,68889
14.47055,96432
14.47988,100541
14.48923,77163
14.49857,55975
14.50790,44283
14.51725,39686
14.52658,32823
14.53592,33193
14.54527,33698
14.55460,36959
14.56393,41230
14.57328,42964
14.58262,42004
14.59197,39621
14.60130,35619
14.61063,37148
14.61998,35731
14.62932,36188
14.63865,41897
14.64800,47795
14.65733,62358
14.66667,73187
14.67602,70818
14.68535,56228
14.69468,46651
14.70403,40807
14.71337,35210
14.72270,33717
14.73205,38513
14.74138,37844
14.75072,37845
14.76007,38109
14.76940,37344
14.77875,38104
14.78808,40269
14.79742,40358
14.80677,40282
14.81610,39218
14.82543,40356
14.83478,44787
14.84412,41039
14.85345,39129
14.86280,41796
14.87213,56462
14.88147,66946
14.89082,59728
14.90015,47887
14.90948,38396
14.91883,37948
14.92817,40352
14.93750,41016
14.94685,41662
14.95618,39379
14.96553,41088
14.97487,50438
14.98420,54996
14.99355,46968
15.00288,45027
15.01222,52751
15.02157,58408
15.03090,53340
15.04023,48751
15.04958,52555
15.05892,57868
15.06825,59099
15.07760,59141
15.08693,53031
15.09627,45126
15.10562,37668
15.11495,37842
15.12428,45317
15.13363,57068
15.14297,65891
15.15232,59014
15.16165,44229
15.17098,37784
15.18033,34474
15.18967,36824
15.19900,46973
15.20835,67281
15.21768,100656
15.22702,120355
15.23637,109870
15.24570,77345
15.25503,53999
15.26438,44321
15.27372,42491
15.28305,43328
15.29240,43100
15.30173,39205
15.31108,37420
15.32042,37550
15.32975,44945
15.33910,55406
15.34843,55427
15.35777,49693
15.36712,49422
15.37645,63311
15.38578,66692
15.39513,52007
15.40447,41527
15.41380,38366
15.42315,40120
15.43248,43045
15.44182,41938
15.45117,40823
15.46050,38263
15.46983,37976
15.47918,37098
15.48852,40124
15.49787,40163
15.50720,51347
15.51653,75351
15.52588,96895
15.53522,92873
15.54455,67384
15.55390,47452
15.56323,38225
15.57257,38525
15.58192,39839
15.59125,38273
15.60058,39235
15.60993,41021
15.61927,39253
15.62860,41745
15.63795,47675
15.64728,52830
15.65662,55799
15.66597,58874
15.67530,57427
15.68465,50777
15.69398,48360
15.70332,56849
15.71267,71062
15.72200,65903
15.73133,55237
15.74068,45151
15.75002,49451
15.75935,57389
15.76870,59740
15.77803,58506
15.78737,50784
15.79672,45854
15.80605,47761
15.81538,67636
15.82473,109879
15.83407,195118
15.84340,292284
15.85275,320994
15.86208,233645
15.87143,119356
15.88077,79650
15.89010,75219
15.89945,84817
15.90878,89870
15.91812,81446
15.92747,67416
15.93680,52237
15.94613,47559
15.95548,42508
15.96482,43833
15.97415,50946
15.98350,56537
15.99283,75169
16.00217,80358
16.01152,70479
16.02085,55472
16.03020,47872
16.03953,46146
16.04887,46420
16.05822,50631
16.06755,52905
16.07688,51698
16.08623,48072
16.09557,44760
16.10490,45980
16.11425,47035
16.12358,54567
16.13292,58392
16.14227,53443
16.15160,49702
16.16093,47382
16.17028,47338
16.17962,44193
16.18895,42764
16.19830,44144
16.20763,54418
16.21698,65595
16.22632,73558
16.23565,79086
16.24500,78257
16.25433,69596
16.26367,58337
16.27302,64152
16.28235,122927
16.29168,312236
16.30103,594509
16.31037,679658
16.31970,457219
16.32905,204514
16.33838,89097
16.34772,53576
16.35707,43938
16.36640,38299
16.37573,37018
16.38508,36907
16.39442,39203
16.40377,39140
16.41310,44307
16.42243,46452
16.43178,47567
16.44112,46873
16.45045,49911
16.45980,60885
16.46913,63205
16.47847,60940
16.48782,55201
16.49715,56379
16.50648,52665
16.51583,52395
16.52517,56121
16.53450,53273
16.54385,50239
16.55318,45370
16.56252,40799
16.57187,40024
16.58120,42198
16.59055,44079
16.59988,43562
16.60922,42879
16.61857,44206
16.62790,50778
16.63723,60452
16.64658,62892
16.65592,59179
16.66525,51907
16.67460,46993
16.68393,46302
16.69327,54341
16.70262,68507
16.71195,66370
16.72128,57391
16.73063,49181
16.73997,55667
16.74930,92257
16.75865,136574
16.76798,124649
16.77733,80780
16.78667,52528
16.79600,43696
16.80535,41994
16.81468,45453
16.82402,51001
16.83337,58907
16.84270,65779
16.85203,59444
16.86138,50615
16.87072,44251
16.88005,41867
16.88940,39453
16.89873,44652
16.90807,51596
16.91742,69740
16.92675,81352
16.93608,73215
16.94543,62583
16.95477,67813
16.96412,70804
16.97345,68131
16.98278,63081
16.99213,52317
17.00147,43904
17.01080,41041
17.02015,50919
17.02948,77613
17.03882,118138
17.04817,129661
17.05750,95864
17.06683,61896
17.07618,54277
17.08552,50483
17.09485,47849
17.10420,49294
17.11353,45493
17.12288,45673
17.13222,46454
17.14155,52517
17.15090,52422
17.16023,48440
17.16957,43850
17.17892,43604
17.18825,43664
17.19758,43154
17.20693,41650
17.21627,42850
17.22560,40698
17.23495,40138
17.24428,40798
17.25362,40107
17.26297,41784
17.27230,45608
17.28163,53223
17.29098,58300
17.30032,56835
17.30967,54583
17.31900,49970
17.32833,53766
17.33768,55244
17.34702,50635
17.35635,46218
17.36570,45686
17.37503,60555
17.38437,120644
17.39372,192721
17.40305,201605
17.41238,152151
17.42173,119432
17.43107,100399
17.44040,76050
17.44975,64273
17.45908,56400
17.46842,55893
17.47777,52533
17.48710,70666
17.49645,223544
17.50578,937697
17.51512,2320174
17.52447,3183987
17.53380,2144133
17.54313,739917
17.55248,164918
17.56182,66688
17.57115,56872
17.58050,63433
17.58983,68375
17.59917,64840
17.60852,56433
17.61785,47782
17.62718,47414
17.63653,49780
17.64587,51261
17.65520,53150
17.66455,59655
17.67388,67891
17.68323,69105
17.69257,71189
17.70190,77131
17.71125,82685
17.72058,87339
17.72992,89337
17.73927,78586
17.74860,64955
17.75793,63141
17.76728,69408
17.77662,75436
17.78595,73288
17.79530,64013
17.80463,57206
17.81397,51781
17.82332,50478
17.83265,49083
17.84200,51063
17.85133,53489
17.86067,63843
17.87002,76315
17.87935,76314
17.88868,69833
17.89803,62226
17.90737,54944
17.91670,47617
17.92605,45579
17.93538,48269
17.94472,48787
17.95407,47357
17.96340,49157
17.97273,52365
17.98208,54335
17.99142,48383
18.00075,48195
18.01010,48269
18.01943,46970
18.02878,47108
18.03812,49627
18.04745,59778
18.05680,71296
18.06613,79091
18.07547,71366
18.08482,54005
18.09415,45097
18.10348,42884
18.11283,44605
18.12217,48050
18.13150,49135
18.14085,53866
18.15018,50916
18.15952,50588
18.16887,52454
18.17820,50857
18.18753,47297
18.19688,44050
18.20622,41374
18.21557,41833
18.22490,44782
18.23423,45898
18.24358,44798
18.25292,43070
18.26225,43269
18.27160,46175
18.28093,53676
18.29027,56195
18.29962,59627
18.30895,63011
18.31828,63559
18.32763,61543
18.33697,58193
18.34630,65753
18.35565,74381
18.36498,80349
18.37432,74210
18.38367,64490
18.39300,61853
18.40235,56609
18.41168,56283
18.42102,55825
18.43037,53642
18.43970,55715
18.44903,65614
18.45838,67709
18.46772,59192
18.47705,50009
18.48640,49180
18.49573,61917
18.50507,77842
18.51442,95165
18.52375,101299
18.53308,85292
18.54243,67230
18.55177,57245
18.56110,60099
18.57045,56334
18.57978,54164
18.58913,49263
18.59847,50452
18.60780,57493
18.61715,64273
18.62648,64244
18.63582,63678
18.64517,64832
18.65450,59103
18.66383,54230
18.67318,50519
18.68252,50613
18.69185,49388
18.70120,51861
18.71053,56469
18.71987,58947
18.72922,60700
18.73855,60342
18.74788,56375
18.75723,50845
18.76657,47631
18.77592,43956
18.78525,39875
18.79458,41170
18.80393,43365
18.81327,42500
18.82260,43546
18.83195,41500
18.84128,44978
18.85062,42251
18.85997,42851
18.86930,41155
18.87863,39525
18.88798,40783
18.89732,41738
18.90665,47487
18.91600,59973
18.92533,66506
18.93468,60439
18.94402,57721
18.95335,60577
18.96270,69921
18.97203,67564
18.98137,60392
18.99072,56481
19.00005,50350
19.00938,49275
19.01873,48895
19.02807,50119
19.03740,53155
19.04675,64926
19.05608,94563
19.06542,132871
19.07477,213906
19.08410,350794
19.09343,405837
19.10278,295973
19.11212,147015
19.12147,76744
19.13080,51486
19.14013,43641
19.14948,39862
19.15882,40856
19.16815,39365
19.17750,40435
19.18683,42122
19.19617,48232
19.20552,50572
19.21485,56234
19.22418,56256
19.23353,54752
19.24287,51198
19.25220,45292
19.26155,45043
19.27088,44425
19.28022,45410
19.28957,48861
19.29890,59987
19.30825,75241
19.31758,100021
19.32692,103952
19.33627,82956
19.34560,61640
19.35493,51389
19.36428,44062
19.37362,41387
19.38295,41205
19.39230,41113
19.40163,45810
19.41097,50281
19.42032,49587
19.42965,46767
19.43898,42747
19.44833,38699
19.45767,40938
19.46700,40225
19.47635,44199
19.48568,47328
19.49503,51562
19.50437,49097
19.51370,46824
19.52305,43708
19.53238,44749
19.54172,45125
19.55107,44856
19.56040,41165
19.56973,42468
19.57908,47409
19.58842,51448
19.59775,50514
19.60710,48503
19.61643,47037
19.62577,48196
19.63512,50879
19.64445,56203
19.65380,56710
19.66313,50481
19.67247,45051
19.68182,43028
19.69115,45272
19.70048,46687
19.70983,48091
19.71917,56342
19.72850,70594
19.73785,82723
19.74718,83245
19.75652,68236
19.76587,53341
19.77520,51462
19.78453,54029
19.79388,52752
19.80322,51105
19.81255,46985
19.82190,43848
19.83123,44601
19.84058,43207
19.84992,42240
19.85925,41044
19.86860,48178
19.87793,64952
19.88727,80091
19.89662,71543
19.90595,52731
19.91528,45644
19.92463,45406
19.93397,44508
19.94330,42977
19.95265,42164
19.96198,43435
19.97132,45047
19.98067,43327
19.99000,41886
19.99933,37304
20.00868,38202
20.01802,43258
20.02737,44543
20.03670,46741
20.04603,48689
20.05538,49908
20.06472,46719
20.07405,45333
20.08340,48339
20.09273,47279
20.10207,44378
20.11142,42218
20.12075,37000
20.13008,36471
20.13943,37738
20.14877,44805
20.15810,54717
20.16745,55866
20.17678,53236
20.18612,46829
20.19547,40147
20.20480,40206
20.21415,41187
20.22348,42421
20.23282,44159
20.24217,51285
20.25150,64710
20.26083,73724
20.27018,57689
20.27952,46171
20.28885,43553
20.29820,43187
20.30753,40479
20.31687,38032
20.32622,35541
20.33555,34507
20.34488,35718
20.35423,36432
20.36357,40623
20.37290,39484
20.38225,40078
20.39158,36547
20.40093,38469
20.41027,37365
20.41960,36273
20.42895,36314
20.43828,38011
20.44762,38914
20.45697,39399
20.46630,42648
20.47563,49323
20.48498,54117
20.49432,46785
20.50365,40699
20.51300,40756
20.52233,40576
20.53167,38608
20.54102,39837
20.55035,41020
20.55970,51621
20.56903,99495
20.57837,218796
20.58772,310775
20.59705,241832
20.60638,122134
20.61573,63309
20.62507,47855
20.63440,47202
20.64375,51928
20.65308,53039
20.66242,50214
20.67177,48908
20.68110,46881
20.69043,46928
20.69978,47875
20.70912,44887
20.71845,46972
20.72780,46056
20.73713,45410
20.74648,45054
20.75582,45285
20.76515,42943
20.77450,40567
20.78383,40642
20.79317,42157
20.80252,44168
20.81185,49749
20.82118,47124
20.83053,42323
20.83987,39970
20.84920,39240
20.85855,40084
20.86788,37095
20.87722,38673
20.88657,39051
20.89590,40752
20.90523,43900
20.91458,43686
20.92392,43064
20.93327,39976
20.94260,38742
20.95193,38446
20.96128,38352
20.97062,38668
20.97995,37797
20.98930,37843
20.99863,37575
21.00797,38933
21.01732,39130
21.02665,39028
21.03598,36469
21.04533,37478
21.05467,38054
21.06400,39458
21.07335,39444
21.08268,40909
21.09202,38916
21.10137,39546
21.11070,41530
21.12005,43705
21.12938,44404
21.13872,43188
21.14807,41619
21.15740,41691
21.16673,40853
21.17608,45230
21.18542,51303
21.19475,56328
21.20410,53838
21.21343,47306
21.22277,44768
21.23212,44502
21.24145,44122
21.25078,41484
21.26013,41426
21.26947,46042
21.27882,48351
21.28815,54789
21.29748,56582
21.30683,50862
21.31617,47966
21.32550,44907
21.33485,42716
21.34418,42037
21.35352,41971
21.36287,42515
21.37220,40036
21.38153,39970
21.39088,39773
21.40022,41825
21.40955,43726
21.41890,47263
21.42823,45677
21.43757,43803
21.44692,43705
21.45625,42764
21.46560,41565
21.47493,43793
21.48427,47294
21.49362,54391
21.50295,72727
21.51228,96342
21.52163,98104
21.53097,70455
21.54030,52309
21.54965,45637
21.55898,55763
21.56832,77527
21.57767,110666
21.58700,121466
21.59633,98682
21.60568,68834
21.61502,60035
21.62435,53763
21.63370,53099
21.64303,48490
21.65238,46708
21.66172,45011
21.67105,46109
21.68040,49681
21.68973,51597
21.69907,52701
21.70842,56092
21.71775,76047
21.72708,110659
21.73643,144986
21.74577,131062
21.75510,94686
21.76445,73066
21.77378,64639
21.78312,59529
21.79247,52701
21.80180,49489
21.81113,53872
21.82048,70081
21.82982,78000
21.83917,73998
21.84850,59375
21.85783,51262
21.86718,46691
21.87652,48728
21.88585,55447
21.89520,61309
21.90453,57683
21.91387,57143
21.92322,50640
21.93255,46252
21.94188,44068
21.95123,43958
21.96057,45849
21.96990,49874
21.97925,55315
21.98858,61621
21.99792,69532
22.00727,63980
22.01660,54865
22.02595,48931
22.03528,47707
22.04462,52054
22.05397,51575
22.06330,52163
22.07263,50457
22.08198,54793
22.09132,55947
22.10065,58861
22.11000,55052
22.11933,54422
22.12867,50760
22.13802,48986
22.14735,50759
22.15668,58939
22.16603,73538
22.17537,78377
22.18470,75205
22.19405,63359
22.20338,54093
22.21273,51468
22.22207,55147
22.23140,53819
22.24075,55365
22.25008,51895
22.25942,49997
22.26877,49743
22.27810,50379
22.28743,60513
22.29678,66756
22.30612,65744
22.31545,65109
22.32480,60684
22.33413,56458
22.34347,53911
22.35282,52894
22.36215,54865
22.37150,56086
22.38083,53556
22.39017,52519
22.39952,50308
22.40885,47260
22.41818,45694
22.42753,46649
22.43687,47908
22.44620,49565
22.45555,52046
22.46488,49510
22.47422,50493
22.48357,48759
22.49290,49563
22.50223,54494
22.51158,67881
22.52092,83806
22.53025,84494
22.53960,72253
22.54893,63353
22.55828,66826
22.56762,73636
22.57695,79879
22.58630,84606
22.59563,86432
22.60497,82380
22.61432,77472
22.62365,70478
22.63298,61737
22.64233,59455
22.65167,58083
22.66100,52315
22.67035,50298
22.67968,52014
22.68902,58073
22.69837,59565
22.70770,60976
22.71703,56064
22.72638,54714
22.73572,55697
22.74507,61097
22.75440,63870
22.76373,64424
22.77308,60406
22.78242,56902
22.79175,55692
22.80110,55044
22.81043,54413
22.81977,55624
22.82912,55759
22.83845,59501
22.84778,60833
22.85713,61822
22.86647,58059
22.87580,59856
22.88515,64273
22.89448,67390
22.90382,66767
22.91317,66258
22.92250,62668
22.93185,59166
22.94118,56285
22.95052,53642
22.95987,52206
22.96920,51896
22.97853,53571
22.98788,51617
22.99722,51021
23.00655,48841
23.01590,49597
23.02523,47182
23.03457,46238
23.04392,50515
23.05325,49148
23.06258,47475
23.07193,48414
23.08127,49341
23.09062,51984
23.09995,50257
23.10928,48256
23.11863,46826
23.12797,45329
23.13730,45522
23.14665,49454
23.15598,51259
23.16532,57744
23.17467,60554
23.18400,60362
23.19333,58308
23.20268,55850
23.21202,54995
23.22135,52621
23.23070,54045
23.24003,51592
23.24937,50079
23.25872,53605
23.26805,56642
23.27740,54019
23.28673,52614
23.29607,52885
23.30542,50120
23.31475,50128
23.32408,53162
23.33343,64324
23.34277,75155
23.35210,73130
23.36145,61250
23.37078,51593
23.38012,48813
23.38947,46676
23.39880,49555
23.40813,51925
23.41748,49095
23.42682,47788
23.43615,47311
23.44550,50497
23.45483,50294
23.46418,51256
23.47352,51145
23.48285,50808
23.49220,47836
23.50153,45429
23.51087,46373
23.52022,46455
23.52955,47599
23.53888,51407
23.54823,56305
23.55757,54061
23.56690,52190
23.57625,49075
23.58558,48869
23.59492,47475
23.60427,48675
23.61360,44306
23.62293,43747
23.63228,43061
23.64162,42902
23.65097,42075
23.66030,42827
23.66963,44063
23.67898,47365
23.68832,49948
23.69765,50618
23.70700,48713
23.71633,50732
23.72567,52087
23.73502,53568
23.74435,56955
23.75368,49953
23.76303,44516
23.77237,44575
23.78170,44452
23.79105,45057
23.80038,44158
23.80972,44063
23.81907,46505
23.82840,44610
23.83775,43172
23.84708,44629
23.85642,44547
23.86577,45053
23.87510,44898
23.88443,45474
23.89378,46468
23.90312,47510
23.91245,47238
23.92180,45022
23.93113,45202
23.94047,45285
23.94982,42737
23.95915,45026
23.96848,42397
23.97783,44761
23.98717,42449
23.99652,44156
24.00585,45099
24.01518,45066
24.02453,44923
24.03387,41762
24.04320,42564
24.05255,39458
24.06188,41720
24.07122,42629
24.08057,42423
24.08990,45085
24.09923,44121
24.10858,42271
24.11792,42450
24.12725,41612
24.13660,41002
24.14593,41899
24.15527,43015
24.16462,42704
24.17395,44439
24.18330,41063
24.19263,41296
24.20197,41277
24.21132,42063
24.22065,42298
24.22998,44157
24.23933,48370
24.24867,47529
24.25800,47862
24.26735,45102
24.27668,45052
24.28602,43104
24.29537,44454
24.30470,44420
24.31403,46914
24.32338,50717
24.33272,49704
24.34205,46513
24.35140,45406
24.36073,45790
24.37008,41239
24.37942,45760
24.38875,44375
24.39810,45388
24.40743,45446
24.41677,46728
24.42612,47375
24.43545,42560
24.44478,43139
24.45413,44098
24.46347,41109
24.47280,42449
24.48215,44262
24.49148,43122
24.50082,44603
24.51017,44075
24.51950,43145
24.52883,44700
24.53818,44484
24.54752,45710
24.55687,47480
24.56620,48527
24.57553,47909
24.58488,44505
24.59422,43383
24.60355,43791
24.61290,45551
24.62223,45469
24.63157,45623
24.64092,45156
24.65025,44678
24.65958,45071
24.66893,45639
24.67827,45476
24.68760,43976
24.69695,43904
24.70628,46362
24.71563,43905
24.72497,45178
24.73430,45310
24.74365,43198
24.75298,44112
24.76232,44496
24.77167,43420
24.78100,44057
24.79033,42515
24.79968,43238
24.80902,41793
24.81835,44026
24.82770,43275
24.83703,44064
24.84637,43047
24.85572,42497
24.86505,44353
24.87438,43876
24.88373,42718
24.89307,45245
24.90242,44957
24.91175,45209
24.92108,42702
24.93043,44819
24.93977,43821
24.94910,43816
24.95845,44754
24.96778,45174
24.97712,47848
24.98647,45420
24.99580,43243
25.00513,43980
25.01448,44620
25.02382,45424
25.03315,42404
25.04250,43495
25.05183,42631
25.06117,45116
25.07052,45022
25.07985,42888
25.08920,41864
25.09853,43858
25.10787,44013
25.11722,45502
25.12655,45285
25.13588,43980
25.14523,46896
25.15457,47987
25.16390,49463
25.17325,48544
25.18258,47782
25.19192,45843
25.20127,46448
25.21060,45071
25.21993,46350
25.22928,45622
25.23862,44629
25.24795,44364
25.25730,43618
25.26663,44136
25.27598,43489
25.28532,44087
25.29465,45292
25.30400,46657
25.31333,48601
25.32267,69853
25.33202,95360
25.34135,112670
25.35068,97696
25.36003,77290
25.36937,57464
25.37870,56307
25.38805,53932
25.39738,51011
25.40672,52085
25.41607,50446
25.42540,51269
25.43473,49466
25.44408,48649
25.45342,50288
25.46277,47774
25.47210,49748
25.48143,48739
25.49078,54697
25.50012,57211
25.50945,54272
25.51880,53889
25.52813,49528
25.53747,52618
25.54682,50115
25.55615,49861
25.56548,51139
25.57483,48196
25.58417,47718
25.59350,48959
25.60285,48071
25.61218,48092
25.62152,47202
25.63087,49881
25.64020,47932
25.64955,47624
25.65888,52373
25.66822,54382
25.67757,49817
25.68690,48090
25.69623,47654
25.70558,47888
25.71492,48072
25.72425,47298
25.73360,47020
25.74293,47524
25.75227,48197
25.76162,46920
25.77095,47816
25.78028,46200
25.78963,48331
25.79897,47610
25.80832,52843
25.81765,53245
25.82698,50623
25.83633,50861
25.84567,48225
25.85500,47349
25.86435,47640
25.87368,47603
25.88302,48115
25.89237,46274
25.90170,45095
25.91103,46221
25.92038,45787
25.92972,47938
25.93905,46710
25.94840,48100
25.95773,47915
25.96707,48996
25.97642,44639
25.98575,46543
25.99510,48176
26.00443,48784
26.01377,47604
26.02312,44675
26.03245,47779
26.04178,44942
26.05113,47609
26.06047,45762
26.06980,46011
26.07915,46802
26.08848,46791
26.09782,47929
26.10717,47631
26.11650,45974
26.12583,47489
26.13518,49290
26.14452,50933
26.15385,51430
26.16320,51443
26.17253,51600
26.18188,49247
26.19122,47954
26.20055,45303
26.20990,46784
26.21923,45673
26.22857,47747
26.23792,45310
26.24725,48993
26.25658,47432
26.26593,46806
26.27527,46613
26.28460,46708
26.29395,45946
26.30328,46398
26.31262,48744
26.32197,49032
26.33130,48746
26.34063,49032
26.34998,46672
26.35932,46836
26.36867,47538
26.37800,45750
26.38733,46062
26.39668,45978
26.40602,47069
26.41535,45045
26.42470,46637
26.43403,46727
26.44337,47446
26.45272,47652
26.46205,47963
26.47138,48032
26.48073,47879
26.49007,45971
26.49940,47519
26.50875,47459
26.51808,48644
26.52743,48846
26.53677,51054
26.54610,50899
26.55545,49860
26.56478,50643
26.57412,48955
26.58347,51070
26.59280,49527
26.60213,49966
26.61148,47673
26.62082,47292
26.63015,48751
26.63950,47689
26.64883,48026
26.65817,45309
26.66752,47616
26.67685,48406
26.68618,48756
26.69553,48107
26.70487,47697
26.71422,47196
26.72355,45790
26.73288,46505
26.74223,49880
26.75157,48207
26.76090,49321
26.77025,49874
26.77958,51248
26.78892,50448
26.79827,49477
26.80760,50786
26.81693,51088
26.82628,52637
26.83562,51562
26.84495,54099
26.85430,54052
26.86363,52338
26.87297,51470
26.88232,51900
26.89165,50455
26.90100,50203
26.91033,50036
26.91967,51580
26.92902,50840
26.93835,48222
26.94768,50586
26.95703,49065
26.96637,49014
26.97570,50055
26.98505,48744
26.99438,50087
27.00372,48346
27.01307,50622
27.02240,49235
27.03173,50647
27.04108,50589
27.05042,49606
27.05975,48365
27.06910,52130
27.07843,50881
27.08778,48964
27.09712,52414
27.10645,49430
27.11580,50214
27.12513,50465
27.13447,48566
27.14382,50586
27.15315,50694
27.16248,50116
27.17183,51288
27.18117,52896
27.19050,49116
27.19985,49962
27.20918,51776
27.21852,51807
27.22787,52085
27.23720,52654
27.24653,55467
27.25588,57442
27.26522,59039
27.27457,62454
27.28390,59471
27.29323,57897
27.30258,55354
27.31192,53259
27.32125,54578
27.33060,57131
27.33993,55576
27.34927,55002
27.35862,53396
27.36795,52923
27.37728,52378
27.38663,51234
27.39597,53738
27.40530,54112
27.41465,53110
27.42398,53413
27.43333,52239
27.44267,54285
27.45200,53684
27.46135,53001
27.47068,51175
27.48002,54488
27.48937,52363
27.49870,53353
27.50803,56275
27.51738,57412
27.52672,57559
27.53605,59606
27.54540,58429
27.55473,55638
27.56407,57189
27.57342,56838
27.58275,57116
27.59208,54486
27.60143,56535
27.61077,52892
27.62012,52945
27.62945,53018
27.63878,51797
27.64813,52487
27.65747,53073
27.66680,56846
27.67615,67994
27.68548,77207
27.69482,79047
27.70417,69556
27.71350,62518
27.72283,58136
27.73218,56630
27.74152,56281
27.75085,55708
27.76020,53057
27.76953,51370
27.77887,53936
27.78822,53773
27.79755,54667
27.80690,52451
27.81623,52035
27.82557,51704
27.83492,51205
27.84425,53594
27.85358,53473
27.86293,54622
27.87227,53089
27.88160,52154
27.89095,50282
27.90028,52062
27.90962,54358
27.91897,51763
27.92830,54586
27.93763,57035
27.94698,54592
27.95632,53081
27.96565,52644
27.97500,53564
27.98433,52094
27.99368,52838
28.00302,52627
28.01235,50923
28.02170,52359
28.03103,52296
28.04037,53605
28.04972,49999
28.05905,52521
28.06838,53918
28.07773,52378
28.08707,52670
28.09640,56174
28.10575,55712
28.11508,57391
28.12442,58584
28.13377,58081
28.14310,58672
28.15245,58736
28.16178,54987
28.17112,55081
28.18047,54254
28.18980,55014
28.19913,54039
28.20848,56033
28.21782,54762
28.22715,56490
28.23650,55863
28.24583,53154
28.25517,53756
28.26452,55405
28.27385,55809
28.28318,53823
28.29253,55975
28.30187,55152
28.31120,56709
28.32055,56182
28.32988,54641
28.33923,54049
28.34857,54521
28.35790,53881
28.36725,53240
28.37658,55843
28.38592,53885
28.39527,54802
28.40460,53312
28.41393,54947
28.42328,53712
28.43262,54937
28.44195,54382
28.45130,55404
28.46063,55510
28.46997,56221
28.47932,56280
28.48865,56494
28.49798,56020
28.50733,55810
28.51667,55974
28.52602,59815
28.53535,57440
28.54468,57770
28.55403,58299
28.56337,59224
28.57270,57629
28.58205,58397
28.59138,57749
28.60072,58099
28.61007,58066
28.61940,57654
28.62873,56717
28.63808,57397
28.64742,57212
28.65675,57412
28.66610,64688
28.67543,80973
28.68477,98805
28.69412,109521
28.70345,101319
28.71280,82920
28.72213,72066
28.73147,66466
28.74082,66168
28.75015,66010
28.75948,63545
28.76883,62818
28.77817,64000
28.78750,62313
28.79685,61901
28.80618,61011
28.81552,60795
28.82487,62206
28.83420,61490
28.84353,62393
28.85288,61050
28.86222,61828
28.87155,60723
28.88090,58561
28.89023,60956
28.89958,60329
28.90892,59668
28.91825,59052
28.92760,59495
28.93693,60211
28.94627,61553
28.95562,62908
28.96495,62457
28.97428,59500
28.98363,60823
28.99297,60724
29.00230,62634
29.01165,60541
29.02098,62027
29.03032,62809
29.03967,62780
29.04900,64165
29.05833,61514
29.06768,60122
29.07702,63715
29.08637,64221
29.09570,61795
29.10503,65080
29.11438,64647
29.12372,63246
29.13305,63005
29.14240,63276
29.15173,60346
29.16107,63498
29.17042,62900
29.17975,62345
29.18908,61320
29.19843,65364
29.20777,66746
29.21710,70690
29.22645,68217
29.23578,66445
29.24513,64768
29.25447,64519
29.26380,65429
29.27315,64874
29.28248,64024
29.29182,65939
29.30117,64876
29.31050,64018
29.31983,63745
29.32918,64466
29.33852,66255
29.34785,64147
29.35720,64888
29.36653,66310
29.37587,64058
29.38522,65204
29.39455,66654
29.40388,64986
29.41323,63572
29.42257,65826
29.43192,66078
29.44125,68619
29.45058,69026
29.45993,69606
29.46927,71132
29.47860,73445
29.48795,72002
29.49728,71572
29.50662,67034
29.51597,68906
29.52530,63986
29.53463,67133
29.54398,68665
29.55332,67117
29.56265,64293
29.57200,64498
29.58133,63653
29.59067,63457
29.60002,65810
29.60935,66822
29.61870,65177
29.62803,66944
29.63737,66324
29.64672,64906
29.65605,65542
29.66538,66358
29.67473,65783
29.68407,63831
29.69340,64126
29.70275,65565
29.71208,67759
29.72142,66413
29.73077,67147
29.74010,69097
29.74943,65751
29.75878,67052
29.76812,65916
29.77745,65830
29.78680,67265
29.79613,64442
29.80548,66058
29.81482,66229
29.82415,66777
29.83350,64397
29.84283,63886
29.85217,63766
29.86152,64496
29.87085,65849
29.88018,65305
29.88953,64602
29.89887,65618
29.90820,64629
29.91755,65984
29.92688,69080
29.93622,65512
29.94557,66908
29.95490,68430
29.96425,68840
29.97358,68973
29.98292,69407
29.99227,76014
30.00160,75611
30.01093,75719
30.02028,73369
30.02962,68365
30.03895,69473
30.04830,67848
30.05763,67474
30.06697,67040
30.07632,67601
30.08565,68336
30.09498,68104
30.10433,68854
30.11367,69609
30.12300,67850
30.13235,70634
30.14168,73819
30.15103,73144
30.16037,71934
30.16970,73235
30.17905,74258
30.18838,73026
30.19772,71835
30.20707,74108
30.21640,69608
30.22573,70871
30.23508,68507
30.24442,68628
30.25375,69342
30.26310,68854
30.27243,68553
30.28177,67525
30.29112,68031
30.30045,68495
30.30978,68447
30.31913,68167
30.32847,68716
30.33782,69477
30.34715,68646
30.35648,67490
30.36583,71708
30.37517,71322
30.38450,72861
30.39385,76174
30.40318,74498
30.41252,78167
30.42187,76987
30.43120,73876
30.44053,71117
30.44988,72168
30.45922,72411
30.46855,69910
30.47790,70848
30.48723,72124
30.49657,69391
30.50592,69255
30.51525,70091
30.52460,68392
30.53393,70418
30.54327,70194
30.55262,71452
30.56195,69805
30.57128,72085
30.58063,71601
30.58997,71934
30.59930,76105
30.60865,80375
30.61798,80856
30.62732,82208
30.63667,83735
30.64600,85699
30.65533,86331
30.66468,87354
30.67402,85637
30.68335,84475
30.69270,81773
30.70203,81649
30.71138,82393
30.72072,77595
30.73005,73691
30.73940,76362
30.74873,73414
30.75807,74477
30.76742,73414
30.77675,74931
30.78608,76290
30.79543,76669
30.80477,73551
30.81410,79885
30.82345,77469
30.83278,77648
30.84212,77449
30.85147,78243
30.86080,81566
30.87015,79922
30.87948,80124
30.88882,81600
30.89817,79089
30.90750,83032
30.91683,83048
30.92618,81598
30.93552,81668
30.94485,82207
30.95420,83758
30.96353,82249
30.97287,83928
30.98222,80704
30.99155,80414
31.00088,81335
31.01023,81603
31.01957,81796
31.02890,81740
31.03825,83923
31.04758,81525
31.05693,81177
31.06627,80793
31.07560,81338
31.08495,81378
31.09428,79466
31.10362,80159
31.11297,82695
31.12230,82689
31.13163,82614
31.14098,85361
31.15032,79803
31.15965,86760
31.16900,85733
31.17833,82006
31.18767,82921
31.19702,84422
31.20635,84455
31.21568,82356
31.22503,81911
31.23437,81800
31.24372,81567
31.25305,79553
31.26238,78614
31.27173,79977
31.28107,79018
31.29040,79572
31.29975,80725
31.30908,79171
31.31842,80974
31.32777,82262
31.33710,80851
31.34643,80757
31.35578,81569
31.36512,81666
