D:\数据\20211216\ZS1E-TJ-000227.D Thu Dec 16 21:57:10 2021
Start of data points
0.09740,26645
0.10673,28229
0.11608,27891
0.12542,28644
0.13475,28290
0.14410,28573
0.15343,29520
0.16277,28169
0.17212,28779
0.18145,29778
0.19080,27245
0.20013,28821
0.20947,28420
0.21882,27781
0.22815,28667
0.23748,28514
0.24683,28329
0.25617,27125
0.26550,27775
0.27485,27573
0.28418,29612
0.29352,27989
0.30287,28344
0.31220,26517
0.32153,27235
0.33088,27481
0.34022,26318
0.34955,28402
0.35890,27516
0.36823,28757
0.37758,27468
0.38692,27225
0.39625,26880
0.40560,28721
0.41493,27511
0.42427,26632
0.43362,27441
0.44295,27490
0.45228,22798
0.46163,19981
0.47097,18413
0.48030,13691
0.48965,7899
0.49898,5797
0.50832,7361
0.51767,5965
0.52700,6069
0.53633,5885
0.54568,5321
0.55502,5462
0.56437,5550
0.57370,5986
0.58303,5624
0.59238,5925
0.60172,5488
0.61105,5221
0.62040,5244
0.62973,5506
0.63907,4858
0.64842,5457
0.65775,5483
0.66708,5613
0.67643,5138
0.68577,4995
0.69510,5418
0.70445,5125
0.71378,4427
0.72312,5130
0.73247,4856
0.74180,4910
0.75115,4871
0.76048,4920
0.76982,5101
0.77917,5083
0.78850,4663
0.79783,4811
0.80718,5502
0.81652,5167
0.82585,4579
0.83520,4759
0.84453,4651
0.85387,4438
0.86322,4952
0.87255,5331
0.88188,4541
0.89123,5026
0.90057,5247
0.90990,4500
0.91925,5022
0.92858,4173
0.93793,4540
0.94727,4822
0.95660,4691
0.96595,4057
0.97528,4466
0.98462,4805
0.99397,5031
1.00330,4036
1.01263,4664
1.02198,4547
1.03132,4525
1.04065,4846
1.05000,4178
1.05933,5134
1.06867,4499
1.07802,4142
1.08735,4737
1.09670,4509
1.10603,4922
1.11537,4454
1.12472,4511
1.13405,3837
1.14338,4727
1.15273,4810
1.16207,4491
1.17140,3984
1.18075,4371
1.19008,4511
1.19942,3954
1.20877,4625
1.21810,4661
1.22743,4565
1.23678,4125
1.24612,4336
1.25545,4766
1.26480,4797
1.27413,4257
1.28348,5117
1.29282,3980
1.30215,4763
1.31150,4866
1.32083,3937
1.33017,4308
1.33952,4432
1.34885,5488
1.35818,4470
1.36753,4772
1.37687,5036
1.38620,4271
1.39555,4674
1.40488,4857
1.41422,4105
1.42357,4522
1.43290,4334
1.44223,4236
1.45158,4218
1.46092,4346
1.47027,4943
1.47960,4306
1.48893,3937
1.49828,3852
1.50762,4242
1.51695,4309
1.52630,4063
1.53563,4204
1.54497,4065
1.55432,4278
1.56365,4803
1.57298,4405
1.58233,4060
1.59167,3881
1.60100,4405
1.61035,5990
1.61968,11517
1.62902,19520
1.63837,26958
1.64770,29408
1.65705,40734
1.66638,50945
1.67572,55116
1.68507,52881
1.69440,47096
1.70373,36109
1.71308,25536
1.72242,21362
1.73175,21907
1.74110,24409
1.75043,25689
1.75977,28289
1.76912,31677
1.77845,36981
1.78778,38678
1.79713,39223
1.80647,39070
1.81582,39740
1.82515,40279
1.83448,39962
1.84383,36411
1.85317,35438
1.86250,37738
1.87185,41448
1.88118,55411
1.89052,86078
1.89987,127479
1.90920,166247
1.91853,213890
1.92788,364965
1.93722,694706
1.94655,1172232
1.95590,1519078
1.96523,1509688
1.97457,1252173
1.98392,937412
1.99325,686455
2.00260,560648
2.01193,511827
2.02127,500776
2.03062,448837
2.03995,344006
2.04928,240018
2.05863,173983
2.06797,134081
2.07730,103326
2.08665,83146
2.09598,73257
2.10532,67383
2.11467,65991
2.12400,68759
2.13333,77214
2.14268,98031
2.15202,110306
2.16135,102656
2.17070,91876
2.18003,94913
2.18938,184211
2.19872,327347
2.20805,294724
2.21740,176725
2.22673,121473
2.23607,137333
2.24542,194263
2.25475,579511
2.26408,2216912
2.27343,3135841
2.28277,2551486
2.29210,1650444
2.30145,1186042
2.31078,3387100
2.32012,1.176434E+07
2.32947,1.61012E+07
2.33880,1.129517E+07
2.34813,5369302
2.35748,2266044
2.36682,1002476
2.37617,554071
2.38550,426170
2.39483,325256
2.40418,244687
2.41352,197436
2.42285,179089
2.43220,182631
2.44153,170617
2.45087,140884
2.46022,119064
2.46955,139328
2.47888,189470
2.48823,190485
2.49757,151113
2.50690,115276
2.51625,96268
2.52558,87728
2.53492,80318
2.54427,80751
2.55360,82074
2.56295,100444
2.57228,929931
2.58162,1046501
2.59097,793161
2.60030,553761
2.60963,396561
2.61898,358945
2.62832,359278
2.63765,292841
2.64700,223857
2.65633,180555
2.66567,162482
2.67502,136011
2.68435,111297
2.69368,89127
2.70303,77885
2.71237,81956
2.72170,126638
2.73105,183778
2.74038,204716
2.74973,203158
2.75907,223216
2.76840,264791
2.77775,332576
2.78708,426008
2.79642,393500
2.80577,277912
2.81510,215904
2.82443,192344
2.83378,173933
2.84312,152806
2.85245,174997
2.86180,243051
2.87113,276936
2.88047,310584
2.88982,253347
2.89915,187409
2.90850,146254
2.91783,133191
2.92717,122149
2.93652,101453
2.94585,87880
2.95518,79537
2.96453,73043
2.97387,66216
2.98320,64322
2.99255,66292
3.00188,75050
3.01122,86449
3.02057,87182
3.02990,79255
3.03923,97205
3.04858,169670
3.05792,199910
3.06725,214026
3.07660,212000
3.08593,168747
3.09528,125394
3.10462,88579
3.11395,69625
3.12330,64247
3.13263,60354
3.14197,68450
3.15132,74683
3.16065,86856
3.16998,104092
3.17933,134138
3.18867,117428
3.19800,93816
3.20735,81100
3.21668,72422
3.22602,70337
3.23537,64853
3.24470,60259
3.25403,59632
3.26338,58102
3.27272,54756
3.28207,53352
3.29140,52994
3.30073,55808
3.31008,60699
3.31942,57545
3.32875,53626
3.33810,52609
3.34743,55094
3.35677,54153
3.36612,52987
3.37545,53416
3.38478,49651
3.39413,46987
3.40347,50950
3.41280,57507
3.42215,71834
3.43148,75311
3.44082,72793
3.45017,77022
3.45950,86041
3.46885,83080
3.47818,72002
3.48752,70837
3.49687,66731
3.50620,63706
3.51553,56563
3.52488,54580
3.53422,53114
3.54355,57356
3.55290,88944
3.56223,211545
3.57157,387360
3.58092,440074
3.59025,317903
3.59958,199662
3.60893,150952
3.61827,226031
3.62762,201752
3.63695,163967
3.64628,133641
3.65563,109275
3.66497,89370
3.67430,84933
3.68365,81738
3.69298,75158
3.70232,66461
3.71167,65714
3.72100,85328
3.73033,107166
3.73968,105469
3.74902,80491
3.75835,65265
3.76770,58614
3.77703,54356
3.78637,50955
3.79572,50220
3.80505,51518
3.81440,63977
3.82373,79753
3.83307,82964
3.84242,70883
3.85175,64893
3.86108,60127
3.87043,57364
3.87977,59734
3.88910,65626
3.89845,76323
3.90778,87222
3.91712,85040
3.92647,78721
3.93580,79147
3.94513,92428
3.95448,124672
3.96382,155811
3.97315,142159
3.98250,127037
3.99183,117945
4.00118,143988
4.01052,154787
4.01985,158665
4.02920,171595
4.03853,144273
4.04787,130319
4.05722,129689
4.06655,115916
4.07588,121767
4.08523,154195
4.09457,191980
4.10390,213820
4.11325,208772
4.12258,164211
4.13192,115979
4.14127,83332
4.15060,72991
4.15993,67444
4.16928,64635
4.17862,60678
4.18797,58545
4.19730,54660
4.20663,54349
4.21598,54552
4.22532,55956
4.23465,55298
4.24400,55770
4.25333,54529
4.26267,53273
4.27202,57354
4.28135,62190
4.29068,78953
4.30003,76530
4.30937,71586
4.31870,67299
4.32805,70438
4.33738,69380
4.34672,69709
4.35607,66752
4.36540,60658
4.37475,54477
4.38408,56031
4.39342,62239
4.40277,66386
4.41210,64312
4.42143,55984
4.43078,53426
4.44012,50600
4.44945,48288
4.45880,48541
4.46813,55089
4.47747,73671
4.48682,94305
4.49615,96165
4.50548,80290
4.51483,62009
4.52417,53579
4.53352,52279
4.54285,51583
4.55218,57109
4.56153,56548
4.57087,53699
4.58020,54153
4.58955,51827
4.59888,51015
4.60822,52153
4.61757,51502
4.62690,49338
4.63623,49942
4.64558,50568
4.65492,54856
4.66425,57618
4.67360,59293
4.68293,62331
4.69227,60685
4.70162,57815
4.71095,55482
4.72030,51807
4.72963,47638
4.73897,61285
4.74832,80894
4.75765,73977
4.76698,65323
4.77633,60644
4.78567,58810
4.79500,62883
4.80435,73618
4.81368,71409
4.82302,66444
4.83237,63993
4.84170,60798
4.85103,61723
4.86038,62503
4.86972,85817
4.87905,129908
4.88840,158369
4.89773,128724
4.90708,86635
4.91642,62358
4.92575,53663
4.93510,52111
4.94443,57088
4.95377,58484
4.96312,57195
4.97245,51789
4.98178,47247
4.99113,50171
5.00047,49075
5.00980,53170
5.01915,60745
5.02848,72071
5.03782,87230
5.04717,93547
5.05650,97190
5.06583,96577
5.07518,79666
5.08452,70008
5.09387,68073
5.10320,61412
5.11253,56861
5.12188,53693
5.13122,54833
5.14055,54357
5.14990,60035
5.15923,66453
5.16857,69114
5.17792,63971
5.18725,63251
5.19658,79143
5.20593,86982
5.21527,76906
5.22460,65882
5.23395,57965
5.24328,60382
5.25263,64114
5.26197,62308
5.27130,84122
5.28065,205816
5.28998,470448
5.29932,658626
5.30867,543308
5.31800,293565
5.32733,129107
5.33668,76817
5.34602,63152
5.35535,58871
5.36470,57648
5.37403,63463
5.38337,73661
5.39272,77412
5.40205,74075
5.41138,69229
5.42073,58789
5.43007,52909
5.43942,50128
5.44875,48052
5.45808,46648
5.46743,48822
5.47677,47774
5.48610,48580
5.49545,49130
5.50478,50039
5.51412,53573
5.52347,60813
5.53280,72835
5.54213,79628
5.55148,74454
5.56082,66749
5.57015,66291
5.57950,71859
5.58883,76242
5.59817,81516
5.60752,92034
5.61685,91741
5.62620,71983
5.63553,60223
5.64487,57376
5.65422,54269
5.66355,58870
5.67288,62045
5.68223,79400
5.69157,87566
5.70090,78421
5.71025,70484
5.71958,67620
5.72892,64181
5.73827,59223
5.74760,61990
5.75693,70483
5.76628,74009
5.77562,78545
5.78495,92664
5.79430,87168
5.80363,74698
5.81298,62726
5.82232,55330
5.83165,62950
5.84100,74360
5.85033,76070
5.85967,62134
5.86902,55176
5.87835,49914
5.88768,42083
5.89703,39209
5.90637,39747
5.91570,47925
5.92505,74255
5.93438,94475
5.94372,91655
5.95307,91431
5.96240,103662
5.97173,95620
5.98108,72478
5.99042,56207
5.99977,49521
6.00910,42536
6.01843,39157
6.02778,33079
6.03712,29793
6.04645,28017
6.05580,26372
6.06513,28613
6.07447,32779
6.08382,32251
6.09315,26857
6.10248,25790
6.11183,24813
6.12117,28718
6.13050,38687
6.13985,54503
6.14918,60542
6.15852,48011
6.16787,33061
6.17720,26529
6.18655,24127
6.19588,24587
6.20522,23474
6.21457,23293
6.22390,22625
6.23323,26985
6.24258,30127
6.25192,28864
6.26125,26323
6.27060,26160
6.27993,36944
6.28927,52175
6.29862,48875
6.30795,36520
6.31728,25475
6.32663,20897
6.33597,19063
6.34532,18029
6.35465,19223
6.36398,19089
6.37333,22333
6.38267,26995
6.39200,49518
6.40135,202075
6.41068,775693
6.42002,1614205
6.42937,1775181
6.43870,1106335
6.44803,438388
6.45738,147478
6.46672,58654
6.47605,39897
6.48540,32662
6.49473,29310
6.50407,26076
6.51342,26668
6.52275,26905
6.53210,25536
6.54143,25035
6.55077,23094
6.56012,21195
6.56945,22011
6.57878,19558
6.58813,21765
6.59747,22511
6.60680,23919
6.61615,25019
6.62548,25297
6.63482,28328
6.64417,31547
6.65350,29023
6.66283,31455
6.67218,33153
6.68152,30336
6.69085,26860
6.70020,29219
6.70953,40527
6.71888,53339
6.72822,56515
6.73755,53796
6.74690,45428
6.75623,36366
6.76557,32701
6.77492,31489
6.78425,28744
6.79358,31614
6.80293,36505
6.81227,38973
6.82160,34592
6.83095,28845
6.84028,27796
6.84962,26256
6.85897,27550
6.86830,27492
6.87763,26927
6.88698,23788
6.89632,24208
6.90567,23320
6.91500,26685
6.92433,32851
6.93368,39923
6.94302,45388
6.95235,54384
6.96170,59565
6.97103,49770
6.98037,36706
6.98972,37393
6.99905,32146
7.00838,29313
7.01773,26563
7.02707,27285
7.03640,24149
7.04575,22696
7.05508,19874
7.06443,17874
7.07377,19541
7.08310,20629
7.09245,21156
7.10178,25506
7.11112,28229
7.12047,30278
7.12980,29023
7.13913,25939
7.14848,23743
7.15782,21144
7.16715,20510
7.17650,20961
7.18583,21428
7.19517,21614
7.20452,22585
7.21385,23349
7.22318,28025
7.23253,46963
7.24187,97453
7.25122,144558
7.26055,128686
7.26988,74308
7.27923,43979
7.28857,33159
7.29790,30080
7.30725,27202
7.31658,23727
7.32592,20088
7.33527,20950
7.34460,20326
7.35393,20174
7.36328,21554
7.37262,19942
7.38195,20906
7.39130,32790
7.40063,76917
7.40997,163810
7.41932,235941
7.42865,221933
7.43800,143495
7.44733,76861
7.45667,42367
7.46602,27202
7.47535,22251
7.48468,25168
7.49403,27144
7.50337,29522
7.51270,29633
7.52205,25316
7.53138,21251
7.54072,19146
7.55007,19797
7.55940,21947
7.56873,21018
7.57808,25006
7.58742,26725
7.59675,27537
7.60610,27871
7.61543,28246
7.62478,30920
7.63412,31982
7.64345,28978
7.65280,28547
7.66213,25306
7.67147,24576
7.68082,24072
7.69015,24662
7.69948,26617
7.70883,26923
7.71817,28690
7.72750,28577
7.73685,26911
7.74618,26579
7.75552,30409
7.76487,33476
7.77420,36084
7.78353,34276
7.79288,34340
7.80222,34285
7.81157,33311
7.82090,27600
7.83023,25107
7.83958,25426
7.84892,25907
7.85825,35585
7.86760,59631
7.87693,89199
7.88627,93927
7.89562,71488
7.90495,57433
7.91428,70246
7.92363,114308
7.93297,131798
7.94230,99269
7.95165,60920
7.96098,68794
7.97033,77595
7.97967,68865
7.98900,54286
7.99835,40991
8.00768,33508
8.01702,28946
8.02637,30630
8.03570,32362
8.04503,42700
8.05438,49313
8.06372,44962
8.07305,34358
8.08240,32811
8.09173,57573
8.10107,83121
8.11042,89054
8.11975,70890
8.12908,48941
8.13843,37553
8.14777,32230
8.15712,28692
8.16645,28019
8.17578,26917
8.18513,25345
8.19447,26630
8.20380,26441
8.21315,25518
8.22248,27651
8.23182,26713
8.24117,27759
8.25050,31324
8.25983,33825
8.26918,31588
8.27852,27294
8.28785,25550
8.29720,24842
8.30653,25343
8.31587,24682
8.32522,25466
8.33455,25165
8.34390,25319
8.35323,25448
8.36257,24747
8.37192,22632
8.38125,22593
8.39058,26637
8.39993,35281
8.40927,35927
8.41860,36181
8.42795,36150
8.43728,33862
8.44662,32660
8.45597,33378
8.46530,30574
8.47463,27284
8.48398,28919
8.49332,28531
8.50265,27385
8.51200,26073
8.52133,23994
8.53068,24397
8.54002,26122
8.54935,24560
8.55870,24905
8.56803,26313
8.57737,27250
8.58672,33757
8.59605,37005
8.60538,38079
8.61473,39390
8.62407,37330
8.63340,31608
8.64275,30208
8.65208,27056
8.66142,27568
8.67077,28071
8.68010,28162
8.68945,27519
8.69878,25594
8.70812,25355
8.71747,25028
8.72680,24708
8.73613,23842
8.74548,23657
8.75482,25877
8.76415,26719
8.77350,27190
8.78283,28350
8.79217,30647
8.80152,44157
8.81085,73999
8.82018,99015
8.82953,85513
8.83887,50411
8.84820,31920
8.85755,27896
8.86688,26900
8.87623,27033
8.88557,28056
8.89490,28277
8.90425,28572
8.91358,27529
8.92292,28021
8.93227,29186
8.94160,27508
8.95093,26460
8.96028,23368
8.96962,25892
8.97895,30029
8.98830,38702
8.99763,45674
9.00697,47653
9.01632,41574
9.02565,37712
9.03498,33868
9.04433,32030
9.05367,30928
9.06302,27755
9.07235,30233
9.08168,30505
9.09103,31934
9.10037,31756
9.10970,29381
9.11905,29870
9.12838,33114
9.13772,34958
9.14707,36286
9.15640,35293
9.16573,31151
9.17508,27064
9.18442,26565
9.19375,27334
9.20310,26386
9.21243,35044
9.22177,63023
9.23112,107011
9.24045,114306
9.24980,86323
9.25913,56769
9.26847,43814
9.27782,43001
9.28715,40674
9.29648,39727
9.30583,36873
9.31517,33735
9.32450,33499
9.33385,31866
9.34318,30504
9.35252,36103
9.36187,53720
9.37120,116043
9.38053,200454
9.38988,215189
9.39922,164064
9.40855,105878
9.41790,70136
9.42723,56339
9.43658,53294
9.44592,46655
9.45525,38226
9.46460,31771
9.47393,29899
9.48327,29621
9.49262,29528
9.50195,30950
9.51128,30820
9.52063,30502
9.52997,31920
9.53930,39075
9.54865,44659
9.55798,46788
9.56732,55722
9.57667,60276
9.58600,59115
9.59535,48518
9.60468,38661
9.61402,30968
9.62337,32181
9.63270,34062
9.64203,34129
9.65138,34838
9.66072,35213
9.67005,34725
9.67940,32722
9.68873,29974
9.69807,29060
9.70742,27097
9.71675,34722
9.72608,118700
9.73543,645610
9.74477,1980933
9.75410,3158738
9.76345,2727776
9.77278,1432729
9.78213,546731
9.79147,257340
9.80080,169998
9.81015,130066
9.81948,105196
9.82882,95776
9.83817,91812
9.84750,88141
9.85683,76518
9.86618,68632
9.87552,64449
9.88485,68679
9.89420,78680
9.90353,85398
9.91287,77007
9.92222,69662
9.93155,73071
9.94088,69128
9.95023,61374
9.95957,51555
9.96892,47491
9.97825,54357
9.98758,80182
9.99693,111773
10.00627,115391
10.01560,90006
10.02495,65346
10.03428,50197
10.04362,43082
10.05297,41315
10.06230,45191
10.07163,60249
10.08098,72480
10.09032,71426
10.09965,60895
10.10900,58384
10.11833,119681
10.12767,328691
10.13702,555511
10.14635,514930
10.15570,293868
10.16503,206299
10.17437,226277
10.18372,180441
10.19305,92500
10.20238,47305
10.21173,37349
10.22107,36294
10.23040,39105
10.23975,51435
10.24908,77718
10.25842,86636
10.26777,74267
10.27710,48072
10.28643,40261
10.29578,35618
10.30512,34753
10.31447,32793
10.32380,32880
10.33313,33304
10.34248,31967
10.35182,32012
10.36115,33699
10.37050,35214
10.37983,34830
10.38917,32054
10.39852,31439
10.40785,31156
10.41718,31249
10.42653,31662
10.43587,32004
10.44520,32930
10.45455,35222
10.46388,42545
10.47322,48227
10.48257,48193
10.49190,44642
10.50125,37777
10.51058,32278
10.51992,29500
10.52927,30353
10.53860,30082
10.54793,30168
10.55728,30327
10.56662,31731
10.57595,31886
10.58530,32780
10.59463,33893
10.60397,35387
10.61332,32430
10.62265,32408
10.63198,33804
10.64133,39032
10.65067,40087
10.66000,34989
10.66935,33348
10.67868,38254
10.68803,42693
10.69737,42897
10.70670,38578
10.71605,39303
10.72538,41700
10.73472,41981
10.74407,39031
10.75340,60946
10.76273,129625
10.77208,196599
10.78142,178806
10.79075,123005
10.80010,120950
10.80943,168370
10.81877,177314
10.82812,129213
10.83745,69784
10.84678,45094
10.85613,37319
10.86547,37559
10.87482,41057
10.88415,47003
10.89348,53623
10.90283,49538
10.91217,42269
10.92150,37454
10.93085,30753
10.94018,31897
10.94952,32510
10.95887,34783
10.96820,36986
10.97753,36666
10.98688,35797
10.99622,31740
11.00555,29773
11.01490,30227
11.02423,30249
11.03357,28307
11.04292,29073
11.05225,30189
11.06160,29734
11.07093,32581
11.08027,32989
11.08962,34786
11.09895,32480
11.10828,38441
11.11763,52602
11.12697,57302
11.13630,50897
11.14565,41372
11.15498,36965
11.16432,35765
11.17367,33055
11.18300,33347
11.19233,31610
11.20168,30376
11.21102,30316
11.22035,30125
11.22970,31640
11.23903,31603
11.24838,31534
11.25772,33158
11.26705,39195
11.27640,43319
11.28573,37071
11.29507,32355
11.30442,30988
11.31375,29519
11.32308,30781
11.33243,34118
11.34177,41659
11.35110,51930
11.36045,62363
11.36978,65829
11.37912,58229
11.38847,49562
11.39780,43010
11.40715,47917
11.41648,52719
11.42582,50724
11.43517,42779
11.44450,35209
11.45383,33524
11.46318,34495
11.47252,36235
11.48185,37778
11.49120,36249
11.50053,29526
11.50987,28717
11.51922,27905
11.52855,26862
11.53788,27229
11.54723,28059
11.55657,32604
11.56590,51373
11.57525,90629
11.58458,138527
11.59393,140740
11.60327,109873
11.61260,76514
11.62195,58040
11.63128,51792
11.64062,75709
11.64997,166153
11.65930,300754
11.66863,327999
11.67798,227241
11.68732,127253
11.69665,80403
11.70600,60654
11.71533,56404
11.72467,51411
11.73402,44904
11.74335,46474
11.75268,40836
11.76203,39374
11.77137,42101
11.78072,45940
11.79005,50344
11.79938,53597
11.80873,47716
11.81807,43217
11.82740,44997
11.83675,45950
11.84608,44000
11.85542,40903
11.86477,38486
11.87410,38914
11.88343,41461
11.89278,41305
11.90212,36700
11.91145,36807
11.92080,35248
11.93013,35290
11.93947,43188
11.94882,58280
11.95815,72167
11.96750,64855
11.97683,45786
11.98617,36243
11.99552,33370
12.00485,35102
12.01418,42821
12.02353,52665
12.03287,53060
12.04220,49380
12.05155,45629
12.06088,42547
12.07022,36816
12.07957,32760
12.08890,30692
12.09823,33490
12.10758,32787
12.11692,32091
12.12627,31952
12.13560,32279
12.14493,33722
12.15428,35356
12.16362,40496
12.17295,55063
12.18230,76347
12.19163,83718
12.20097,62299
12.21032,41566
12.21965,35136
12.22898,34968
12.23833,40725
12.24767,39310
12.25700,36309
12.26635,39598
12.27568,73187
12.28502,127776
12.29437,146701
12.30370,103613
12.31305,60096
12.32238,41504
12.33172,40920
12.34107,44846
12.35040,44992
12.35973,41105
12.36908,39408
12.37842,40964
12.38775,46817
12.39710,54877
12.40643,60478
12.41577,50573
12.42512,42742
12.43445,38523
12.44378,35069
12.45313,34069
12.46247,33276
12.47180,34406
12.48115,36476
12.49048,37676
12.49983,39574
12.50917,40086
12.51850,40686
12.52785,41546
12.53718,39495
12.54652,42400
12.55587,43459
12.56520,49033
12.57453,48555
12.58388,44516
12.59322,37881
12.60255,32211
12.61190,31002
12.62123,33277
12.63057,44658
12.63992,63503
12.64925,83543
12.65858,87945
12.66793,76650
12.67727,60310
12.68662,45993
12.69595,36380
12.70528,31989
12.71463,31732
12.72397,34883
12.73330,35006
12.74265,33717
12.75198,35034
12.76132,39531
12.77067,37349
12.78000,33242
12.78933,32220
12.79868,31860
12.80802,33357
12.81735,36080
12.82670,36390
12.83603,35678
12.84537,35408
12.85472,34432
12.86405,33499
12.87340,33366
12.88273,30843
12.89207,32267
12.90142,33397
12.91075,35955
12.92008,36034
12.92943,31516
12.93877,31561
12.94810,33041
12.95745,34511
12.96678,34951
12.97612,32590
12.98547,30364
12.99480,30098
13.00413,30385
13.01348,34283
13.02282,37771
13.03215,44571
13.04150,45927
13.05083,44510
13.06018,38193
13.06952,42941
13.07885,51696
13.08820,47873
13.09753,42853
13.10687,37706
13.11622,38131
13.12555,37622
13.13488,39595
13.14423,42302
13.15357,47171
13.16290,55295
13.17225,61746
13.18158,56118
13.19092,58134
13.20027,95736
13.20960,226611
13.21895,379243
13.22828,360211
13.23762,212164
13.24697,106084
13.25630,78918
13.26563,74175
13.27498,71545
13.28432,72849
13.29365,68217
13.30300,52255
13.31233,48879
13.32167,50830
13.33102,51757
13.34035,53825
13.34968,51689
13.35903,49957
13.36837,47044
13.37770,42793
13.38705,41557
13.39638,43954
13.40573,52639
13.41507,52283
13.42440,44751
13.43375,43245
13.44308,47232
13.45242,48949
13.46177,46157
13.47110,44900
13.48043,44702
13.48978,44604
13.49912,44601
13.50845,44030
13.51780,51486
13.52713,70643
13.53647,93624
13.54582,86115
13.55515,61681
13.56448,44885
13.57383,36814
13.58317,34965
13.59252,32749
13.60185,31164
13.61118,31262
13.62053,31367
13.62987,31981
13.63920,35251
13.64855,35870
13.65788,37939
13.66722,39106
13.67657,37798
13.68590,35255
13.69523,34072
13.70458,31960
13.71392,31503
13.72325,31596
13.73260,30410
13.74193,29839
13.75127,30903
13.76062,32085
13.76995,31959
13.77930,33179
13.78863,30041
13.79797,33831
13.80732,37870
13.81665,43131
13.82598,38786
13.83533,33722
13.84467,32517
13.85400,34643
13.86335,33914
13.87268,35579
13.88202,40894
13.89137,49142
13.90070,63386
13.91003,89603
13.91938,114175
13.92872,128059
13.93807,98609
13.94740,62241
13.95673,51935
13.96608,53011
13.97542,49932
13.98475,45642
13.99410,42320
14.00343,43559
14.01277,40667
14.02212,39562
14.03145,37737
14.04078,42559
14.05013,108072
14.05947,550109
14.06880,1731738
14.07815,2832054
14.08748,2226897
14.09682,885296
14.10617,205494
14.11550,63585
14.12485,46782
14.13418,43738
14.14352,43060
14.15287,43027
14.16220,46280
14.17153,46736
14.18088,50001
14.19022,63064
14.19955,91634
14.20890,99585
14.21823,75240
14.22757,48153
14.23692,37612
14.24625,33651
14.25558,32842
14.26493,33386
14.27427,37465
14.28360,37851
14.29295,35189
14.30228,33930
14.31163,35250
14.32097,44109
14.33030,54835
14.33965,59182
14.34898,54421
14.35832,46721
14.36767,40117
14.37700,38230
14.38633,36440
14.39568,35668
14.40502,36052
14.41435,35427
14.42370,32795
14.43303,32931
14.44237,33318
14.45172,40844
14.46105,53530
14.47038,65420
14.47973,65407
14.48907,57064
14.49842,45765
14.50775,41806
14.51708,37991
14.52643,33789
14.53577,32195
14.54510,33963
14.55445,36815
14.56378,40925
14.57312,39983
14.58247,41425
14.59180,38054
14.60113,36683
14.61048,36568
14.61982,35454
14.62915,38008
14.63850,42026
14.64783,59258
14.65717,80160
14.66652,87231
14.67585,77233
14.68520,58620
14.69453,47884
14.70387,39666
14.71322,37543
14.72255,36768
14.73188,36477
14.74123,37351
14.75057,38357
14.75990,38291
14.76925,40252
14.77858,43996
14.78792,46898
14.79727,43903
14.80660,42569
14.81593,39812
14.82528,41657
14.83462,39598
14.84397,36701
14.85330,33765
14.86263,36709
14.87198,43037
14.88132,48361
14.89065,45454
14.90000,40383
14.90933,35595
14.91867,36801
14.92802,38388
14.93735,38319
14.94668,39791
14.95603,39454
14.96537,43574
14.97470,46564
14.98405,45412
14.99338,41123
15.00272,40149
15.01207,45738
15.02140,49417
15.03075,46155
15.04008,42294
15.04942,44504
15.05877,49941
15.06810,47242
15.07743,46716
15.08678,42285
15.09612,38175
15.10545,36144
15.11480,35935
15.12413,41408
15.13347,50299
15.14282,55495
15.15215,51774
15.16148,42781
15.17083,38915
15.18017,37796
15.18950,40299
15.19885,45746
15.20818,62616
15.21753,83225
15.22687,90190
15.23620,81753
15.24555,64377
15.25488,54369
15.26422,44285
15.27357,40590
15.28290,41728
15.29223,41313
15.30158,39170
15.31092,36759
15.32025,39036
15.32960,43506
15.33893,50837
15.34827,50703
15.35762,49982
15.36695,51986
15.37628,59107
15.38563,63219
15.39497,51054
15.40432,41077
15.41365,37181
15.42298,36776
15.43233,41313
15.44167,38832
15.45100,37396
15.46035,37572
15.46968,38548
15.47902,37260
15.48837,37974
15.49770,39557
15.50703,43924
15.51638,54992
15.52572,69407
15.53505,65181
15.54440,53776
15.55373,40116
15.56308,36775
15.57242,34719
15.58175,37437
15.59110,36246
15.60043,34859
15.60977,35650
15.61912,39445
15.62845,45075
15.63778,49229
15.64713,52793
15.65647,52616
15.66580,52157
15.67515,45606
15.68448,43774
15.69382,41809
15.70317,50394
15.71250,63044
15.72183,63719
15.73118,51779
15.74052,42372
15.74987,46871
15.75920,54888
15.76853,57469
15.77788,53038
15.78722,50552
15.79655,51625
15.80590,108148
15.81523,399959
15.82457,1098228
15.83392,1942999
15.84325,2102624
15.85258,1418017
15.86193,679172
15.87127,270629
15.88060,145849
15.88995,115366
15.89928,113095
15.90862,107678
15.91797,94942
15.92730,77869
15.93665,65238
15.94598,58445
15.95532,54662
15.96467,51975
15.97400,55530
15.98333,65115
15.99268,84437
16.00202,95878
16.01135,86000
16.02070,65488
16.03003,54979
16.03937,49641
16.04872,53040
16.05805,51790
16.06738,55976
16.07673,50811
16.08607,49527
16.09540,49335
16.10475,49138
16.11408,50901
16.12343,53650
16.13277,57811
16.14210,50129
16.15145,47243
16.16078,47760
16.17012,45997
16.17947,45178
16.18880,46089
16.19813,52436
16.20748,59438
16.21682,63117
16.22615,67155
16.23550,66047
16.24483,60524
16.25417,56361
16.26352,51985
16.27285,55475
16.28218,75006
16.29153,144083
16.30087,254109
16.31022,291726
16.31955,201231
16.32888,107193
16.33823,58583
16.34757,44944
16.35690,40530
16.36625,38891
16.37558,35544
16.38492,38102
16.39427,38450
16.40360,39830
16.41293,41745
16.42228,45937
16.43162,42675
16.44095,42974
16.45030,45450
16.45963,50809
16.46897,53168
16.47832,49623
16.48765,43225
16.49700,46228
16.50633,45082
16.51567,48233
16.52502,47812
16.53435,47107
16.54368,46292
16.55303,43857
16.56237,41220
16.57170,39331
16.58105,39429
16.59038,41480
16.59972,41213
16.60907,39929
16.61840,42690
16.62773,45946
16.63708,53045
16.64642,55480
16.65577,51721
16.66510,46971
16.67443,44328
16.68378,43543
16.69312,49716
16.70245,55245
16.71180,58399
16.72113,52191
16.73047,44435
16.73982,47568
16.74915,68723
16.75848,88928
16.76783,86574
16.77717,61809
16.78650,45776
16.79585,40821
16.80518,39501
16.81452,45821
16.82387,51780
16.83320,57177
16.84255,64829
16.85188,67540
16.86122,65398
16.87057,58194
16.87990,51235
16.88923,48966
16.89858,46879
16.90792,52822
16.91725,63806
16.92660,68516
16.93593,64928
16.94527,60213
16.95462,59383
16.96395,62395
16.97328,58796
16.98263,54830
16.99197,52317
17.00130,46455
17.01065,43742
17.01998,46446
17.02933,59712
17.03867,82567
17.04800,86929
17.05735,71418
17.06668,53112
17.07602,48967
17.08537,47383
17.09470,45601
17.10403,44403
17.11338,41686
17.12272,41919
17.13205,43322
17.14140,50623
17.15073,51166
17.16007,44189
17.16942,44626
17.17875,45843
17.18808,52784
17.19743,57035
17.20677,54483
17.21612,46215
17.22545,43078
17.23478,40896
17.24413,40659
17.25347,41882
17.26280,44133
17.27215,50623
17.28148,57475
17.29082,62609
17.30017,62552
17.30950,56888
17.31883,54250
17.32818,57239
17.33752,56881
17.34685,49640
17.35620,44597
17.36553,42826
17.37488,48872
17.38422,72072
17.39355,111921
17.40290,148231
17.41223,193701
17.42157,223913
17.43092,193554
17.44025,121899
17.44958,77949
17.45893,62973
17.46827,59986
17.47760,61185
17.48695,68943
17.49628,134225
17.50562,458940
17.51497,1117490
17.52430,1446642
17.53363,954864
17.54298,338140
17.55232,100816
17.56167,59672
17.57100,54781
17.58033,63793
17.58968,64738
17.59902,61992
17.60835,52030
17.61770,48228
17.62703,46839
17.63637,50935
17.64572,51810
17.65505,48498
17.66438,54884
17.67373,57183
17.68307,67730
17.69240,78734
17.70175,79586
17.71108,70927
17.72042,61023
17.72977,57723
17.73910,52477
17.74845,51953
17.75778,57571
17.76712,61002
17.77647,64832
17.78580,64503
17.79513,65300
17.80448,61709
17.81382,59382
17.82315,52940
17.83250,48993
17.84183,50403
17.85117,52285
17.86052,64926
17.86985,81925
17.87918,85248
17.88853,75957
17.89787,62157
17.90720,49552
17.91655,45935
17.92588,45900
17.93523,50305
17.94457,49126
17.95390,49081
17.96325,48666
17.97258,49218
17.98192,49293
17.99127,47023
18.00060,44919
18.00993,46676
18.01928,44107
18.02862,44921
18.03795,47656
18.04730,55501
18.05663,67774
18.06597,81221
18.07532,73053
18.08465,57024
18.09398,46296
18.10333,45039
18.11267,51060
18.12202,54978
18.13135,53240
18.14068,51716
18.15003,48822
18.15937,51209
18.16870,52811
18.17805,54150
18.18738,50906
18.19672,48917
18.20607,47103
18.21540,45013
18.22473,44779
18.23408,46260
18.24342,44908
18.25275,45406
18.26210,41421
18.27143,44359
18.28078,48885
18.29012,55346
18.29945,56794
18.30880,58800
18.31813,60338
18.32747,57214
18.33682,58080
18.34615,59904
18.35548,64340
18.36483,71864
18.37417,72589
18.38350,69716
18.39285,68507
18.40218,60445
18.41152,56909
18.42087,51758
18.43020,49134
18.43953,52647
18.44888,58300
18.45822,62630
18.46757,56380
18.47690,49671
18.48623,48871
18.49558,57522
18.50492,68561
18.51425,85938
18.52360,86892
18.53293,72398
18.54227,59225
18.55162,52940
18.56095,54618
18.57028,54662
18.57963,50466
18.58897,47379
18.59830,48051
18.60765,51933
18.61698,53774
18.62632,58070
18.63567,56175
18.64500,57942
18.65435,55988
18.66368,52847
18.67302,51585
18.68237,52691
18.69170,55008
18.70103,61106
18.71038,64086
18.71972,64498
18.72905,65002
18.73840,64540
18.74773,62338
18.75707,60947
18.76642,56392
18.77575,49195
18.78508,44866
18.79443,45666
18.80377,46605
18.81310,43816
18.82245,46426
18.83178,46816
18.84113,46745
18.85047,44904
18.85980,45701
18.86915,41594
18.87848,42713
18.88782,44126
18.89717,44224
18.90650,51273
18.91583,63339
18.92518,63925
18.93452,59821
18.94385,55797
18.95320,56951
18.96253,67288
18.97187,70817
18.98122,73737
18.99055,70727
18.99988,58081
19.00923,53593
19.01857,49201
19.02792,50233
19.03725,52875
19.04658,62333
19.05593,79825
19.06527,99068
19.07460,114063
19.08395,146673
19.09328,175882
19.10262,149472
19.11197,99914
19.12130,68347
19.13063,50631
19.13998,44229
19.14932,44084
19.15865,41420
19.16800,39570
19.17733,39718
19.18668,42319
19.19602,47376
19.20535,49170
19.21470,52038
19.22403,53192
19.23337,57516
19.24272,52204
19.25205,48581
19.26138,45101
19.27073,47906
19.28007,53753
19.28940,60577
19.29875,63745
19.30808,68986
19.31742,78645
19.32677,82383
19.33610,75861
19.34543,61243
19.35478,52393
19.36412,43153
19.37347,43018
19.38280,44705
19.39213,44662
19.40148,44644
19.41082,49548
19.42015,49389
19.42950,47314
19.43883,41165
19.44817,42666
19.45752,40348
19.46685,42265
19.47618,44268
19.48553,46953
19.49487,49036
19.50420,50178
19.51355,46655
19.52288,44306
19.53222,43897
19.54157,47312
19.55090,46024
19.56025,44007
19.56958,45005
19.57892,47956
19.58827,51078
19.59760,49229
19.60693,48732
19.61628,48405
19.62562,46530
19.63495,49642
19.64430,54312
19.65363,53031
19.66297,47001
19.67232,47015
19.68165,45012
19.69098,51974
19.70033,59200
19.70967,66553
19.71900,67960
19.72835,68947
19.73768,75824
19.74703,74123
19.75637,61988
19.76570,51977
19.77505,54395
19.78438,55238
19.79372,51964
19.80307,50044
19.81240,47925
19.82173,45439
19.83108,44456
19.84042,45420
19.84975,44114
19.85910,43523
19.86843,47600
19.87777,59287
19.88712,69180
19.89645,67904
19.90578,55182
19.91513,49008
19.92447,48247
19.93382,46635
19.94315,47732
19.95248,44684
19.96183,47252
19.97117,50348
19.98050,47458
19.98985,43719
19.99918,41694
20.00852,41413
20.01787,42697
20.02720,44290
20.03653,48844
20.04588,50505
20.05522,51187
20.06455,48094
20.07390,46551
20.08323,50903
20.09258,49056
20.10192,44166
20.11125,42321
20.12060,39560
20.12993,40853
20.13927,42027
20.14862,45246
20.15795,55026
20.16728,56785
20.17663,53565
20.18597,45736
20.19530,45837
20.20465,41126
20.21398,41781
20.22332,42839
20.23267,44667
20.24200,43956
20.25133,43246
20.26068,41558
20.27002,41774
20.27937,41897
20.28870,44453
20.29803,44615
20.30738,45541
20.31672,43168
20.32605,38835
20.33540,37590
20.34473,39116
20.35407,40058
20.36342,41148
20.37275,42918
20.38208,42630
20.39143,40693
20.40077,40770
20.41010,39310
20.41945,37502
20.42878,41065
20.43812,41150
20.44747,40233
20.45680,39596
20.46615,40913
20.47548,44030
20.48482,47091
20.49417,47107
20.50350,41671
20.51283,42502
20.52218,37327
20.53152,40163
20.54085,40996
20.55020,44288
20.55953,49011
20.56887,72652
20.57822,134797
20.58755,178383
20.59688,148939
20.60623,92377
20.61557,59988
20.62490,50106
20.63425,50993
20.64358,56603
20.65293,59642
20.66227,56299
20.67160,53968
20.68095,51057
20.69028,50151
20.69962,47471
20.70897,46891
20.71830,48664
20.72763,50535
20.73698,48744
20.74632,47767
20.75565,48001
20.76500,45551
20.77433,43291
20.78367,44005
20.79302,47556
20.80235,54691
20.81170,54678
20.82103,51759
20.83037,49204
20.83972,43551
20.84905,42368
20.85838,39909
20.86773,39763
20.87707,38156
20.88640,38277
20.89575,41948
20.90508,48018
20.91442,48261
20.92377,47676
20.93310,43564
20.94243,42532
20.95178,42885
20.96112,41438
20.97045,40178
20.97980,39426
20.98913,40481
20.99848,38811
21.00782,40651
21.01715,40610
21.02650,41415
21.03583,39576
21.04517,41835
21.05452,42366
21.06385,42424
21.07318,44054
21.08253,42461
21.09187,42357
21.10120,43650
21.11055,43783
21.11988,43611
21.12922,45651
21.13857,44346
21.14790,44162
21.15723,46332
21.16658,45433
21.17592,49053
21.18527,56422
21.19460,59484
21.20393,56140
21.21328,47404
21.22262,47712
21.23195,44068
21.24130,44164
21.25063,42353
21.25997,43323
21.26932,45668
21.27865,50866
21.28798,56446
21.29733,57178
21.30667,54941
21.31600,49475
21.32535,50049
21.33468,51668
21.34402,47144
21.35337,46068
21.36270,42117
21.37205,45119
21.38138,42058
21.39072,44311
21.40007,43883
21.40940,45611
21.41873,47651
21.42808,48626
21.43742,46244
21.44675,45552
21.45610,45999
21.46543,44379
21.47477,44514
21.48412,45010
21.49345,48922
21.50278,49096
21.51213,47519
21.52147,45046
21.53080,44787
21.54015,43299
21.54948,44126
21.55883,52600
21.56817,59277
21.57750,69679
21.58685,70976
21.59618,65706
21.60552,54782
21.61487,50568
21.62420,49584
21.63353,51152
21.64288,48634
21.65222,47155
21.66155,44891
21.67090,45889
21.68023,51997
21.68957,57889
21.69892,56507
21.70825,53717
21.71758,51078
21.72693,53446
21.73627,53905
21.74562,51288
21.75495,46812
21.76428,43714
21.77363,40943
21.78297,41200
21.79230,42539
21.80165,42365
21.81098,49157
21.82032,56597
21.82967,54359
21.83900,54503
21.84833,48423
21.85768,46076
21.86702,45290
21.87635,45297
21.88570,54508
21.89503,58450
21.90438,62179
21.91372,56846
21.92305,50203
21.93240,45796
21.94173,44194
21.95107,44571
21.96042,44350
21.96975,48915
21.97908,56522
21.98843,65495
21.99777,71878
22.00710,72393
22.01645,62664
22.02578,52212
22.03512,50057
22.04447,54338
22.05380,58685
22.06313,56271
22.07248,56925
22.08182,53528
22.09117,52026
22.10050,47719
22.10983,49904
22.11918,45163
22.12852,46222
22.13785,46183
22.14720,45436
22.15653,51568
22.16587,64368
22.17522,74380
22.18455,69956
22.19388,60701
22.20323,53742
22.21257,50852
22.22190,56578
22.23125,61563
22.24058,59526
22.24992,58639
22.25927,55144
22.26860,54050
22.27795,68353
22.28728,79411
22.29662,86006
22.30597,79549
22.31530,69910
22.32463,61411
22.33398,51529
22.34332,53290
22.35265,61910
22.36200,69009
22.37133,73041
22.38067,75019
22.39002,75592
22.39935,67986
22.40868,61563
22.41803,55427
22.42737,58999
22.43670,67381
22.44605,64835
22.45538,63945
22.46473,64101
22.47407,59904
22.48340,56568
22.49275,55043
22.50208,53953
22.51142,53383
22.52077,55725
22.53010,58274
22.53943,55945
22.54878,56660
22.55812,53375
22.56745,57649
22.57680,63052
22.58613,68262
22.59547,66186
22.60482,66081
22.61415,67743
22.62350,65380
22.63283,64602
22.64217,61891
22.65152,56364
22.66085,52333
22.67018,50604
22.67953,52972
22.68887,61126
22.69820,68533
22.70755,65523
22.71688,60313
22.72622,58144
22.73557,62493
22.74490,69749
22.75423,66558
22.76358,64393
22.77292,65976
22.78225,59354
22.79160,59959
22.80093,65912
22.81028,72189
22.81962,70167
22.82895,66307
22.83830,61042
22.84763,58442
22.85697,58615
22.86632,57275
22.87565,55308
22.88498,56905
22.89433,56258
22.90367,56415
22.91300,59167
22.92235,59080
22.93168,63615
22.94102,62188
22.95037,59983
22.95970,54454
22.96903,53505
22.97838,49623
22.98772,48346
22.99707,45978
23.00640,47409
23.01573,44581
23.02508,44415
23.03442,45310
23.04375,47699
23.05310,47807
23.06243,47724
23.07177,46685
23.08112,45202
23.09045,46417
23.09978,44521
23.10913,43217
23.11847,43150
23.12780,43714
23.13715,42099
23.14648,43026
23.15582,44377
23.16517,44935
23.17450,44610
23.18385,45854
23.19318,43601
23.20252,42095
23.21187,42532
23.22120,45392
23.23053,41991
23.23988,45309
23.24922,46818
23.25855,55129
23.26790,55371
23.27723,54040
23.28657,52659
23.29592,47977
23.30525,44875
23.31458,44689
23.32393,49992
23.33327,55841
23.34260,67876
23.35195,65686
23.36128,56850
23.37063,46465
23.37997,46456
23.38930,45150
23.39865,45446
23.40798,44502
23.41732,44347
23.42667,44246
23.43600,43587
23.44533,43479
23.45468,45340
23.46402,45006
23.47335,46781
23.48270,45254
23.49203,46083
23.50137,45548
23.51072,47639
23.52005,46950
23.52940,47097
23.53873,47352
23.54807,44875
23.55742,41642
23.56675,42033
23.57608,45393
23.58543,45812
23.59477,46869
23.60410,47163
23.61345,43071
23.62278,42143
23.63212,41777
23.64147,40021
23.65080,41474
23.66013,40105
23.66948,40830
23.67882,41449
23.68815,41096
23.69750,45163
23.70683,44024
23.71618,47754
23.72552,47699
23.73485,51676
23.74420,53462
23.75353,48172
23.76287,43128
23.77222,40845
23.78155,40550
23.79088,41066
23.80023,41146
23.80957,41520
23.81890,39915
23.82825,40029
23.83758,38195
23.84692,37874
23.85627,38171
23.86560,40927
23.87493,39652
23.88428,40552
23.89362,41412
23.90297,43672
23.91230,43968
23.92163,42896
23.93098,44423
23.94032,40900
23.94965,39988
23.95900,41439
23.96833,42145
23.97767,39696
23.98702,39571
23.99635,40820
24.00568,40455
24.01503,41905
24.02437,42695
24.03370,42142
24.04305,40278
24.05238,40128
24.06172,38191
24.07107,40951
24.08040,41066
24.08975,43234
24.09908,44154
24.10842,40320
24.11777,39200
24.12710,40354
24.13643,38615
24.14578,39752
24.15512,41155
24.16445,38168
24.17380,40792
24.18313,41420
24.19247,41151
24.20182,41030
24.21115,39502
24.22048,42522
24.22983,38963
24.23917,40315
24.24852,41054
24.25785,41725
24.26718,40926
24.27653,39520
24.28587,41860
24.29520,40522
24.30455,41671
24.31388,41231
24.32322,43324
24.33257,44864
24.34190,43449
24.35123,42308
24.36058,42002
24.36992,43518
24.37925,44461
24.38860,44442
24.39793,43424
24.40727,42994
24.41662,44019
24.42595,40807
24.43530,40537
24.44463,40837
24.45397,39780
24.46332,41906
24.47265,40915
24.48198,39901
24.49133,39326
24.50067,40503
24.51000,42694
24.51935,40071
24.52868,43216
24.53802,40200
24.54737,42392
24.55670,43343
24.56603,45711
24.57538,44721
24.58472,43555
24.59405,43674
24.60340,41488
24.61273,43080
24.62208,46251
24.63142,45669
24.64075,44287
24.65010,44588
24.65943,43357
24.66877,45067
24.67812,46512
24.68745,46368
24.69678,43642
24.70613,42753
24.71547,43745
24.72480,42358
24.73415,40640
24.74348,42616
24.75282,40301
24.76217,43088
24.77150,40153
24.78083,42307
24.79018,42437
24.79952,41567
24.80887,41697
24.81820,40724
24.82753,41105
24.83688,41618
24.84622,40001
24.85555,40649
24.86490,40362
24.87423,41135
24.88357,42336
24.89292,42535
24.90225,43886
24.91158,42938
24.92093,40832
24.93027,41053
24.93960,40188
24.94895,40851
24.95828,40889
24.96762,42397
24.97697,42253
24.98630,39542
24.99565,42613
25.00498,40927
25.01432,41376
25.02367,41067
25.03300,41414
25.04233,41087
25.05168,41506
25.06102,39559
25.07035,41626
25.07970,41806
25.08903,42164
25.09837,43000
25.10772,42706
25.11705,43664
25.12638,43571
25.13573,41699
25.14507,44238
25.15440,44612
25.16375,46219
25.17308,45130
25.18243,45120
25.19177,44946
25.20110,43908
25.21045,44329
25.21978,44655
25.22912,42006
25.23847,43440
25.24780,42594
25.25713,42103
25.26648,43498
25.27582,41696
25.28515,42873
25.29450,42141
25.30383,44976
25.31317,49980
25.32252,74424
25.33185,116679
25.34120,154736
25.35053,150132
25.35987,104100
25.36922,79587
25.37855,69059
25.38788,65008
25.39723,61298
25.40657,58334
25.41590,59200
25.42525,57406
25.43458,57062
25.44392,59328
25.45327,60113
25.46260,61796
25.47193,62596
25.48128,62504
25.49062,66095
25.49995,67165
25.50930,66179
25.51863,66291
25.52798,66896
25.53732,64572
25.54665,68154
25.55600,68427
25.56533,68555
25.57467,62861
25.58402,61176
25.59335,60786
25.60268,57831
25.61203,56207
25.62137,55284
25.63070,55641
25.64005,56295
25.64938,55919
25.65872,55886
25.66807,58866
25.67740,59884
25.68673,58436
25.69608,57268
25.70542,55701
25.71477,54509
25.72410,51673
25.73343,53908
25.74278,52031
25.75212,53072
25.76145,52985
25.77080,55248
25.78013,51461
25.78947,51817
25.79882,52790
25.80815,55323
25.81748,57727
25.82683,57666
25.83617,56721
25.84550,57529
25.85485,56875
25.86418,53832
25.87352,54077
25.88287,52732
25.89220,53681
25.90155,49206
25.91088,52430
25.92022,52251
25.92957,53459
25.93890,53274
25.94823,53676
25.95758,56412
25.96692,54905
25.97625,54456
25.98560,54293
25.99493,54770
26.00427,52611
26.01362,51943
26.02295,53428
26.03228,55387
26.04163,56793
26.05097,57878
26.06032,58267
26.06965,55917
26.07898,54591
26.08833,56738
26.09767,52492
26.10700,54168
26.11635,53285
26.12568,54281
26.13502,54576
26.14437,59363
26.15370,61079
26.16303,62545
26.17238,60312
26.18172,59854
26.19105,59076
26.20040,55104
26.20973,54434
26.21907,49934
26.22842,51614
26.23775,51183
26.24710,50259
26.25643,49611
26.26577,52586
26.27512,49836
26.28445,49774
26.29378,50375
26.30313,51660
26.31247,51571
26.32180,53177
26.33115,50721
26.34048,52259
26.34982,51370
26.35917,52375
26.36850,52866
26.37783,52361
26.38718,51008
26.39652,50655
26.40585,50967
26.41520,49845
26.42453,49556
26.43388,52465
26.44322,54175
26.45255,58098
26.46190,57942
26.47123,57905
26.48057,59517
26.48992,58451
26.49925,60682
26.50858,60904
26.51793,62230
26.52727,62016
26.53660,65201
26.54595,66413
26.55528,66337
26.56462,65447
26.57397,61637
26.58330,61709
26.59263,60756
26.60198,62572
26.61132,62030
26.62067,64199
26.63000,60793
26.63933,56852
26.64868,56091
26.65802,57685
26.66735,57941
26.67670,57388
26.68603,57504
26.69537,53707
26.70472,55282
26.71405,52473
26.72338,52950
26.73273,54347
26.74207,55822
26.75140,53935
26.76075,52932
26.77008,51917
26.77942,56916
26.78877,54742
26.79810,52628
26.80745,54984
26.81678,51998
26.82612,57389
26.83547,55630
26.84480,52396
26.85413,53390
26.86348,52044
26.87282,53777
26.88215,52323
26.89150,51749
26.90083,53098
26.91017,52949
26.91952,50579
26.92885,50080
26.93818,50949
26.94753,51104
26.95687,51281
26.96622,50860
26.97555,49831
26.98488,49677
26.99423,52677
27.00357,54055
27.01290,54415
27.02225,52186
27.03158,54622
27.04092,53204
27.05027,52718
27.05960,55764
27.06893,55784
27.07828,57621
27.08762,54187
27.09695,53419
27.10630,53534
27.11563,53843
27.12497,57246
27.13432,57895
27.14365,58533
27.15300,59737
27.16233,57750
27.17167,58791
27.18102,58108
27.19035,57374
27.19968,58641
27.20903,56823
27.21837,58055
27.22770,60804
27.23705,60084
27.24638,66307
27.25572,70902
27.26507,73880
27.27440,73005
27.28373,73840
27.29308,71609
27.30242,67675
27.31175,68494
27.32110,68996
27.33043,66766
27.33978,62191
27.34912,63903
27.35845,63800
27.36780,61054
27.37713,61940
27.38647,59387
27.39582,60712
27.40515,59535
27.41448,57311
27.42383,58329
27.43317,61301
27.44250,60780
27.45185,58468
27.46118,58314
27.47052,60196
27.47987,64050
27.48920,67659
27.49853,72048
27.50788,77938
27.51722,83251
27.52657,91357
27.53590,92437
27.54523,91659
27.55458,87548
27.56392,87096
27.57325,80666
27.58260,77004
27.59193,73185
27.60127,68745
27.61062,66303
27.61995,63681
27.62928,64483
27.63863,61718
27.64797,63254
27.65730,64232
27.66665,71697
27.67598,86331
27.68533,104788
27.69467,99825
27.70400,84514
27.71335,72336
27.72268,67990
27.73202,63945
27.74137,62194
27.75070,62464
27.76003,59252
27.76938,57766
27.77872,60515
27.78805,59099
27.79740,60533
27.80673,60803
27.81607,59830
27.82542,61874
27.83475,58700
27.84408,60290
27.85343,60192
27.86277,57436
27.87212,56257
27.88145,56726
27.89078,58347
27.90013,56546
27.90947,55993
27.91880,57160
27.92815,56572
27.93748,58893
27.94682,57832
27.95617,54041
27.96550,57596
27.97483,58242
27.98418,55219
27.99352,54772
28.00285,57520
28.01220,54623
28.02153,54180
28.03087,55561
28.04022,53180
28.04955,53589
28.05890,54421
28.06823,54651
28.07757,57460
28.08692,56484
28.09625,55295
28.10558,56091
28.11493,59332
28.12427,63052
28.13360,66960
28.14295,64685
28.15228,62658
28.16162,61287
28.17097,61641
28.18030,60750
28.18963,60621
28.19898,60814
28.20832,58631
28.21765,59085
28.22700,57253
28.23633,58151
28.24568,55855
28.25502,57823
28.26435,55012
28.27370,56591
28.28303,54740
28.29237,56420
28.30172,54644
28.31105,56040
28.32038,57212
28.32973,56761
28.33907,53644
28.34840,56892
28.35775,56075
28.36708,55739
28.37642,57682
28.38577,55031
28.39510,56477
28.40443,58917
28.41378,57189
28.42312,56882
28.43247,59867
28.44180,59063
28.45113,59278
28.46048,60684
28.46982,58777
28.47915,58283
28.48850,57914
28.49783,58839
28.50717,58717
28.51652,61045
28.52585,59176
28.53518,60883
28.54453,62781
28.55387,58554
28.56320,60197
28.57255,61876
28.58188,64101
28.59122,66756
28.60057,69365
28.60990,70933
28.61925,69340
28.62858,67761
28.63792,68341
28.64727,62928
28.65660,67243
28.66593,72379
28.67528,92730
28.68462,112753
28.69395,120586
28.70330,107321
28.71263,87480
28.72197,73601
28.73132,69149
28.74065,67054
28.74998,67590
28.75933,67641
28.76867,63314
28.77802,64769
28.78735,63256
28.79668,65041
28.80603,64013
28.81537,62795
28.82470,64383
28.83405,64661
28.84338,62884
28.85272,65071
28.86207,65595
28.87140,67128
28.88073,64057
28.89008,63256
28.89942,66488
28.90875,64636
28.91810,62825
28.92743,63565
28.93677,63871
28.94612,65110
28.95545,65038
28.96480,69126
28.97413,70701
28.98347,71909
28.99282,69664
29.00215,66782
29.01148,67540
29.02083,67568
29.03017,68035
29.03950,66441
29.04885,69152
29.05818,65477
29.06752,67221
29.07687,67485
29.08620,68975
29.09553,67879
29.10488,65856
29.11422,65777
29.12355,66647
29.13290,66028
29.14223,68086
29.15158,65982
29.16092,67446
29.17025,66982
29.17960,67848
29.18893,68616
29.19827,76811
29.20762,82847
29.21695,86010
29.22628,84407
29.23563,75524
29.24497,71483
29.25430,71880
29.26365,69312
29.27298,70122
29.28232,68933
29.29167,70746
29.30100,68289
29.31033,70227
29.31968,69474
29.32902,68343
29.33837,68227
29.34770,65514
29.35703,67126
29.36638,66858
29.37572,67963
29.38505,70326
29.39440,67773
29.40373,66596
29.41307,65559
29.42242,66663
29.43175,68294
29.44108,68053
29.45043,71428
29.45977,69468
29.46910,70779
29.47845,73046
29.48778,72682
29.49713,69923
29.50647,66326
29.51580,69862
29.52515,66000
29.53448,66620
29.54382,67981
29.55317,66276
29.56250,66841
29.57183,65144
29.58118,66132
29.59052,66248
29.59985,65654
29.60920,67238
29.61853,66169
29.62787,65316
29.63722,65865
29.64655,66583
29.65588,63825
29.66523,66618
29.67457,67889
29.68392,68235
29.69325,69249
29.70258,66994
29.71193,66059
29.72127,67114
29.73060,68445
29.73995,71371
29.74928,71495
29.75862,69823
29.76797,69715
29.77730,68197
29.78663,68694
29.79598,65821
29.80532,66656
29.81465,67894
29.82400,65038
29.83333,66127
29.84267,65412
29.85202,63665
29.86135,66354
29.87070,65516
29.88003,64727
29.88937,64733
29.89872,66830
29.90805,65194
29.91738,66392
29.92673,67803
29.93607,68260
29.94540,69449
29.95475,67603
29.96408,68441
29.97342,73494
29.98277,79833
29.99210,81530
30.00143,82144
30.01078,75949
30.02012,73216
30.02945,70197
30.03880,72069
30.04813,68285
30.05748,68062
30.06682,66816
30.07615,68934
30.08550,68267
30.09483,71415
30.10417,73146
30.11352,79541
30.12285,83914
30.13218,90196
30.14153,92828
30.15087,100832
30.16020,101485
30.16955,103625
30.17888,103857
30.18822,101961
30.19757,100913
30.20690,95382
30.21623,91742
30.22558,87160
30.23492,86122
30.24427,81033
30.25360,80828
30.26293,78821
30.27228,77576
30.28162,75369
30.29095,76937
30.30030,73008
30.30963,74695
30.31897,74569
30.32832,73878
30.33765,71185
30.34698,73298
30.35633,73385
30.36567,74315
30.37500,76617
30.38435,79524
30.39368,86223
30.40303,95465
30.41237,100888
30.42170,103324
30.43105,95383
30.44038,91106
30.44972,84752
30.45907,82657
30.46840,78464
30.47773,81757
30.48708,81020
30.49642,79480
30.50575,80904
30.51510,76035
30.52443,76166
30.53377,75050
30.54312,72060
30.55245,72443
30.56178,73058
30.57113,74555
30.58047,74280
30.58982,73232
30.59915,76397
30.60848,79003
30.61783,84186
30.62717,85412
30.63650,90340
30.64585,95775
30.65518,98989
30.66452,101072
30.67387,95323
30.68320,90507
30.69253,89219
30.70188,84628
30.71122,83415
30.72055,83176
30.72990,81825
30.73923,77864
30.74857,78538
30.75792,79072
30.76725,78604
30.77660,80541
30.78593,81191
30.79527,79901
30.80462,81347
30.81395,81495
30.82328,81494
30.83263,80199
30.84197,80386
30.85130,83270
30.86065,80082
30.86998,80942
30.87932,84424
30.88867,83631
30.89800,83492
30.90733,83861
30.91668,85703
30.92602,84137
30.93535,84952
30.94470,85615
30.95403,86943
30.96338,83776
30.97272,85827
30.98205,85214
30.99140,84181
31.00073,84710
31.01007,83487
31.01942,86638
31.02875,84955
31.03808,80769
31.04743,81570
31.05677,81661
31.06610,85763
31.07545,82537
31.08478,84311
31.09412,84148
31.10347,82790
31.11280,82534
31.12215,85156
31.13148,89170
31.14082,89240
31.15017,90077
31.15950,90139
31.16883,86327
31.17818,92091
31.18752,91135
31.19685,89548
31.20620,87990
31.21553,88208
31.22487,88062
31.23422,89080
31.24355,88719
31.25288,90057
31.26223,86963
31.27157,89030
31.28090,88846
31.29025,86525
31.29958,89442
31.30893,87573
31.31827,87982
31.32760,86023
31.33695,87816
31.34628,84571
31.35562,86659
31.36497,87221
