D:\数据\202112114\ZS1E-TJ-000107.D Tue Dec 14 15:16:03 2021
Start of data points
0.09772,28839
0.10705,27684
0.11638,27573
0.12573,28461
0.13507,27109
0.14440,27968
0.15375,29879
0.16308,27531
0.17242,27236
0.18177,27592
0.19110,29164
0.20045,28329
0.20978,27524
0.21912,27831
0.22847,27751
0.23780,27517
0.24713,27177
0.25648,27313
0.26582,27299
0.27515,27487
0.28450,26345
0.29383,26292
0.30317,26849
0.31252,26960
0.32185,26256
0.33118,27960
0.34053,27440
0.34987,27211
0.35920,28060
0.36855,26975
0.37788,27515
0.38723,26484
0.39657,25992
0.40590,22848
0.41525,19901
0.42458,17531
0.43392,11991
0.44327,7982
0.45260,5585
0.46193,5884
0.47128,5633
0.48062,5679
0.48995,5422
0.49930,5476
0.50863,5630
0.51797,5304
0.52732,5573
0.53665,5313
0.54598,5037
0.55533,5042
0.56467,5077
0.57402,5248
0.58335,4467
0.59268,4972
0.60203,4787
0.61137,4738
0.62070,5318
0.63005,5544
0.63938,4827
0.64872,5340
0.65807,4934
0.66740,4445
0.67673,5413
0.68608,5268
0.69542,4757
0.70475,4382
0.71410,4666
0.72343,4446
0.73278,4978
0.74212,4304
0.75145,4322
0.76080,4223
0.77013,4995
0.77947,4252
0.78882,4400
0.79815,4699
0.80748,4760
0.81683,4952
0.82617,4164
0.83550,4218
0.84485,4699
0.85418,4647
0.86352,4714
0.87287,4329
0.88220,4326
0.89153,4717
0.90088,4261
0.91022,4940
0.91957,4563
0.92890,4331
0.93823,4298
0.94758,4183
0.95692,3986
0.96625,4108
0.97560,4121
0.98493,4559
0.99427,4666
1.00362,3787
1.01295,4414
1.02228,4617
1.03163,3952
1.04097,4291
1.05030,4132
1.05965,4628
1.06898,4283
1.07832,4202
1.08767,4203
1.09700,4713
1.10635,4510
1.11568,4402
1.12502,4317
1.13437,4230
1.14370,4086
1.15303,4439
1.16238,4286
1.17172,3872
1.18105,4577
1.19040,3965
1.19973,4494
1.20907,4420
1.21842,4461
1.22775,3798
1.23708,4161
1.24643,3926
1.25577,4017
1.26510,3508
1.27445,4573
1.28378,4240
1.29313,4143
1.30247,4075
1.31180,4307
1.32115,4237
1.33048,3621
1.33982,3956
1.34917,4344
1.35850,3904
1.36783,4298
1.37718,3837
1.38652,4907
1.39585,4185
1.40520,3892
1.41453,4035
1.42387,4450
1.43322,4816
1.44255,3959
1.45188,4002
1.46123,4424
1.47057,3993
1.47992,4400
1.48925,4445
1.49858,4185
1.50793,4279
1.51727,3828
1.52660,4012
1.53595,4070
1.54528,4186
1.55462,4049
1.56397,3682
1.57330,4460
1.58263,5742
1.59198,11022
1.60132,19575
1.61065,25544
1.62000,29513
1.62933,39048
1.63867,47080
1.64802,53413
1.65735,52924
1.66670,46870
1.67603,42078
1.68537,35931
1.69472,29056
1.70405,21571
1.71338,20615
1.72273,21317
1.73207,25871
1.74140,27019
1.75075,31569
1.76008,36006
1.76942,37565
1.77877,37871
1.78810,38692
1.79743,37834
1.80678,35889
1.81612,36834
1.82547,37246
1.83480,37031
1.84413,35532
1.85348,34858
1.86282,35872
1.87215,38718
1.88150,58405
1.89083,95860
1.90017,135541
1.90952,161079
1.91885,195887
1.92818,346446
1.93753,711715
1.94687,1295946
1.95620,1781478
1.96555,1787624
1.97488,1450284
1.98422,1074906
1.99357,785122
2.00290,617895
2.01225,524705
2.02158,478471
2.03092,412689
2.04027,316605
2.04960,227392
2.05893,165652
2.06828,127860
2.07762,103448
2.08695,85237
2.09630,72672
2.10563,65312
2.11497,62694
2.12432,63447
2.13365,64400
2.14298,69166
2.15233,74901
2.16167,74577
2.17100,74711
2.18035,76738
2.18968,106954
2.19903,179546
2.20837,187360
2.21770,131014
2.22705,102165
2.23638,142592
2.24572,403342
2.25507,1723875
2.26440,6012714
2.27373,7356698
2.28308,5598805
2.29242,3495759
2.30175,2341178
2.31110,5276028
2.32043,1.857903E+07
2.32977,2.62501E+07
2.33912,2.086098E+07
2.34845,1.111281E+07
2.35780,4837953
2.36713,2091729
2.37647,1003343
2.38582,567487
2.39515,373330
2.40448,285558
2.41383,231380
2.42317,200797
2.43250,181312
2.44185,167120
2.45118,147801
2.46052,138843
2.46987,155256
2.47920,192297
2.48853,183738
2.49788,143345
2.50722,120655
2.51655,103501
2.52590,92954
2.53523,88540
2.54458,92451
2.55392,101429
2.56325,108468
2.57260,123425
2.58193,265144
2.59127,262890
2.60062,221338
2.60995,179297
2.61928,176957
2.62863,190491
2.63797,183942
2.64730,158748
2.65665,143716
2.66598,135569
2.67532,118744
2.68467,98528
2.69400,83436
2.70333,75065
2.71268,74283
2.72202,93199
2.73137,125573
2.74070,147625
2.75003,180096
2.75938,202664
2.76872,201170
2.77805,212055
2.78740,259696
2.79673,270944
2.80607,221035
2.81542,180049
2.82475,162582
2.83408,148092
2.84343,127613
2.85277,126792
2.86210,160117
2.87145,196673
2.88078,239418
2.89012,213129
2.89947,163408
2.90880,132528
2.91815,114840
2.92748,102014
2.93682,89007
2.94617,77484
2.95550,70827
2.96483,66661
2.97418,65705
2.98352,63198
2.99285,74765
3.00220,107589
3.01153,122106
3.02087,115756
3.03022,95568
3.03955,84902
3.04888,91633
3.05823,126657
3.06757,179012
3.07690,204735
3.08625,164013
3.09558,113374
3.10493,83201
3.11427,67016
3.12360,63633
3.13295,65272
3.14228,65302
3.15162,69223
3.16097,72119
3.17030,75199
3.17963,74479
3.18898,68774
3.19832,63087
3.20765,60249
3.21700,59442
3.22633,60175
3.23567,58135
3.24502,54951
3.25435,55540
3.26368,54850
3.27303,57009
3.28237,55335
3.29172,55968
3.30105,58008
3.31038,60711
3.31973,61366
3.32907,57836
3.33840,54259
3.34775,57387
3.35708,58129
3.36642,57373
3.37577,52301
3.38510,50998
3.39443,48873
3.40378,49111
3.41312,55329
3.42245,63618
3.43180,66275
3.44113,67406
3.45048,68912
3.45982,74396
3.46915,74472
3.47850,67364
3.48783,63052
3.49717,62349
3.50652,59565
3.51585,56847
3.52518,56564
3.53453,54595
3.54387,59865
3.55320,97065
3.56255,223807
3.57188,395744
3.58122,422043
3.59057,291711
3.59990,173607
3.60923,108645
3.61858,85969
3.62792,92130
3.63727,97544
3.64660,87660
3.65593,77279
3.66528,72357
3.67462,75921
3.68395,75589
3.69330,68153
3.70263,58115
3.71197,57569
3.72132,62190
3.73065,70280
3.73998,66984
3.74933,62200
3.75867,61008
3.76800,57588
3.77735,52521
3.78668,50019
3.79602,47019
3.80537,52401
3.81470,60712
3.82405,76673
3.83338,75254
3.84272,65124
3.85207,58738
3.86140,54872
3.87073,52025
3.88008,53375
3.88942,56775
3.89875,63351
3.90810,67311
3.91743,70133
3.92677,68257
3.93612,73782
3.94545,91655
3.95478,171720
3.96413,176472
3.97347,141511
3.98280,99366
3.99215,74518
4.00148,62544
4.01083,54580
4.02017,71931
4.02950,101258
4.03885,254459
4.04818,588753
4.05752,747953
4.06687,565518
4.07620,327597
4.08553,224429
4.09488,181425
4.10422,148095
4.11355,115928
4.12290,86854
4.13223,70026
4.14157,64119
4.15092,61230
4.16025,58449
4.16960,58324
4.17893,54633
4.18827,52603
4.19762,48831
4.20695,51969
4.21628,52781
4.22563,52293
4.23497,51992
4.24430,49996
4.25365,47275
4.26298,48392
4.27232,50980
4.28167,57375
4.29100,57748
4.30033,59077
4.30968,62836
4.31902,83700
4.32835,113243
4.33770,125061
4.34703,102501
4.35638,75977
4.36572,61697
4.37505,55244
4.38440,50982
4.39373,49219
4.40307,52125
4.41242,50980
4.42175,48051
4.43108,45965
4.44043,45703
4.44977,44652
4.45910,50371
4.46845,61739
4.47778,84553
4.48712,96669
4.49647,82174
4.50580,63669
4.51513,52918
4.52448,47976
4.53382,46748
4.54317,48049
4.55250,50342
4.56183,54860
4.57118,52726
4.58052,53306
4.58985,48836
4.59920,49417
4.60853,47014
4.61787,45910
4.62722,45477
4.63655,46022
4.64588,47355
4.65523,51721
4.66457,57405
4.67390,59145
4.68325,67828
4.69258,100689
4.70192,166871
4.71127,197872
4.72060,154303
4.72995,96904
4.73928,62042
4.74862,54617
4.75797,56419
4.76730,56737
4.77663,55497
4.78598,53083
4.79532,50024
4.80465,50504
4.81400,51668
4.82333,50918
4.83267,50078
4.84202,52799
4.85135,51179
4.86068,51922
4.87003,54610
4.87937,71948
4.88870,81811
4.89805,76392
4.90738,66361
4.91673,58568
4.92607,53570
4.93540,52309
4.94475,54543
4.95408,54039
4.96342,53409
4.97277,48546
4.98210,46972
4.99143,45280
5.00078,45869
5.01012,47016
5.01945,50400
5.02880,55265
5.03813,62373
5.04747,60312
5.05682,57132
5.06615,51189
5.07550,51939
5.08483,53946
5.09417,54596
5.10352,53973
5.11285,49963
5.12218,47669
5.13153,49486
5.14087,50992
5.15020,52657
5.15955,57443
5.16888,58135
5.17822,52695
5.18757,48319
5.19690,49234
5.20623,52843
5.21558,51930
5.22492,51254
5.23425,47576
5.24360,50650
5.25293,53271
5.26228,51061
5.27162,67511
5.28095,138591
5.29030,271658
5.29963,335958
5.30897,266001
5.31832,158481
5.32765,102196
5.33698,76834
5.34633,67101
5.35567,58535
5.36500,52774
5.37435,50990
5.38368,57207
5.39302,67224
5.40237,73167
5.41170,68657
5.42103,60564
5.43038,54061
5.43972,49417
5.44907,45337
5.45840,44900
5.46773,44336
5.47708,44492
5.48642,44419
5.49575,46256
5.50510,48160
5.51443,52104
5.52377,60680
5.53312,74908
5.54245,79773
5.55178,74695
5.56113,65963
5.57047,61474
5.57980,54443
5.58915,50452
5.59848,45630
5.60782,46034
5.61717,44525
5.62650,42984
5.63585,45444
5.64518,43710
5.65452,47084
5.66387,49550
5.67320,90230
5.68253,121254
5.69188,104903
5.70122,87207
5.71055,73436
5.71990,67024
5.72923,63483
5.73857,58301
5.74792,61998
5.75725,72892
5.76658,74407
5.77593,78521
5.78527,88443
5.79462,83856
5.80395,71703
5.81328,62060
5.82263,55500
5.83197,55483
5.84130,60398
5.85065,52347
5.85998,43873
5.86932,37826
5.87867,35302
5.88800,33057
5.89733,32336
5.90668,39077
5.91602,75088
5.92535,155168
5.93470,210214
5.94403,172234
5.95337,131848
5.96272,120161
5.97205,98918
5.98140,72338
5.99073,46455
6.00007,34622
6.00942,28371
6.01875,26543
6.02808,26380
6.03743,27107
6.04677,33966
6.05610,35367
6.06545,35385
6.07478,36904
6.08412,33665
6.09347,29623
6.10280,28253
6.11213,25144
6.12148,28936
6.13082,43333
6.14015,58616
6.14950,58042
6.15883,44574
6.16818,30071
6.17752,22648
6.18685,21413
6.19620,19886
6.20553,19945
6.21487,17334
6.22422,19483
6.23355,23163
6.24288,25479
6.25223,24022
6.26157,20920
6.27090,19082
6.28025,22700
6.28958,26412
6.29892,26108
6.30827,22789
6.31760,17890
6.32693,16529
6.33628,16493
6.34562,16476
6.35497,18521
6.36430,17388
6.37363,19499
6.38298,26747
6.39232,55350
6.40165,191253
6.41100,675126
6.42033,1245826
6.42967,1197021
6.43902,645191
6.44835,223059
6.45768,73873
6.46703,40062
6.47637,29599
6.48570,25551
6.49505,23004
6.50438,21712
6.51372,21837
6.52307,21633
6.53240,22447
6.54175,20001
6.55108,18486
6.56042,17304
6.56977,17919
6.57910,19902
6.58843,19352
6.59778,22298
6.60712,23372
6.61645,24617
6.62580,23963
6.63513,24971
6.64447,27519
6.65382,27798
6.66315,28784
6.67248,27946
6.68183,26253
6.69117,22881
6.70050,25461
6.70985,39112
6.71918,43262
6.72853,38502
6.73787,33144
6.74720,28372
6.75655,26771
6.76588,23360
6.77522,23425
6.78457,23581
6.79390,26915
6.80323,31581
6.81258,33287
6.82192,28806
6.83125,24459
6.84060,25164
6.84993,26426
6.85927,28740
6.86862,29016
6.87795,25053
6.88730,23995
6.89663,21136
6.90597,23090
6.91532,24711
6.92465,25318
6.93398,22193
6.94333,21608
6.95267,20763
6.96200,22100
6.97135,22529
6.98068,24763
6.99002,24786
6.99937,22904
7.00870,19802
7.01803,19218
7.02738,20172
7.03672,18253
7.04605,16954
7.05540,14380
7.06473,14965
7.07408,15284
7.08342,16243
7.09275,17468
7.10210,20825
7.11143,24448
7.12077,26384
7.13012,22961
7.13945,23171
7.14878,20685
7.15813,16955
7.16747,16582
7.17680,16901
7.18615,18138
7.19548,18418
7.20482,19349
7.21417,20518
7.22350,22727
7.23283,40258
7.24218,78715
7.25152,103254
7.26087,87181
7.27020,51522
7.27953,36754
7.28888,29227
7.29822,29579
7.30755,25670
7.31690,21844
7.32623,18711
7.33557,17546
7.34492,18027
7.35425,18192
7.36358,16587
7.37293,17304
7.38227,19855
7.39160,30956
7.40095,74062
7.41028,143956
7.41962,185644
7.42897,158908
7.43830,99990
7.44765,53117
7.45698,30005
7.46632,20045
7.47567,18600
7.48500,18243
7.49433,20506
7.50368,23622
7.51302,23371
7.52235,20524
7.53170,19507
7.54103,17746
7.55037,18201
7.55972,18470
7.56905,20652
7.57838,22424
7.58773,23179
7.59707,23543
7.60642,24277
7.61575,25888
7.62508,27436
7.63443,29036
7.64377,27916
7.65310,27429
7.66245,22268
7.67178,20121
7.68112,20557
7.69047,22149
7.69980,23810
7.70913,23953
7.71848,23579
7.72782,21750
7.73715,21051
7.74650,23085
7.75583,25086
7.76517,28476
7.77452,29580
7.78385,29548
7.79320,30438
7.80253,29141
7.81187,26454
7.82122,22275
7.83055,21649
7.83988,22480
7.84923,24070
7.85857,35094
7.86790,63729
7.87725,86731
7.88658,86121
7.89592,64034
7.90527,49405
7.91460,57626
7.92393,83020
7.93328,89423
7.94262,62175
7.95195,47175
7.96130,60097
7.97063,77124
7.97998,78056
7.98932,77208
7.99865,71496
8.00800,56094
8.01733,40730
8.02667,37154
8.03602,40285
8.04535,48720
8.05468,55489
8.06403,44819
8.07337,35035
8.08270,28336
8.09205,35307
8.10138,56904
8.11072,66551
8.12007,54774
8.12940,37848
8.13873,28849
8.14808,26045
8.15742,25027
8.16677,25626
8.17610,24618
8.18543,22796
8.19478,24072
8.20412,26835
8.21345,27898
8.22280,25692
8.23213,22507
8.24147,22128
8.25082,25687
8.26015,28825
8.26948,26850
8.27883,25421
8.28817,23602
8.29750,22671
8.30685,22808
8.31618,24768
8.32552,23548
8.33487,22513
8.34420,22233
8.35355,21925
8.36288,22064
8.37222,21041
8.38157,21253
8.39090,23591
8.40023,32892
8.40958,38539
8.41892,39559
8.42825,39178
8.43760,34985
8.44693,30178
8.45627,28878
8.46562,29125
8.47495,28340
8.48428,26987
8.49363,27288
8.50297,27007
8.51232,24567
8.52165,24972
8.53098,23702
8.54033,23978
8.54967,23727
8.55900,26630
8.56835,27796
8.57768,32142
8.58702,35565
8.59637,35539
8.60570,36303
8.61503,36009
8.62438,31852
8.63372,30342
8.64305,28637
8.65240,25221
8.66173,26918
8.67107,26765
8.68042,28121
8.68975,25972
8.69910,26492
8.70843,27678
8.71777,25333
8.72712,24193
8.73645,23870
8.74578,28667
8.75513,39265
8.76447,45396
8.77380,39773
8.78315,33291
8.79248,31198
8.80182,42041
8.81117,64690
8.82050,78801
8.82983,65220
8.83918,43082
8.84852,28511
8.85785,26130
8.86720,26107
8.87653,28031
8.88588,31189
8.89522,32014
8.90455,29840
8.91390,28952
8.92323,29839
8.93257,31127
8.94192,29403
8.95125,27348
8.96058,23748
8.96993,23943
8.97927,23517
8.98860,24668
8.99795,25335
9.00728,28550
9.01662,28804
9.02597,29218
9.03530,27737
9.04463,29791
9.05398,27179
9.06332,28884
9.07267,32837
9.08200,38889
9.09133,46125
9.10068,49397
9.11002,40451
9.11935,35650
9.12870,39438
9.13803,55493
9.14737,58523
9.15672,47731
9.16605,35406
9.17538,29608
9.18473,29670
9.19407,29695
9.20340,28406
9.21275,35638
9.22208,59448
9.23143,98431
9.24077,117807
9.25010,101300
9.25945,66201
9.26878,43498
9.27812,38376
9.28747,35342
9.29680,33016
9.30613,32652
9.31548,33514
9.32482,42871
9.33415,61464
9.34350,66911
9.35283,54135
9.36217,63979
9.37152,128782
9.38085,214566
9.39018,222366
9.39953,158872
9.40887,96253
9.41822,64943
9.42755,54897
9.43688,50093
9.44623,43352
9.45557,34783
9.46490,29302
9.47425,28090
9.48358,26731
9.49292,30853
9.50227,37679
9.51160,37214
9.52093,32581
9.53028,30556
9.53962,37377
9.54895,45860
9.55830,58625
9.56763,85939
9.57697,88450
9.58632,62979
9.59565,46340
9.60500,48747
9.61433,52698
9.62367,42967
9.63302,35155
9.64235,35182
9.65168,38625
9.66103,43846
9.67037,45317
9.67970,39033
9.68905,32814
9.69838,29019
9.70772,26190
9.71707,33341
9.72640,88249
9.73573,352059
9.74508,981112
9.75442,1385153
9.76375,1098369
9.77310,578718
9.78243,263223
9.79178,155205
9.80112,115831
9.81045,94152
9.81980,84075
9.82913,88653
9.83847,102795
9.84782,113095
9.85715,109781
9.86648,86128
9.87583,70018
9.88517,69669
9.89450,83079
9.90385,84944
9.91318,76068
9.92252,63386
9.93187,63449
9.94120,58513
9.95053,52024
9.95988,43557
9.96922,44377
9.97857,64025
9.98790,125411
9.99723,185937
10.00658,171366
10.01592,112094
10.02525,71410
10.03460,54597
10.04393,48293
10.05327,47374
10.06262,50207
10.07195,57149
10.08128,67751
10.09063,64623
10.09997,52303
10.10930,50681
10.11865,99907
10.12798,245267
10.13732,379520
10.14667,430677
10.15600,950331
10.16535,2606828
10.17468,3946145
10.18402,2957385
10.19337,1058535
10.20270,220305
10.21203,63527
10.22138,47958
10.23072,45998
10.24005,54889
10.24940,68217
10.25873,74937
10.26807,60223
10.27742,47002
10.28675,40888
10.29608,39888
10.30543,39521
10.31477,34847
10.32412,33923
10.33345,32589
10.34278,31484
10.35213,31894
10.36147,31676
10.37080,34226
10.38015,32440
10.38948,30342
10.39882,28575
10.40817,29739
10.41750,31706
10.42683,39705
10.43618,41662
10.44552,40567
10.45485,42421
10.46420,49081
10.47353,63791
10.48287,60272
10.49222,49855
10.50155,40041
10.51090,33629
10.52023,29853
10.52957,30593
10.53892,30301
10.54825,31365
10.55758,32324
10.56693,32946
10.57627,32350
10.58560,32211
10.59495,30139
10.60428,28977
10.61362,28109
10.62297,28315
10.63230,32190
10.64163,39701
10.65098,38817
10.66032,33013
10.66965,31358
10.67900,37529
10.68833,41252
10.69768,41129
10.70702,38002
10.71635,43607
10.72570,47573
10.73503,45289
10.74437,40229
10.75372,42132
10.76305,57504
10.77238,78296
10.78173,86124
10.79107,116301
10.80040,257134
10.80975,445093
10.81908,462746
10.82842,270930
10.83777,114512
10.84710,53319
10.85645,38874
10.86578,39056
10.87512,60868
10.88447,95700
10.89380,108257
10.90313,87530
10.91248,56502
10.92182,39931
10.93115,40914
10.94050,43377
10.94983,38222
10.95917,34624
10.96852,36188
10.97785,35998
10.98718,31379
10.99653,27955
11.00587,26853
11.01520,28735
11.02455,28272
11.03388,25464
11.04323,26212
11.05257,27934
11.06190,28826
11.07125,34395
11.08058,36479
11.08992,34830
11.09927,32855
11.10860,38115
11.11793,47885
11.12728,52722
11.13662,45202
11.14595,39276
11.15530,36193
11.16463,33183
11.17397,32595
11.18332,32091
11.19265,32248
11.20198,29052
11.21133,29195
11.22067,29099
11.23002,30293
11.23935,30608
11.24868,30161
11.25803,33312
11.26737,38122
11.27670,42606
11.28605,38103
11.29538,31032
11.30472,28438
11.31407,28697
11.32340,29037
11.33273,31507
11.34208,42751
11.35142,54889
11.36075,65656
11.37010,67083
11.37943,56478
11.38877,45046
11.39812,43386
11.40745,48972
11.41680,53922
11.42613,50104
11.43547,38999
11.44482,31622
11.45415,30891
11.46348,35803
11.47283,44842
11.48217,52021
11.49150,44503
11.50085,31751
11.51018,28308
11.51952,25798
11.52887,26761
11.53820,26530
11.54753,27515
11.55688,31806
11.56622,46898
11.57555,89314
11.58490,133394
11.59423,136136
11.60358,102738
11.61292,74430
11.62225,61024
11.63160,51966
11.64093,48514
11.65027,47794
11.65962,50620
11.66895,56459
11.67828,51218
11.68763,44150
11.69697,39772
11.70630,35903
11.71565,34215
11.72498,32077
11.73432,31972
11.74367,30553
11.75300,31572
11.76233,31536
11.77168,31409
11.78102,36149
11.79037,41923
11.79970,44991
11.80903,41757
11.81838,36128
11.82772,36790
11.83705,38234
11.84640,39128
11.85573,36515
11.86507,34881
11.87442,36153
11.88375,36480
11.89308,36646
11.90243,34648
11.91177,32772
11.92110,31423
11.93045,30822
11.93978,36570
11.94913,52087
11.95847,62708
11.96780,52609
11.97715,37477
11.98648,29589
11.99582,30388
12.00517,37889
12.01450,52954
12.02383,64039
12.03318,60912
12.04252,52021
12.05185,43258
12.06120,39505
12.07053,35145
12.07987,30682
12.08922,29190
12.09855,28947
12.10788,30399
12.11723,31037
12.12657,28379
12.13592,28322
12.14525,27668
12.15458,31502
12.16393,39200
12.17327,65811
12.18260,108856
12.19195,118812
12.20128,80452
12.21062,48338
12.21997,36288
12.22930,37574
12.23863,43657
12.24798,42504
12.25732,37087
12.26665,41278
12.27600,62896
12.28533,98652
12.29467,109193
12.30402,76398
12.31335,49848
12.32270,37536
12.33203,37100
12.34137,39257
12.35072,37757
12.36005,37938
12.36938,36051
12.37873,41236
12.38807,47497
12.39740,51019
12.40675,50440
12.41608,44172
12.42542,37466
12.43477,33453
12.44410,33953
12.45343,31116
12.46278,32933
12.47212,34708
12.48145,36034
12.49080,37324
12.50013,38035
12.50948,38312
12.51882,36424
12.52815,35999
12.53750,41885
12.54683,41795
12.55617,42583
12.56552,51798
12.57485,52304
12.58418,49443
12.59353,43492
12.60287,39286
12.61220,37489
12.62155,49490
12.63088,77436
12.64022,105665
12.64957,116079
12.65890,122524
12.66825,138142
12.67758,131637
12.68692,93482
12.69627,55579
12.70560,37310
12.71493,36555
12.72428,40021
12.73362,41982
12.74295,39091
12.75230,38709
12.76163,39827
12.77097,37740
12.78032,32261
12.78965,30238
12.79898,29484
12.80833,31755
12.81767,32984
12.82700,35948
12.83635,34418
12.84568,30207
12.85503,30749
12.86437,29797
12.87370,31459
12.88305,29090
12.89238,29738
12.90172,33412
12.91107,34722
12.92040,32874
12.92973,30714
12.93908,29594
12.94842,30800
12.95775,33340
12.96710,32512
12.97643,32291
12.98577,28185
12.99512,27744
13.00445,29525
13.01378,32078
13.02313,36896
13.03247,43952
13.04182,50823
13.05115,46982
13.06048,36994
13.06983,37239
13.07917,41903
13.08850,41681
13.09785,40242
13.10718,37579
13.11652,36700
13.12587,35861
13.13520,40054
13.14453,46434
13.15388,51329
13.16322,65928
13.17255,85015
13.18190,91845
13.19123,83093
13.20057,108309
13.20992,223877
13.21925,370003
13.22860,343338
13.23793,210005
13.24727,129546
13.25662,111220
13.26595,88235
13.27528,66872
13.28463,57440
13.29397,47946
13.30330,43145
13.31265,42082
13.32198,47782
13.33132,52162
13.34067,49288
13.35000,47805
13.35933,44869
13.36868,39338
13.37802,39034
13.38735,36604
13.39670,39761
13.40603,44351
13.41538,43850
13.42472,37482
13.43405,37357
13.44340,43974
13.45273,49192
13.46207,46760
13.47142,42702
13.48075,44530
13.49008,45781
13.49943,42271
13.50877,40026
13.51810,55349
13.52745,94443
13.53678,123112
13.54612,100932
13.55547,60660
13.56480,38711
13.57415,34457
13.58348,31750
13.59282,31092
13.60217,31331
13.61150,28890
13.62083,29643
13.63018,31710
13.63952,38374
13.64885,50158
13.65820,62261
13.66753,58052
13.67687,44113
13.68622,36403
13.69555,32321
13.70488,31316
13.71423,28153
13.72357,27789
13.73290,26283
13.74225,27757
13.75158,28402
13.76093,31265
13.77027,30922
13.77960,30771
13.78895,28456
13.79828,32785
13.80762,40444
13.81697,43432
13.82630,40086
13.83563,34318
13.84498,31455
13.85432,29523
13.86365,32933
13.87300,37075
13.88233,39819
13.89167,49644
13.90102,78351
13.91035,151405
13.91968,281951
13.92903,356622
13.93837,240727
13.94772,110159
13.95705,56163
13.96638,50140
13.97573,46637
13.98507,40823
13.99440,40142
14.00375,38381
14.01308,37933
14.02242,35561
14.03177,34407
14.04110,50987
14.05043,237985
14.05978,1366966
14.06912,4585507
14.07845,7967098
14.08780,7312372
14.09713,3215643
14.10647,665791
14.11582,111580
14.12515,54923
14.13450,46765
14.14383,45886
14.15317,49578
14.16252,52025
14.17185,53517
14.18118,52121
14.19053,53165
14.19987,63679
14.20920,64322
14.21855,54130
14.22788,39248
14.23722,31324
14.24657,31563
14.25590,30571
14.26523,32617
14.27458,33263
14.28392,32840
14.29327,31911
14.30260,29717
14.31193,31390
14.32128,38117
14.33062,51637
14.33995,57413
14.34930,55383
14.35863,45927
14.36797,37150
14.37732,33413
14.38665,29501
14.39598,31546
14.40533,32078
14.41467,32321
14.42400,32202
14.43335,34441
14.44268,37779
14.45202,46324
14.46137,56725
14.47070,69687
14.48005,68244
14.48938,55426
14.49872,42407
14.50807,31917
14.51740,31640
14.52673,29363
14.53608,30049
14.54542,30729
14.55475,32508
14.56410,36004
14.57343,35895
14.58277,35314
14.59212,32896
14.60145,32227
14.61078,32225
14.62013,29900
14.62947,32876
14.63880,37007
14.64815,47529
14.65748,69307
14.66683,73281
14.67617,67562
14.68550,50134
14.69485,42542
14.70418,36479
14.71352,34080
14.72287,32925
14.73220,32407
14.74153,33855
14.75088,34280
14.76022,34251
14.76955,36109
14.77890,41705
14.78823,42048
14.79757,40142
14.80692,37923
14.81625,35350
14.82558,35741
14.83493,33442
14.84427,31203
14.85362,28603
14.86295,32291
14.87228,42379
14.88163,51267
14.89097,46385
14.90030,39150
14.90965,34491
14.91898,32593
14.92832,31877
14.93767,31677
14.94700,35728
14.95633,33852
14.96568,35247
14.97502,39819
14.98435,39575
14.99370,35713
15.00303,37817
15.01237,41297
15.02172,43031
15.03105,38479
15.04040,37292
15.04973,36450
15.05907,41525
15.06842,41831
15.07775,41761
15.08708,37928
15.09643,34090
15.10577,31545
15.11510,32869
15.12445,34814
15.13378,42353
15.14312,46796
15.15247,42159
15.16180,37217
15.17113,32466
15.18048,31448
15.18982,33432
15.19915,41162
15.20850,57294
15.21783,80379
15.22718,90182
15.23652,80738
15.24585,60033
15.25520,45504
15.26453,37715
15.27387,36256
15.28322,36418
15.29255,35758
15.30188,34383
15.31123,33626
15.32057,34647
15.32990,36472
15.33925,38841
15.34858,41274
15.35792,37140
15.36727,41491
15.37660,46164
15.38595,46333
15.39528,37422
15.40462,31709
15.41397,32077
15.42330,33368
15.43263,36004
15.44198,37337
15.45132,34860
15.46065,34288
15.47000,32529
15.47933,34132
15.48867,33678
15.49802,35495
15.50735,38305
15.51668,52950
15.52603,65449
15.53537,64984
15.54470,52354
15.55405,39355
15.56338,33217
15.57273,31510
15.58207,31696
15.59140,30757
15.60075,31767
15.61008,34735
15.61942,34290
15.62877,37980
15.63810,43434
15.64743,46765
15.65678,50052
15.66612,48142
15.67545,47071
15.68480,43568
15.69413,43598
15.70347,53679
15.71282,62863
15.72215,58613
15.73148,45243
15.74083,38859
15.75017,40815
15.75952,48055
15.76885,51417
15.77818,47574
15.78753,41588
15.79687,38352
15.80620,41223
15.81555,66891
15.82488,137253
15.83422,227951
15.84357,302043
15.85290,292493
15.86223,196081
15.87158,103657
15.88092,67501
15.89025,63746
15.89960,71937
15.90893,74166
15.91827,66475
15.92762,54344
15.93695,46108
15.94630,40904
15.95563,37828
15.96497,35950
15.97432,38757
15.98365,50147
15.99298,63660
16.00233,70063
16.01167,60973
16.02100,46401
16.03035,40527
16.03968,36425
16.04902,36623
16.05837,39267
16.06770,41101
16.07703,41272
16.08638,36400
16.09572,39754
16.10507,41396
16.11440,45230
16.12373,49884
16.13308,48430
16.14242,43403
16.15175,40508
16.16110,36919
16.17043,37136
16.17977,35247
16.18912,35404
16.19845,39375
16.20778,43627
16.21713,48128
16.22647,51071
16.23580,50187
16.24515,48293
16.25448,44040
16.26382,42554
16.27317,45721
16.28250,60962
16.29185,106895
16.30118,177066
16.31052,205662
16.31987,149364
16.32920,79321
16.33853,48248
16.34788,38305
16.35722,33152
16.36655,31323
16.37590,32156
16.38523,31734
16.39457,29509
16.40392,32577
16.41325,35316
16.42258,37463
16.43193,36623
16.44127,33413
16.45060,37535
16.45995,47094
16.46928,45556
16.47863,41402
16.48797,39611
16.49730,39141
16.50665,39449
16.51598,40340
16.52532,42744
16.53467,41467
16.54400,40301
16.55333,38045
16.56268,37002
16.57202,34715
16.58135,35099
16.59070,37484
16.60003,36935
16.60937,34207
16.61872,37393
16.62805,40200
16.63738,46867
16.64673,48495
16.65607,46737
16.66542,41011
16.67475,36565
16.68408,37095
16.69343,45501
16.70277,51029
16.71210,49211
16.72145,42596
16.73078,37915
16.74012,46223
16.74947,75420
16.75880,107288
16.76813,96140
16.77748,60406
16.78682,39014
16.79615,36851
16.80550,35580
16.81483,41896
16.82417,48074
16.83352,50588
16.84285,53535
16.85220,50812
16.86153,40654
16.87087,34719
16.88022,34630
16.88955,34706
16.89888,38775
16.90823,42554
16.91757,51886
16.92690,54672
16.93625,52786
16.94558,45814
16.95492,53440
16.96427,54798
16.97360,57755
16.98293,53566
16.99228,45061
17.00162,41543
17.01097,38154
17.02030,40416
17.02963,59220
17.03898,86426
17.04832,90049
17.05765,65780
17.06700,46851
17.07633,44621
17.08567,41378
17.09502,37966
17.10435,38787
17.11368,38350
17.12303,35653
17.13237,35816
17.14170,40782
17.15105,40071
17.16038,35135
17.16972,33033
17.17907,34785
17.18840,34348
17.19775,33962
17.20708,31979
17.21642,32403
17.22577,31771
17.23510,30887
17.24443,32687
17.25378,33479
17.26312,36432
17.27245,36838
17.28180,42897
17.29113,48649
17.30047,47094
17.30982,43252
17.31915,44606
17.32848,44440
17.33783,43326
17.34717,40665
17.35650,40146
17.36585,38353
17.37518,53407
17.38453,108245
17.39387,178961
17.40320,175131
17.41255,106129
17.42188,70616
17.43122,54203
17.44057,45505
17.44990,44829
17.45923,44029
17.46858,43108
17.47792,41813
17.48725,56273
17.49660,194821
17.50593,820027
17.51527,2110895
17.52462,2802695
17.53395,1763766
17.54328,599526
17.55263,139686
17.56197,54898
17.57132,48470
17.58065,52518
17.58998,57508
17.59933,56135
17.60867,46916
17.61800,41821
17.62735,42031
17.63668,43077
17.64602,40319
17.65537,41805
17.66470,46017
17.67403,50512
17.68338,52230
17.69272,57648
17.70205,60008
17.71140,56826
17.72073,53600
17.73007,46985
17.73942,43418
17.74875,45076
17.75810,48904
17.76743,53962
17.77677,53655
17.78612,52482
17.79545,49635
17.80478,48098
17.81413,46534
17.82347,40833
17.83280,39195
17.84215,37528
17.85148,42136
17.86082,48931
17.87017,57017
17.87950,57437
17.88883,52626
17.89818,47168
17.90752,42118
17.91687,39262
17.92620,39530
17.93553,40376
17.94488,41902
17.95422,39737
17.96355,36537
17.97290,37371
17.98223,35879
17.99157,36453
18.00092,35374
18.01025,36659
18.01958,37070
18.02893,37565
18.03827,38791
18.04760,45671
18.05695,49268
18.06628,53840
18.07562,50419
18.08497,37805
18.09430,35019
18.10365,34286
18.11298,36771
18.12232,38888
18.13167,40753
18.14100,41517
18.15033,40400
18.15968,40771
18.16902,42874
18.17835,44422
18.18770,42390
18.19703,39300
18.20637,35876
18.21572,36633
18.22505,39749
18.23438,38492
18.24373,39487
18.25307,35943
18.26240,34423
18.27175,34147
18.28108,40023
18.29043,42356
18.29977,47307
18.30910,52268
18.31845,54498
18.32778,52451
18.33712,52378
18.34647,53309
18.35580,57787
18.36513,59597
18.37448,60830
18.38382,58807
18.39315,56672
18.40250,53292
18.41183,53533
18.42117,49854
18.43052,45546
18.43985,43075
18.44918,47712
18.45853,48243
18.46787,45578
18.47722,40010
18.48655,42219
18.49588,48789
18.50523,61036
18.51457,73997
18.52390,73438
18.53325,61862
18.54258,52290
18.55192,49555
18.56127,51319
18.57060,47949
18.57993,44565
18.58928,41797
18.59862,41334
18.60795,46357
18.61730,47076
18.62663,49170
18.63597,47909
18.64532,48240
18.65465,47051
18.66400,44778
18.67333,43409
18.68267,40695
18.69202,43116
18.70135,42832
18.71068,46820
18.72003,49217
18.72937,50165
18.73870,49494
18.74805,45829
18.75738,43141
18.76672,40700
18.77607,36929
18.78540,33703
18.79473,35187
18.80408,36026
18.81342,35952
18.82277,36483
18.83210,37150
18.84143,36748
18.85078,35981
18.86012,35135
18.86945,35753
18.87880,35825
18.88813,33697
18.89747,34494
18.90682,37930
18.91615,47684
18.92548,52062
18.93483,49720
18.94417,46470
18.95350,47032
18.96285,53261
18.97218,55956
18.98152,56298
18.99087,51014
19.00020,41587
19.00955,41324
19.01888,40232
19.02822,39257
19.03757,41329
19.04690,47492
19.05623,64458
19.06558,77460
19.07492,89821
19.08425,112754
19.09360,131985
19.10293,110830
19.11227,76777
19.12162,52448
19.13095,40781
19.14028,36557
19.14963,35767
19.15897,34513
19.16830,33035
19.17765,33759
19.18698,35050
19.19633,39343
19.20567,43122
19.21500,45795
19.22435,44933
19.23368,43679
19.24302,42920
19.25237,38926
19.26170,36538
19.27103,36814
19.28038,40841
19.28972,44043
19.29905,47903
19.30840,54045
19.31773,66966
19.32707,67701
19.33642,59439
19.34575,49523
19.35508,42382
19.36443,37525
19.37377,35879
19.38312,35545
19.39245,34877
19.40178,36112
19.41113,39778
19.42047,40620
19.42980,37357
19.43915,35793
19.44848,33154
19.45782,34835
19.46717,34870
19.47650,36719
19.48583,41552
19.49518,42161
19.50452,39939
19.51385,38902
19.52320,36454
19.53253,37631
19.54188,37690
19.55122,36223
19.56055,36077
19.56990,35277
19.57923,39444
19.58857,42159
19.59792,42164
19.60725,40197
19.61658,40042
19.62593,39882
19.63527,40522
19.64460,46520
19.65395,44310
19.66328,40660
19.67262,37224
19.68197,37373
19.69130,39368
19.70063,44039
19.70998,49406
19.71932,50988
19.72867,58936
19.73800,67531
19.74733,67369
19.75668,54618
19.76602,46568
19.77535,45642
19.78470,46998
19.79403,45987
19.80337,42586
19.81272,39573
19.82205,37777
19.83138,37829
19.84073,40012
19.85007,40092
19.85940,40978
19.86875,42678
19.87808,53652
19.88742,65222
19.89677,57976
19.90610,46121
19.91545,39530
19.92478,38768
19.93412,36643
19.94347,34192
19.95280,35400
19.96213,34823
19.97148,37826
19.98082,37508
19.99015,35559
19.99950,33485
20.00883,35247
20.01817,34519
20.02752,35114
20.03685,38241
20.04618,41702
20.05553,42115
20.06487,41093
20.07420,41033
20.08355,39122
20.09288,40995
20.10223,37212
20.11157,34203
20.12090,34213
20.13025,32030
20.13958,32589
20.14892,38167
20.15827,45827
20.16760,48783
20.17693,45382
20.18628,37013
20.19562,34535
20.20495,34073
20.21430,34631
20.22363,36212
20.23297,35494
20.24232,35405
20.25165,34558
20.26098,34638
20.27033,32118
20.27967,33903
20.28902,33865
20.29835,34720
20.30768,33236
20.31703,34528
20.32637,31557
20.33570,32310
20.34505,32008
20.35438,32488
20.36372,33498
20.37307,32031
20.38240,33294
20.39173,32603
20.40108,29361
20.41042,29667
20.41975,29572
20.42910,31380
20.43843,31960
20.44777,32501
20.45712,32485
20.46645,38453
20.47580,43260
20.48513,46681
20.49447,43378
20.50382,37984
20.51315,32266
20.52248,32229
20.53183,32877
20.54117,35259
20.55050,37182
20.55985,46322
20.56918,82487
20.57852,186496
20.58787,270807
20.59720,213072
20.60653,108413
20.61588,54821
20.62522,42264
20.63457,40209
20.64390,37893
20.65323,39996
20.66258,39938
20.67192,37950
20.68125,37179
20.69060,39456
20.69993,37583
20.70927,38145
20.71862,36928
20.72795,38368
20.73728,38205
20.74663,37898
20.75597,35206
20.76530,34720
20.77465,34810
20.78398,35762
20.79332,38531
20.80267,39622
20.81200,41983
20.82135,41753
20.83068,37239
20.84002,33941
20.84937,32615
20.85870,33495
20.86803,30371
20.87738,31379
20.88672,32658
20.89605,35419
20.90540,36554
20.91473,35589
20.92407,34697
20.93342,33920
20.94275,32528
20.95208,32431
20.96143,33890
20.97077,31858
20.98010,31885
20.98945,31393
20.99878,30997
21.00813,31903
21.01747,33463
21.02680,32650
21.03615,32238
21.04548,32845
21.05482,32379
21.06417,32988
21.07350,34840
21.08283,33463
21.09218,33610
21.10152,33472
21.11085,33031
21.12020,36239
21.12953,36792
21.13887,34493
21.14822,32763
21.15755,33630
21.16688,35384
21.17623,38940
21.18557,47001
21.19492,51515
21.20425,48090
21.21358,42244
21.22293,38605
21.23227,34343
21.24160,34552
21.25095,34464
21.26028,34441
21.26962,35129
21.27897,39587
21.28830,43880
21.29763,43843
21.30698,41569
21.31632,37200
21.32565,35057
21.33500,35541
21.34433,37284
21.35368,37956
21.36302,36959
21.37235,34350
21.38170,35434
21.39103,35200
21.40037,37103
21.40972,37505
21.41905,39181
21.42838,38881
21.43773,39780
21.44707,35462
21.45640,35742
21.46575,35134
21.47508,35100
21.48442,39097
21.49377,39243
21.50310,41350
21.51243,41953
21.52178,42506
21.53112,38323
21.54047,34427
21.54980,33849
21.55913,39978
21.56848,55123
21.57782,67192
21.58715,71854
21.59650,60373
21.60583,44324
21.61517,41441
21.62452,36204
21.63385,38487
21.64318,41124
21.65253,38570
21.66187,35897
21.67120,37014
21.68055,43092
21.68988,43811
21.69922,42464
21.70857,41323
21.71790,43056
21.72725,45735
21.73658,46689
21.74592,44723
21.75527,39442
21.76460,37023
21.77393,34612
21.78328,34352
21.79262,34406
21.80195,37120
21.81130,39997
21.82063,42998
21.82997,42848
21.83932,42997
21.84865,39066
21.85798,38176
21.86733,36657
21.87667,37626
21.88600,41996
21.89535,44738
21.90468,45814
21.91403,40744
21.92337,36670
21.93270,35434
21.94205,35377
21.95138,35536
21.96072,35736
21.97007,43328
21.97940,46366
21.98873,55123
21.99808,57739
22.00742,53854
22.01675,50231
22.02610,40992
22.03543,39156
22.04477,42417
22.05412,44403
22.06345,47516
22.07278,45297
22.08213,43322
22.09147,43207
22.10082,41230
22.11015,40416
22.11948,38883
22.12883,38609
22.13817,38737
22.14750,38291
22.15685,42110
22.16618,49339
22.17552,53544
22.18487,53214
22.19420,47691
22.20353,41828
22.21288,39398
22.22222,41826
22.23155,42766
22.24090,45915
22.25023,44570
22.25958,41004
22.26892,41722
22.27825,47968
22.28760,54306
22.29693,59607
22.30627,58149
22.31562,52603
22.32495,45281
22.33428,40978
22.34363,41057
22.35297,45145
22.36230,49264
22.37165,52919
22.38098,55356
22.39032,53414
22.39967,49647
22.40900,46566
22.41833,42974
22.42768,47018
22.43702,48885
22.44637,48513
22.45570,48719
22.46503,46378
22.47438,45566
22.48372,44507
22.49305,45447
22.50240,43099
22.51173,41320
22.52107,42763
22.53042,41150
22.53975,40373
22.54908,42511
22.55843,43361
22.56777,44987
22.57710,50470
22.58645,51857
22.59578,48606
22.60512,53568
22.61447,55872
22.62380,53805
22.63315,52899
22.64248,50718
22.65182,46507
22.66117,44621
22.67050,43564
22.67983,44300
22.68918,47095
22.69852,52630
22.70785,52560
22.71720,47888
22.72653,46727
22.73587,48432
22.74522,51366
22.75455,50626
22.76388,51732
22.77323,48119
22.78257,45451
22.79190,47717
22.80125,46832
22.81058,50719
22.81993,51034
22.82927,46327
22.83860,45252
22.84795,45798
22.85728,42971
22.86662,42046
22.87597,41608
22.88530,44715
22.89463,42130
22.90398,40377
22.91332,43859
22.92265,43135
22.93200,46314
22.94133,42992
22.95067,43553
22.96002,41766
22.96935,41453
22.97870,39810
22.98803,39091
22.99737,38079
23.00672,39624
23.01605,36232
23.02538,36240
23.03473,36628
23.04407,36928
23.05340,39096
23.06275,38429
23.07208,38211
23.08142,40278
23.09077,37712
23.10010,36820
23.10943,37426
23.11878,35387
23.12812,35994
23.13745,36046
23.14680,35847
23.15613,35491
23.16548,34756
23.17482,37518
23.18415,38907
23.19350,35683
23.20283,35426
23.21217,35856
23.22152,34284
23.23085,35400
23.24018,37047
23.24953,38908
23.25887,41644
23.26820,44633
23.27755,45136
23.28688,40165
23.29622,36740
23.30557,40043
23.31490,38995
23.32423,39340
23.33358,48153
23.34292,53372
23.35227,53537
23.36160,47018
23.37093,41383
23.38028,38541
23.38962,37639
23.39895,38498
23.40830,37327
23.41763,38436
23.42697,36958
23.43632,35899
23.44565,37990
23.45498,36584
23.46433,37446
23.47367,37789
23.48300,36063
23.49235,37191
23.50168,37425
23.51102,34913
23.52037,36857
23.52970,38256
23.53905,37046
23.54838,36694
23.55772,34848
23.56707,34922
23.57640,36306
23.58573,36810
23.59508,37988
23.60442,37898
23.61375,36589
23.62310,37132
23.63243,33543
23.64177,33153
23.65112,33072
23.66045,34274
23.66978,34535
23.67913,34159
23.68847,37390
23.69780,38918
23.70715,40425
23.71648,43042
23.72583,41888
23.73517,47717
23.74450,49243
23.75385,45410
23.76318,41151
23.77252,37830
23.78187,35801
23.79120,34015
23.80053,33830
23.80988,33410
23.81922,35514
23.82855,34455
23.83790,36581
23.84723,34055
23.85657,34424
23.86592,34051
23.87525,35177
23.88458,36878
23.89393,36060
23.90327,37249
23.91262,38849
23.92195,35421
23.93128,37271
23.94063,35442
23.94997,35424
23.95930,36103
23.96865,37020
23.97798,35307
23.98732,32044
23.99667,34921
24.00600,34607
24.01533,36899
24.02468,36016
24.03402,34608
24.04335,35390
24.05270,34032
24.06203,32861
24.07138,35354
24.08072,35609
24.09005,36565
24.09940,34210
24.10873,34408
24.11807,34485
24.12742,33817
24.13675,34906
24.14608,34761
24.15543,36316
24.16477,33431
24.17410,35385
24.18345,35650
24.19278,34985
24.20212,35664
24.21147,35446
24.22080,34551
24.23013,35615
24.23948,36753
24.24882,36392
24.25817,37545
24.26750,35673
24.27683,37387
24.28618,36531
24.29552,37048
24.30485,35455
24.31420,36154
24.32353,37994
24.33287,40086
24.34222,38150
24.35155,38023
24.36088,36085
24.37023,36994
24.37957,38233
24.38890,36742
24.39825,35842
24.40758,38331
24.41692,36305
24.42627,36139
24.43560,36530
24.44495,35964
24.45428,35642
24.46362,34336
24.47297,34829
24.48230,36723
24.49163,35654
24.50098,36217
24.51032,37356
24.51965,36035
24.52900,36830
24.53833,35981
24.54767,38391
24.55702,35908
24.56635,38498
24.57568,39413
24.58503,36943
24.59437,36322
24.60370,37317
24.61305,38077
24.62238,38208
24.63173,40008
24.64107,38818
24.65040,35957
24.65975,37820
24.66908,38086
24.67842,39394
24.68777,37951
24.69710,37596
24.70643,35640
24.71578,37548
24.72512,40168
24.73445,34803
24.74380,35619
24.75313,36228
24.76247,34772
24.77182,36915
24.78115,37181
24.79050,34737
24.79983,35788
24.80917,35662
24.81852,37453
24.82785,38042
24.83718,36953
24.84653,35274
24.85587,37572
24.86520,37319
24.87455,38481
24.88388,38643
24.89322,40417
24.90257,40760
24.91190,39365
24.92123,39340
24.93058,39199
24.93992,39854
24.94925,39206
24.95860,38672
24.96793,39957
24.97728,40707
24.98662,40213
24.99595,39858
25.00530,38466
25.01463,38087
25.02397,38309
25.03332,37151
25.04265,38844
25.05198,35571
25.06133,37811
25.07067,36735
25.08000,36826
25.08935,36871
25.09868,37050
25.10802,39104
25.11737,38183
25.12670,39523
25.13603,38887
25.14538,42291
25.15472,42018
25.16407,43620
25.17340,41387
25.18273,40941
25.19208,42388
25.20142,41862
25.21075,42015
25.22010,42570
25.22943,40883
25.23877,40209
25.24812,40655
25.25745,39097
25.26678,39334
25.27613,40448
25.28547,40588
25.29480,41221
25.30415,40074
25.31348,44401
25.32282,65861
25.33217,104830
25.34150,136736
25.35085,123783
25.36018,89120
25.36952,68638
25.37887,62975
25.38820,56009
25.39753,53099
25.40688,51642
25.41622,54273
25.42555,51487
25.43490,51042
25.44423,53552
25.45357,51550
25.46292,52341
25.47225,53423
25.48158,55463
25.49093,56634
25.50027,58489
25.50960,58089
25.51895,59366
25.52828,57939
25.53763,56628
25.54697,57074
25.55630,54806
25.56565,55708
25.57498,53929
25.58432,50145
25.59367,49549
25.60300,50014
25.61233,49353
25.62168,48003
25.63102,48276
25.64035,49004
25.64970,51415
25.65903,53360
25.66837,51784
25.67772,51611
25.68705,49656
25.69640,46778
25.70573,45828
25.71507,47779
25.72442,46064
25.73375,46766
25.74308,48010
25.75243,47733
25.76177,48941
25.77110,48599
25.78045,50892
25.78978,49289
25.79912,49358
25.80847,50836
25.81780,51529
25.82713,50062
25.83648,49347
25.84582,51788
25.85515,49128
25.86450,48066
25.87383,47068
25.88318,46117
25.89252,45823
25.90185,44897
25.91120,47866
25.92053,46549
25.92987,46868
25.93922,46217
25.94855,48325
25.95788,49629
25.96723,51657
25.97657,47300
25.98590,45255
25.99525,47036
26.00458,47368
26.01392,46797
26.02327,47013
26.03260,48432
26.04193,49810
26.05128,48459
26.06062,47013
26.06997,48689
26.07930,48266
26.08863,47613
26.09798,49673
26.10732,48555
26.11665,47090
26.12600,48877
26.13533,51301
26.14467,55477
26.15402,57207
26.16335,55802
26.17268,53759
26.18203,54723
26.19137,49837
26.20070,47957
26.21005,47191
26.21938,46622
26.22872,45830
26.23807,45792
26.24740,48085
26.25675,45554
26.26608,45642
26.27542,47244
26.28477,47386
26.29410,44362
26.30343,46929
26.31278,47917
26.32212,47925
26.33145,47829
26.34080,48147
26.35013,47974
26.35947,47037
26.36882,44910
26.37815,44917
26.38748,44643
26.39683,45300
26.40617,45085
26.41552,43097
26.42485,45032
26.43418,45486
26.44353,43534
26.45287,46089
26.46220,49314
26.47155,50131
26.48088,49605
26.49022,49832
26.49957,49947
26.50890,50539
26.51823,48525
26.52758,50775
26.53692,53128
26.54625,55439
26.55560,53822
26.56493,53006
26.57427,52317
26.58362,52805
26.59295,51687
26.60230,52128
26.61163,55519
26.62097,54255
26.63032,53228
26.63965,49654
26.64898,50982
26.65833,47797
26.66767,52516
26.67700,52062
26.68635,51440
26.69568,49610
26.70502,47825
26.71437,48717
26.72370,49454
26.73303,47712
26.74238,47370
26.75172,47656
26.76105,46174
26.77040,46154
26.77973,48333
26.78908,50152
26.79842,49330
26.80775,49369
26.81710,48949
26.82643,51695
26.83577,48804
26.84512,50605
26.85445,49009
26.86378,51552
26.87313,48517
26.88247,48854
26.89180,48183
26.90115,49709
26.91048,49230
26.91982,49404
26.92917,48599
26.93850,48858
26.94783,47487
26.95718,47587
26.96652,49312
26.97587,46566
26.98520,48151
26.99453,49201
27.00388,50751
27.01322,52504
27.02255,52677
27.03190,51491
27.04123,50207
27.05057,53893
27.05992,52720
27.06925,52075
27.07858,52788
27.08793,51054
27.09727,52107
27.10660,53796
27.11595,49265
27.12528,50802
27.13462,51826
27.14397,52111
27.15330,55821
27.16265,52099
27.17198,53564
27.18132,52178
27.19067,52367
27.20000,54701
27.20933,53412
27.21868,53062
27.22802,56272
27.23735,56291
27.24670,59992
27.25603,63510
27.26537,66166
27.27472,68465
27.28405,64849
27.29338,62799
27.30273,61603
27.31207,60774
27.32140,59887
27.33075,60202
27.34008,60927
27.34943,59461
27.35877,56266
27.36810,60868
27.37745,55213
27.38678,56825
27.39612,57124
27.40547,52404
27.41480,56304
27.42413,57532
27.43348,57749
27.44282,57306
27.45215,56643
27.46150,58305
27.47083,60166
27.48017,61883
27.48952,64124
27.49885,69851
27.50820,74323
27.51753,83961
27.52687,83815
27.53622,85608
27.54555,86359
27.55488,85482
27.56423,84443
27.57357,79869
27.58290,75550
27.59225,72541
27.60158,67756
27.61092,66243
27.62027,64290
27.62960,63195
27.63893,60422
27.64828,61060
27.65762,61152
27.66695,62925
27.67630,77465
27.68563,84607
27.69498,83814
27.70432,72990
27.71365,65510
27.72300,66268
27.73233,63225
27.74167,61543
27.75102,60737
27.76035,59834
27.76968,55916
27.77903,56965
27.78837,58374
27.79770,60009
27.80705,59741
27.81638,59519
27.82572,56097
27.83507,56350
27.84440,56360
27.85373,56588
27.86308,56879
27.87242,55207
27.88177,57905
27.89110,58668
27.90043,57529
27.90978,55552
27.91912,58427
27.92845,57099
27.93780,56709
27.94713,56937
27.95647,56734
27.96582,55674
27.97515,55312
27.98448,57487
27.99383,55947
28.00317,54032
28.01250,56074
28.02185,55325
28.03118,54960
28.04052,56299
28.04987,55568
28.05920,57184
28.06855,54582
28.07788,55032
28.08722,55819
28.09657,58908
28.10590,56918
28.11523,60120
28.12458,67090
28.13392,70039
28.14325,71041
28.15260,67567
28.16193,61958
28.17127,63845
28.18062,62441
28.18995,61844
28.19928,59099
28.20863,59066
28.21797,57387
28.22732,59375
28.23665,57356
28.24598,58580
28.25533,58618
28.26467,59743
28.27400,59444
28.28335,55693
28.29268,59068
28.30202,56593
28.31137,57240
28.32070,58240
28.33003,56641
28.33938,56939
28.34872,59064
28.35805,57142
28.36740,56410
28.37673,59038
28.38607,58482
28.39542,59119
28.40475,60068
28.41410,57396
28.42343,59655
28.43277,59413
28.44212,60157
28.45145,58202
28.46078,61323
28.47013,62771
28.47947,57250
28.48880,58606
28.49815,61323
28.50748,57407
28.51682,59922
28.52617,60090
28.53550,61982
28.54483,62467
28.55418,59439
28.56352,59147
28.57285,60619
28.58220,57328
28.59153,62608
28.60088,64095
28.61022,65678
28.61955,65407
28.62890,64588
28.63823,64088
28.64757,64246
28.65692,65755
28.66625,71396
28.67558,88507
28.68493,112711
28.69427,123607
28.70360,109521
28.71295,89543
28.72228,78936
28.73162,69800
28.74097,66800
28.75030,68396
28.75963,67727
28.76898,65369
28.77832,64701
28.78767,67194
28.79700,64978
28.80633,64836
28.81568,65238
28.82502,65005
28.83435,62610
28.84370,65738
28.85303,65395
28.86237,67930
28.87172,64002
28.88105,64350
28.89038,67202
28.89973,62545
28.90907,66868
28.91840,63742
28.92775,63885
28.93708,64908
28.94642,68289
28.95577,65611
28.96510,68926
28.97445,70115
28.98378,70137
28.99312,68758
29.00247,70001
29.01180,68620
29.02113,67272
29.03048,69296
29.03982,68812
29.04915,69333
29.05850,69187
29.06783,68460
29.07717,69442
29.08652,66785
29.09585,67788
29.10518,70577
29.11453,68012
29.12387,68985
29.13322,67710
29.14255,68052
29.15188,67618
29.16123,68158
29.17057,66912
29.17990,70095
29.18925,73557
29.19858,80617
29.20792,99347
29.21727,107268
29.22660,100523
29.23593,89932
29.24528,79832
29.25462,78445
29.26395,75716
29.27330,74807
29.28263,73284
29.29197,71944
29.30132,71925
29.31065,72353
29.32000,70858
29.32933,69490
29.33867,69734
29.34802,69437
29.35735,73581
29.36668,71642
29.37603,69200
29.38537,69117
29.39470,70924
29.40405,68631
29.41338,69833
29.42272,71505
29.43207,71666
29.44140,72472
29.45073,68653
29.46008,74362
29.46942,72934
29.47875,74993
29.48810,76581
29.49743,75011
29.50678,74130
29.51612,74557
29.52545,69999
29.53480,71901
29.54413,69819
29.55347,71518
29.56282,71250
29.57215,71477
29.58148,69120
29.59083,69917
29.60017,70017
29.60950,69579
29.61885,69109
29.62818,68625
29.63752,68463
29.64687,70369
29.65620,70105
29.66553,71080
29.67488,71845
29.68422,70915
29.69357,69925
29.70290,68334
29.71223,72903
29.72158,71036
29.73092,68916
29.74025,73292
29.74960,73473
29.75893,73776
29.76827,73879
29.77762,71588
29.78695,71700
29.79628,72293
29.80563,70333
29.81497,68705
29.82430,68934
29.83365,68887
29.84298,70618
29.85233,69480
29.86167,67975
29.87100,69628
29.88035,70499
29.88968,71921
29.89902,67064
29.90837,71535
29.91770,70011
29.92703,71852
29.93638,72856
29.94572,73058
29.95505,71750
29.96440,71786
29.97373,72699
29.98307,79733
29.99242,80116
30.00175,81356
30.01108,79171
30.02043,74735
30.02977,71617
30.03912,72593
30.04845,70970
30.05778,70308
30.06713,71827
30.07647,71291
30.08580,75897
30.09515,75106
30.10448,73342
30.11382,81103
30.12317,84044
30.13250,90329
30.14183,94589
30.15118,100008
30.16052,103400
30.16985,108000
30.17920,106416
30.18853,107736
30.19787,102806
30.20722,101136
30.21655,95395
30.22590,94760
30.23523,88773
30.24457,89268
30.25392,84164
30.26325,81950
30.27258,82439
30.28193,81631
30.29127,81086
30.30060,81999
30.30995,79500
30.31928,75332
30.32862,76517
30.33797,74018
30.34730,78804
30.35663,80749
30.36598,82822
30.37532,85013
30.38465,88934
30.39400,101140
30.40333,117659
30.41268,134304
30.42202,139568
30.43135,125860
30.44070,112046
30.45003,101209
30.45937,90078
30.46872,88254
30.47805,87681
30.48738,86486
30.49673,82963
30.50607,81378
30.51540,78686
30.52475,79059
30.53408,75787
30.54342,77273
30.55277,78213
30.56210,76081
30.57143,78629
30.58078,78350
30.59012,78405
30.59947,82661
30.60880,83205
30.61813,85963
30.62748,89364
30.63682,94502
30.64615,96261
30.65550,98018
30.66483,101402
30.67417,99220
30.68352,95084
30.69285,94619
30.70218,91144
30.71153,90393
30.72087,89948
30.73020,85258
30.73955,82852
30.74888,83695
30.75822,82115
30.76757,80807
30.77690,81396
30.78625,81215
30.79558,82221
30.80492,83131
30.81427,84681
30.82360,81575
30.83293,81741
30.84228,84955
30.85162,82356
30.86095,84157
30.87030,86263
30.87963,86971
30.88897,87422
30.89832,88433
30.90765,88430
30.91698,88121
30.92633,87212
30.93567,86570
30.94502,87905
30.95435,86356
30.96368,87529
30.97303,88850
30.98237,83756
30.99170,87885
31.00105,83667
31.01038,81552
31.01972,83814
31.02907,84348
31.03840,83312
31.04773,81482
31.05708,82057
31.06642,83886
31.07575,83098
31.08510,82646
31.09443,86895
31.10377,84733
31.11312,85326
31.12245,85611
31.13180,88507
31.14113,87154
31.15047,86632
31.15982,87304
31.16915,89244
31.17848,86367
31.18783,88241
31.19717,88340
31.20650,88863
31.21585,90851
31.22518,91195
31.23452,87889
31.24387,88289
31.25320,89104
31.26253,86473
31.27188,85735
31.28122,89783
31.29055,85027
31.29990,87061
31.30923,87576
31.31858,87371
31.32792,85713
31.33725,85660
31.34660,86039
31.35593,84477
31.36527,81732
