D:\数据\202112114\ZS1E-TJ-000106.D Tue Dec 14 12:55:36 2021
Start of data points
0.09758,28823
0.10692,28484
0.11625,27649
0.12560,28798
0.13493,28224
0.14427,29955
0.15362,26977
0.16295,27650
0.17228,28906
0.18163,27611
0.19097,28335
0.20032,28540
0.20965,28355
0.21898,28030
0.22833,27536
0.23767,27052
0.24700,27352
0.25635,27879
0.26568,27758
0.27502,26662
0.28437,27935
0.29370,27640
0.30303,26969
0.31238,26099
0.32172,26743
0.33105,26585
0.34040,28007
0.34973,28190
0.35908,26778
0.36842,26556
0.37775,27474
0.38710,28166
0.39643,25137
0.40577,21843
0.41512,18913
0.42445,15598
0.43378,9883
0.44313,6695
0.45247,5680
0.46180,5618
0.47115,5691
0.48048,5686
0.48982,5788
0.49917,5710
0.50850,6344
0.51783,5117
0.52718,5652
0.53652,5922
0.54587,6308
0.55520,4820
0.56453,5246
0.57388,4877
0.58322,4850
0.59255,5252
0.60190,5354
0.61123,5953
0.62057,5128
0.62992,5392
0.63925,4996
0.64858,4931
0.65793,5252
0.66727,5244
0.67660,4722
0.68595,5199
0.69528,4622
0.70462,4634
0.71397,5333
0.72330,4910
0.73265,4708
0.74198,4323
0.75132,5661
0.76067,4946
0.77000,4720
0.77933,4454
0.78868,5418
0.79802,4513
0.80735,4718
0.81670,4711
0.82603,4379
0.83537,4336
0.84472,4898
0.85405,4556
0.86338,4859
0.87273,4114
0.88207,4917
0.89140,4699
0.90075,4406
0.91008,5121
0.91943,5083
0.92877,4691
0.93810,4561
0.94745,4907
0.95678,4611
0.96612,3908
0.97547,4510
0.98480,4856
0.99413,4595
1.00348,4796
1.01282,5325
1.02215,4821
1.03150,5069
1.04083,4532
1.05017,4316
1.05952,4500
1.06885,4755
1.07818,4333
1.08753,4572
1.09687,4424
1.10622,4617
1.11555,4386
1.12488,3838
1.13423,4939
1.14357,3844
1.15290,3943
1.16225,4276
1.17158,4853
1.18092,4098
1.19027,5238
1.19960,4337
1.20893,4421
1.21828,4436
1.22762,4332
1.23695,4833
1.24630,4307
1.25563,4462
1.26498,4751
1.27432,4417
1.28365,4249
1.29300,4759
1.30233,3980
1.31167,4785
1.32102,4537
1.33035,4455
1.33968,4230
1.34903,4636
1.35837,4554
1.36770,4707
1.37705,4852
1.38638,4378
1.39572,4507
1.40507,4208
1.41440,3852
1.42373,3705
1.43308,3661
1.44242,4202
1.45177,4370
1.46110,4517
1.47043,3697
1.47978,3745
1.48912,3942
1.49845,4123
1.50780,4143
1.51713,4417
1.52647,4394
1.53582,4520
1.54515,4615
1.55448,4604
1.56383,3808
1.57317,4734
1.58250,6222
1.59185,12854
1.60118,19972
1.61052,24816
1.61987,31716
1.62920,42151
1.63855,52995
1.64788,56500
1.65722,53838
1.66657,47484
1.67590,40245
1.68523,36679
1.69458,28178
1.70392,21583
1.71325,20553
1.72260,21965
1.73193,25401
1.74127,28315
1.75062,30717
1.75995,33533
1.76928,34770
1.77863,36207
1.78797,35769
1.79730,34478
1.80665,34268
1.81598,34733
1.82533,34692
1.83467,34576
1.84400,32997
1.85335,33710
1.86268,36322
1.87202,39713
1.88137,50862
1.89070,78896
1.90003,117297
1.90938,149130
1.91872,177144
1.92805,263152
1.93740,457177
1.94673,731136
1.95607,909367
1.96542,903812
1.97475,755117
1.98410,565661
1.99343,413470
2.00277,340011
2.01212,311995
2.02145,333481
2.03078,334643
2.04013,269114
2.04947,212672
2.05880,159364
2.06815,123664
2.07748,102224
2.08682,87079
2.09617,74908
2.10550,69510
2.11483,66894
2.12418,72055
2.13352,81652
2.14285,115000
2.15220,135785
2.16153,132014
2.17088,116447
2.18022,117405
2.18955,161278
2.19890,208097
2.20823,165694
2.21757,112195
2.22692,103728
2.23625,145251
2.24558,249448
2.25493,1379114
2.26427,3528351
2.27360,3524361
2.28295,2460564
2.29228,1479784
2.30162,1108971
2.31097,2977596
2.32030,8273013
2.32963,9701832
2.33898,5970300
2.34832,2666671
2.35767,1139682
2.36700,545323
2.37633,313147
2.38568,242480
2.39502,201560
2.40435,165483
2.41370,146946
2.42303,135825
2.43237,140308
2.44172,137040
2.45105,119676
2.46038,112591
2.46973,126905
2.47907,135563
2.48840,118235
2.49775,94418
2.50708,76003
2.51642,70309
2.52577,65185
2.53510,62451
2.54445,66022
2.55378,75934
2.56312,102112
2.57247,164947
2.58180,247246
2.59113,221939
2.60048,176970
2.60982,153418
2.61915,161694
2.62850,173489
2.63783,159950
2.64717,133357
2.65652,121778
2.66585,107331
2.67518,95072
2.68453,80389
2.69387,67555
2.70320,63528
2.71255,67065
2.72188,88786
2.73123,120600
2.74057,138828
2.74990,149152
2.75925,168159
2.76858,165593
2.77792,170650
2.78727,200522
2.79660,207249
2.80593,176403
2.81528,167038
2.82462,187490
2.83395,180579
2.84330,157658
2.85263,163017
2.86197,198277
2.87132,196249
2.88065,189459
2.89000,164018
2.89933,127577
2.90867,102480
2.91802,89406
2.92735,83375
2.93668,72895
2.94603,65433
2.95537,59307
2.96470,56407
2.97405,55066
2.98338,55342
2.99272,57818
3.00207,65101
3.01140,71769
3.02073,68402
3.03008,63845
3.03942,68519
3.04875,95543
3.05810,141438
3.06743,192928
3.07678,187092
3.08612,135883
3.09545,92548
3.10480,66590
3.11413,56657
3.12347,52959
3.13282,54510
3.14215,56103
3.15148,61139
3.16083,68373
3.17017,73960
3.17950,65252
3.18885,58283
3.19818,54536
3.20752,54059
3.21687,54539
3.22620,57354
3.23553,53422
3.24488,52105
3.25422,48424
3.26357,49030
3.27290,49248
3.28223,48215
3.29158,50763
3.30092,60248
3.31025,66347
3.31960,62023
3.32893,55025
3.33827,52711
3.34762,53826
3.35695,54505
3.36628,53704
3.37563,49759
3.38497,49466
3.39430,46048
3.40365,47863
3.41298,61984
3.42232,73791
3.43167,74378
3.44100,67711
3.45035,70045
3.45968,76823
3.46902,72238
3.47837,65219
3.48770,61418
3.49703,60523
3.50638,58110
3.51572,52778
3.52505,51079
3.53440,51434
3.54373,61593
3.55307,113228
3.56242,264135
3.57175,457300
3.58108,461425
3.59043,304905
3.59977,170907
3.60912,108911
3.61845,124199
3.62778,137184
3.63713,117690
3.64647,99953
3.65580,83413
3.66515,80730
3.67448,85212
3.68382,84616
3.69317,73195
3.70250,63481
3.71183,58883
3.72118,63261
3.73052,65493
3.73985,63715
3.74920,58021
3.75853,54430
3.76787,52888
3.77722,49202
3.78655,47146
3.79590,51692
3.80523,92473
3.81457,213379
3.82392,331916
3.83325,303438
3.84258,188152
3.85193,106907
3.86127,72817
3.87060,60531
3.87995,56655
3.88928,57744
3.89862,64176
3.90797,66599
3.91730,65149
3.92663,65208
3.93598,65658
3.94532,76209
3.95465,113248
3.96400,136475
3.97333,113906
3.98268,85109
3.99202,65054
4.00135,55777
4.01070,50977
4.02003,65947
4.02937,71305
4.03872,94563
4.04805,133691
4.05738,147151
4.06673,118820
4.07607,107096
4.08540,124999
4.09475,141146
4.10408,136070
4.11342,105718
4.12277,78369
4.13210,65087
4.14143,59347
4.15078,55308
4.16012,56312
4.16947,54055
4.17880,52831
4.18813,48367
4.19748,47564
4.20682,50453
4.21615,51773
4.22550,51624
4.23483,49141
4.24417,47787
4.25352,47032
4.26285,46285
4.27218,48700
4.28153,55282
4.29087,65674
4.30020,67564
4.30955,66485
4.31888,65214
4.32822,67047
4.33757,67314
4.34690,62586
4.35625,61124
4.36558,52896
4.37492,49446
4.38427,48530
4.39360,51126
4.40293,53171
4.41228,51084
4.42162,48861
4.43095,46885
4.44030,44948
4.44963,42451
4.45897,43333
4.46832,49567
4.47765,59366
4.48698,66772
4.49633,64776
4.50567,55098
4.51502,50141
4.52435,46796
4.53368,47507
4.54303,49390
4.55237,50717
4.56170,53646
4.57105,52983
4.58038,49452
4.58972,48338
4.59907,47084
4.60840,45385
4.61773,44584
4.62708,40632
4.63642,43651
4.64575,45987
4.65510,57276
4.66443,65178
4.67377,62342
4.68312,62060
4.69245,62806
4.70180,69832
4.71113,72068
4.72047,61188
4.72982,51779
4.73915,46084
4.74848,51113
4.75783,54615
4.76717,55320
4.77650,53164
4.78585,52937
4.79518,50695
4.80452,48696
4.81387,48889
4.82320,49381
4.83253,48041
4.84188,48582
4.85122,50612
4.86055,49310
4.86990,52202
4.87923,58390
4.88858,63790
4.89792,59217
4.90725,56929
4.91660,53270
4.92593,50174
4.93527,51706
4.94462,53653
4.95395,49958
4.96328,48227
4.97263,45794
4.98197,44356
4.99130,42936
5.00065,42040
5.00998,43679
5.01932,47303
5.02867,49386
5.03800,56198
5.04733,57062
5.05668,54065
5.06602,51463
5.07537,52749
5.08470,55888
5.09403,56109
5.10338,54663
5.11272,51394
5.12205,45826
5.13140,49073
5.14073,49131
5.15007,52792
5.15942,51935
5.16875,50902
5.17808,46462
5.18743,46332
5.19677,46740
5.20610,56046
5.21545,56529
5.22478,52150
5.23413,51206
5.24347,53700
5.25280,54085
5.26215,55219
5.27148,69764
5.28082,141976
5.29017,274523
5.29950,338704
5.30883,266173
5.31818,153536
5.32752,95008
5.33685,75034
5.34620,63919
5.35553,54450
5.36487,50623
5.37422,51755
5.38355,56465
5.39288,65766
5.40223,72974
5.41157,68117
5.42092,63806
5.43025,52557
5.43958,47798
5.44893,46238
5.45827,45795
5.46760,45264
5.47695,46031
5.48628,45061
5.49562,46416
5.50497,46379
5.51430,50817
5.52363,54751
5.53298,60397
5.54232,61257
5.55165,58380
5.56100,53200
5.57033,49605
5.57967,47335
5.58902,43599
5.59835,42955
5.60770,42588
5.61703,42871
5.62637,43608
5.63572,43604
5.64505,43165
5.65438,43481
5.66373,45651
5.67307,47716
5.68240,46551
5.69175,49838
5.70108,55723
5.71042,61337
5.71977,71138
5.72910,72123
5.73843,62936
5.74778,63974
5.75712,73263
5.76645,76078
5.77580,69196
5.78513,77039
5.79448,73845
5.80382,65333
5.81315,56892
5.82250,54684
5.83183,56532
5.84117,58162
5.85052,55991
5.85985,49928
5.86918,44796
5.87853,38166
5.88787,35206
5.89720,33586
5.90655,39647
5.91588,77023
5.92522,150200
5.93457,195757
5.94390,159324
5.95323,115631
5.96258,101989
5.97192,82999
5.98127,64846
5.99060,49588
5.99993,41808
6.00928,35087
6.01862,30500
6.02795,28503
6.03730,27784
6.04663,25647
6.05597,26682
6.06532,29919
6.07465,30066
6.08398,28139
6.09333,25206
6.10267,21013
6.11200,21151
6.12135,28373
6.13068,39186
6.14002,51611
6.14937,49685
6.15870,35019
6.16805,26991
6.17738,21702
6.18672,20492
6.19607,21121
6.20540,18441
6.21473,20719
6.22408,21204
6.23342,26046
6.24275,27118
6.25210,26963
6.26143,21413
6.27077,20732
6.28012,22847
6.28945,28512
6.29878,31313
6.30813,25521
6.31747,21540
6.32682,18701
6.33615,16740
6.34548,18478
6.35483,17869
6.36417,18729
6.37350,19508
6.38285,25580
6.39218,45472
6.40152,180042
6.41087,606972
6.42020,1108775
6.42953,1055699
6.43888,569092
6.44822,190119
6.45755,63594
6.46690,34443
6.47623,29708
6.48557,26041
6.49492,23529
6.50425,21642
6.51360,21115
6.52293,22579
6.53227,23112
6.54162,20359
6.55095,18377
6.56028,17813
6.56963,19052
6.57897,19416
6.58830,20784
6.59765,22530
6.60698,24723
6.61632,25465
6.62567,24219
6.63500,25631
6.64433,25581
6.65368,26275
6.66302,27002
6.67235,27893
6.68170,27256
6.69103,23709
6.70038,23735
6.70972,25258
6.71905,31429
6.72840,31998
6.73773,28767
6.74707,24250
6.75642,22621
6.76575,21833
6.77508,20735
6.78443,22139
6.79377,25766
6.80310,32355
6.81245,33172
6.82178,28739
6.83112,23350
6.84047,23079
6.84980,23674
6.85913,29687
6.86848,28486
6.87782,25054
6.88717,23060
6.89650,20855
6.90583,20514
6.91518,23285
6.92452,24830
6.93385,22592
6.94320,20682
6.95253,22214
6.96187,21997
6.97122,21863
6.98055,22892
6.98988,23244
6.99923,22159
7.00857,19960
7.01790,21223
7.02725,20463
7.03658,19396
7.04593,16433
7.05527,15471
7.06460,14406
7.07395,14995
7.08328,15795
7.09262,18141
7.10197,21191
7.11130,25829
7.12063,26331
7.12998,25862
7.13932,23477
7.14865,20796
7.15800,17701
7.16733,16542
7.17667,16493
7.18602,17187
7.19535,18232
7.20468,19600
7.21403,19891
7.22337,23386
7.23272,40162
7.24205,76051
7.25138,100621
7.26073,81955
7.27007,50267
7.27940,32809
7.28875,29290
7.29808,25986
7.30742,25296
7.31677,21845
7.32610,18551
7.33543,18685
7.34478,18145
7.35412,18984
7.36345,15795
7.37280,17644
7.38213,20449
7.39147,38502
7.40082,99904
7.41015,193400
7.41950,245194
7.42883,195111
7.43817,111239
7.44752,55039
7.45685,32525
7.46618,22385
7.47553,20765
7.48487,19392
7.49420,23126
7.50355,26114
7.51288,25274
7.52222,20458
7.53157,19848
7.54090,16834
7.55023,17969
7.55958,20274
7.56892,21075
7.57825,21473
7.58760,22904
7.59693,23971
7.60628,24425
7.61562,27482
7.62495,26051
7.63430,28884
7.64363,26177
7.65297,25503
7.66232,22840
7.67165,20113
7.68098,19950
7.69033,21978
7.69967,26030
7.70900,29353
7.71835,33456
7.72768,31305
7.73702,24081
7.74637,23467
7.75570,25375
7.76503,28965
7.77438,30742
7.78372,29643
7.79307,28480
7.80240,27450
7.81173,25601
7.82108,22916
7.83042,21219
7.83975,22633
7.84910,25574
7.85843,39943
7.86777,72141
7.87712,95531
7.88645,93143
7.89578,70359
7.90513,50041
7.91447,58966
7.92380,89709
7.93315,93572
7.94248,69503
7.95183,40541
7.96117,44051
7.97050,60689
7.97985,68798
7.98918,72868
7.99852,65955
8.00787,52019
8.01720,38548
8.02653,34212
8.03588,35322
8.04522,42904
8.05455,51061
8.06390,44314
8.07323,34976
8.08257,29127
8.09192,37342
8.10125,53982
8.11058,62089
8.11993,53432
8.12927,39500
8.13862,30976
8.14795,29087
8.15728,26852
8.16663,25671
8.17597,24397
8.18530,24084
8.19465,23138
8.20398,24253
8.21332,27755
8.22267,26097
8.23200,24180
8.24133,25731
8.25068,27869
8.26002,29627
8.26935,27387
8.27870,24822
8.28803,23006
8.29737,20321
8.30672,21568
8.31605,22206
8.32540,22661
8.33473,21943
8.34407,21028
8.35342,23066
8.36275,22299
8.37208,21268
8.38143,21393
8.39077,23251
8.40010,28176
8.40945,34466
8.41878,36681
8.42812,32820
8.43747,32754
8.44680,30556
8.45613,28010
8.46548,29354
8.47482,28585
8.48415,27780
8.49350,27488
8.50283,25789
8.51218,26389
8.52152,24548
8.53085,22822
8.54020,23937
8.54953,26174
8.55887,28611
8.56822,31288
8.57755,36743
8.58688,38232
8.59623,38014
8.60557,36029
8.61490,36972
8.62425,32851
8.63358,31793
8.64292,27766
8.65227,27224
8.66160,27201
8.67095,28694
8.68028,28702
8.68962,28504
8.69897,27500
8.70830,28652
8.71763,28524
8.72698,25289
8.73632,24745
8.74565,30488
8.75500,40818
8.76433,47211
8.77367,42469
8.78302,33614
8.79235,31258
8.80168,44718
8.81103,75668
8.82037,95155
8.82970,76303
8.83905,48293
8.84838,31086
8.85773,28137
8.86707,29297
8.87640,30948
8.88575,32592
8.89508,32309
8.90442,32315
8.91377,31491
8.92310,30927
8.93243,31241
8.94178,32706
8.95112,28774
8.96045,25247
8.96980,24937
8.97913,24926
8.98847,25855
8.99782,26561
9.00715,29419
9.01648,33022
9.02583,32093
9.03517,30462
9.04452,29793
9.05385,31400
9.06318,33385
9.07253,36085
9.08187,43110
9.09120,51916
9.10055,51036
9.10988,44173
9.11922,38465
9.12857,45472
9.13790,69975
9.14723,77744
9.15658,62990
9.16592,39932
9.17525,30777
9.18460,29508
9.19393,28924
9.20327,28458
9.21262,33105
9.22195,51372
9.23130,82121
9.24063,103116
9.24997,96031
9.25932,60526
9.26865,39673
9.27798,34356
9.28733,31391
9.29667,31014
9.30600,31219
9.31535,33866
9.32468,43194
9.33402,64640
9.34337,70604
9.35270,55993
9.36203,61278
9.37138,124614
9.38072,208399
9.39005,212968
9.39940,152520
9.40873,94150
9.41808,66982
9.42742,57246
9.43675,51211
9.44610,42185
9.45543,33146
9.46477,29296
9.47412,28057
9.48345,27687
9.49278,30764
9.50213,37292
9.51147,37958
9.52080,33194
9.53015,29182
9.53948,34643
9.54882,42183
9.55817,63934
9.56750,91824
9.57685,94935
9.58618,67268
9.59552,47543
9.60487,51140
9.61420,52637
9.62353,42797
9.63288,36757
9.64222,36270
9.65155,37827
9.66090,36844
9.67023,36722
9.67957,33038
9.68892,33793
9.69825,32586
9.70758,29442
9.71693,31617
9.72627,73165
9.73560,266947
9.74495,732127
9.75428,1050468
9.76363,865354
9.77297,461242
9.78230,224481
9.79165,135196
9.80098,101694
9.81032,81897
9.81967,73678
9.82900,82646
9.83833,96998
9.84768,114047
9.85702,113183
9.86635,92004
9.87570,70101
9.88503,72525
9.89437,89372
9.90372,92661
9.91305,80602
9.92238,70315
9.93173,65154
9.94107,63703
9.95042,52385
9.95975,44998
9.96908,46017
9.97843,67786
9.98777,132270
9.99710,188829
10.00645,172934
10.01578,106069
10.02512,65182
10.03447,47923
10.04380,41210
10.05313,41530
10.06248,47779
10.07182,59657
10.08115,70790
10.09050,70863
10.09983,58893
10.10917,56483
10.11852,108706
10.12785,258661
10.13720,418645
10.14653,502655
10.15587,1016768
10.16522,2596215
10.17455,3865351
10.18388,2844218
10.19323,1022039
10.20257,216760
10.21190,63892
10.22125,45980
10.23058,44976
10.23992,52830
10.24927,67291
10.25860,68281
10.26793,57104
10.27728,42679
10.28662,38693
10.29597,40636
10.30530,37980
10.31463,37745
10.32398,36408
10.33332,37280
10.34265,33134
10.35200,35318
10.36133,35797
10.37067,38298
10.38002,39101
10.38935,35246
10.39868,30992
10.40803,30528
10.41737,31735
10.42670,31700
10.43605,34192
10.44538,33981
10.45472,40661
10.46407,47338
10.47340,53338
10.48275,50878
10.49208,41900
10.50142,36168
10.51077,28873
10.52010,28569
10.52943,28502
10.53878,28300
10.54812,31471
10.55745,31743
10.56680,33548
10.57613,31878
10.58547,31061
10.59482,30466
10.60415,32573
10.61348,31666
10.62283,32202
10.63217,35896
10.64150,38406
10.65085,38476
10.66018,34208
10.66953,31877
10.67887,38007
10.68820,42997
10.69755,41933
10.70688,39247
10.71622,38134
10.72557,41970
10.73490,42063
10.74423,38869
10.75358,46095
10.76292,71367
10.77225,100532
10.78160,99039
10.79093,95357
10.80027,154624
10.80962,244129
10.81895,255738
10.82828,166760
10.83763,83924
10.84697,47669
10.85632,36386
10.86565,36057
10.87498,40751
10.88433,50852
10.89367,60053
10.90300,53849
10.91235,42626
10.92168,38524
10.93102,40126
10.94037,41657
10.94970,38673
10.95903,34874
10.96838,35174
10.97772,31999
10.98705,30403
10.99640,29249
11.00573,27905
11.01507,29957
11.02442,29260
11.03375,28189
11.04310,27943
11.05243,27091
11.06177,29912
11.07112,32666
11.08045,36846
11.08978,36024
11.09913,34668
11.10847,41919
11.11780,52087
11.12715,57090
11.13648,52364
11.14582,44729
11.15517,41297
11.16450,36815
11.17383,33441
11.18318,32761
11.19252,30802
11.20185,29637
11.21120,29370
11.22053,31192
11.22988,32387
11.23922,33352
11.24855,30561
11.25790,32087
11.26723,37486
11.27657,36820
11.28592,35255
11.29525,30183
11.30458,30719
11.31393,29416
11.32327,30192
11.33260,33851
11.34195,41870
11.35128,57278
11.36062,65331
11.36997,65788
11.37930,55754
11.38865,42390
11.39798,41234
11.40732,48844
11.41667,51669
11.42600,45155
11.43533,34143
11.44468,30984
11.45402,31429
11.46335,38212
11.47270,49431
11.48203,58010
11.49137,46353
11.50072,34477
11.51005,28904
11.51938,28947
11.52873,30676
11.53807,29924
11.54740,29237
11.55675,33313
11.56608,47717
11.57543,86624
11.58477,125062
11.59410,130698
11.60345,98334
11.61278,72210
11.62212,59206
11.63147,54242
11.64080,48592
11.65013,44585
11.65948,45111
11.66882,44669
11.67815,44042
11.68750,41101
11.69683,36084
11.70617,34844
11.71552,36132
11.72485,32087
11.73418,32127
11.74353,33854
11.75287,32075
11.76222,33987
11.77155,33568
11.78088,37576
11.79023,44065
11.79957,47458
11.80890,40588
11.81825,39858
11.82758,39786
11.83692,40214
11.84627,39351
11.85560,38154
11.86493,36534
11.87428,37829
11.88362,40066
11.89295,41078
11.90230,36750
11.91163,36295
11.92097,33492
11.93032,35265
11.93965,38771
11.94900,52863
11.95833,61488
11.96767,55198
11.97702,41734
11.98635,33480
11.99568,34540
12.00503,40475
12.01437,56352
12.02370,67634
12.03305,63215
12.04238,50371
12.05172,42565
12.06107,38731
12.07040,34122
12.07973,32485
12.08908,30258
12.09842,32272
12.10777,33127
12.11710,31310
12.12643,30996
12.13578,31897
12.14512,33591
12.15445,35869
12.16380,47724
12.17313,77706
12.18247,117767
12.19182,115525
12.20115,74411
12.21048,47435
12.21983,39408
12.22917,43065
12.23850,46798
12.24785,45268
12.25718,41148
12.26652,43462
12.27587,72449
12.28520,121676
12.29455,129515
12.30388,88639
12.31322,54416
12.32257,42488
12.33190,39837
12.34123,40802
12.35058,42005
12.35992,42759
12.36925,38934
12.37860,40460
12.38793,43396
12.39727,44265
12.40662,42852
12.41595,39175
12.42528,37062
12.43463,36719
12.44397,36105
12.45330,35942
12.46265,37661
12.47198,36874
12.48133,40603
12.49067,41946
12.50000,41900
12.50935,42597
12.51868,40579
12.52802,40023
12.53737,43547
12.54670,45376
12.55603,48203
12.56538,53047
12.57472,59058
12.58405,53635
12.59340,43345
12.60273,37104
12.61207,40716
12.62142,50788
12.63075,75299
12.64008,101577
12.64943,113537
12.65877,120103
12.66812,132204
12.67745,125936
12.68678,89920
12.69613,53389
12.70547,39780
12.71480,40865
12.72415,42422
12.73348,44193
12.74282,41552
12.75217,41108
12.76150,40965
12.77083,39802
12.78018,35759
12.78952,36221
12.79885,36162
12.80820,38356
12.81753,36395
12.82687,36211
12.83622,34846
12.84555,35280
12.85490,33965
12.86423,30831
12.87357,31271
12.88292,29005
12.89225,31671
12.90158,33281
12.91093,36352
12.92027,35574
12.92960,31078
12.93895,33700
12.94828,33771
12.95762,33978
12.96697,34872
12.97630,33244
12.98563,31359
12.99498,32048
13.00432,33249
13.01367,34608
13.02300,38550
13.03233,48647
13.04168,54330
13.05102,51323
13.06035,42574
13.06970,46850
13.07903,53308
13.08837,53017
13.09772,45690
13.10705,40819
13.11638,39430
13.12573,38240
13.13507,42059
13.14440,45732
13.15375,41784
13.16308,38228
13.17242,38314
13.18177,39884
13.19110,52484
13.20045,127053
13.20978,325054
13.21912,533621
13.22847,497668
13.23780,280468
13.24713,141603
13.25648,113373
13.26582,93316
13.27515,74141
13.28450,66401
13.29383,61442
13.30317,56159
13.31252,53965
13.32185,58082
13.33118,58806
13.34053,53256
13.34987,52164
13.35920,50348
13.36855,45570
13.37788,41149
13.38723,40375
13.39657,42505
13.40590,47712
13.41525,45237
13.42458,39814
13.43392,40859
13.44327,49197
13.45260,51758
13.46193,48211
13.47128,44098
13.48062,46230
13.48995,47171
13.49930,42588
13.50863,43076
13.51797,56210
13.52732,99194
13.53665,129493
13.54598,106042
13.55533,64687
13.56467,41982
13.57402,35561
13.58335,32320
13.59268,30898
13.60203,30670
13.61137,30822
13.62070,29784
13.63005,30987
13.63938,34727
13.64872,39588
13.65807,45780
13.66740,44495
13.67673,41377
13.68608,35338
13.69542,34166
13.70475,34638
13.71410,34225
13.72343,32224
13.73278,29280
13.74212,30069
13.75145,28853
13.76080,29518
13.77013,30667
13.77947,30818
13.78882,30114
13.79815,33016
13.80748,41914
13.81683,45873
13.82617,41822
13.83550,34034
13.84485,32296
13.85418,32068
13.86352,33411
13.87287,34530
13.88220,39618
13.89153,53190
13.90088,84355
13.91022,151758
13.91957,272411
13.92890,340194
13.93823,234233
13.94758,106990
13.95692,57806
13.96625,49490
13.97560,46699
13.98493,41666
13.99427,39096
14.00362,40730
14.01295,38593
14.02228,35896
14.03163,34904
14.04097,51899
14.05030,263914
14.05965,1452214
14.06898,4546559
14.07832,7595114
14.08767,6960420
14.09700,2938623
14.10635,568314
14.11568,105465
14.12502,55358
14.13437,47080
14.14370,46020
14.15303,46263
14.16238,49799
14.17172,52879
14.18105,53122
14.19040,56985
14.19973,70510
14.20907,74625
14.21842,58191
14.22775,40393
14.23708,33851
14.24643,30915
14.25577,32736
14.26510,32616
14.27445,35719
14.28378,33427
14.29313,33923
14.30247,31606
14.31180,34626
14.32115,42995
14.33048,56467
14.33982,64470
14.34917,58034
14.35850,47747
14.36783,39584
14.37718,35303
14.38652,31902
14.39585,33063
14.40520,32064
14.41453,32903
14.42387,30235
14.43322,29744
14.44255,31248
14.45188,37927
14.46123,48989
14.47057,65414
14.47992,66005
14.48925,54858
14.49858,45032
14.50793,40899
14.51727,35353
14.52660,32504
14.53595,31484
14.54528,33371
14.55462,35575
14.56397,37448
14.57330,41127
14.58263,37288
14.59198,34537
14.60132,32726
14.61065,32982
14.62000,33041
14.62933,35939
14.63867,41126
14.64802,53613
14.65735,70055
14.66670,79473
14.67603,70059
14.68537,52177
14.69472,42925
14.70405,38600
14.71338,34047
14.72273,32446
14.73207,35439
14.74140,37876
14.75075,38414
14.76008,37572
14.76942,35244
14.77877,39875
14.78810,42053
14.79743,43566
14.80678,46324
14.81612,43793
14.82547,38948
14.83480,37247
14.84413,34178
14.85348,34150
14.86282,35351
14.87215,47046
14.88150,54093
14.89083,56701
14.90017,48201
14.90952,39036
14.91885,37674
14.92818,36056
14.93753,36312
14.94687,34911
14.95620,34538
14.96555,35027
14.97488,39002
14.98422,38726
14.99357,37152
15.00290,39297
15.01225,44357
15.02158,49755
15.03092,44790
15.04027,39452
15.04960,40009
15.05893,44211
15.06828,42944
15.07762,42174
15.08695,38919
15.09630,32506
15.10563,31888
15.11497,32924
15.12432,36562
15.13365,46533
15.14298,48352
15.15233,44208
15.16167,37566
15.17100,33425
15.18035,32858
15.18968,32085
15.19903,42441
15.20837,62068
15.21770,87016
15.22705,93656
15.23638,83286
15.24572,61581
15.25507,45690
15.26440,38901
15.27373,37888
15.28308,37184
15.29242,36771
15.30175,36523
15.31110,35270
15.32043,35362
15.32977,40044
15.33912,42458
15.34845,43072
15.35778,40485
15.36713,40212
15.37647,47432
15.38582,48968
15.39515,40434
15.40448,33284
15.41383,33853
15.42317,39653
15.43250,44268
15.44185,42408
15.45118,38560
15.46052,34426
15.46987,32299
15.47920,33716
15.48853,35969
15.49788,37322
15.50722,50687
15.51655,84533
15.52590,117465
15.53523,107193
15.54458,72674
15.55392,47386
15.56325,37335
15.57260,31341
15.58193,32399
15.59127,31694
15.60062,32443
15.60995,35141
15.61928,34587
15.62863,38180
15.63797,43135
15.64730,45919
15.65665,49574
15.66598,54765
15.67532,55259
15.68467,51686
15.69400,48632
15.70333,53711
15.71268,61090
15.72202,59518
15.73137,46101
15.74070,38663
15.75003,43020
15.75938,52745
15.76872,59986
15.77805,58455
15.78740,50121
15.79673,40713
15.80607,42306
15.81542,62609
15.82475,111341
15.83408,184247
15.84343,247609
15.85277,251818
15.86210,180456
15.87145,98276
15.88078,66821
15.89012,69934
15.89947,82027
15.90880,88080
15.91815,76296
15.92748,58754
15.93682,46918
15.94617,41177
15.95550,37024
15.96483,42481
15.97418,53774
15.98352,70336
15.99285,83331
16.00220,82133
16.01153,68158
16.02087,50824
16.03022,43291
16.03955,37823
16.04888,39022
16.05823,42245
16.06757,42663
16.07690,43860
16.08625,41328
16.09558,40519
16.10493,44565
16.11427,57665
16.12360,73670
16.13295,72800
16.14228,64974
16.15162,48788
16.16097,42524
16.17030,39234
16.17963,39112
16.18898,42808
16.19832,46040
16.20765,52683
16.21700,58809
16.22633,60224
16.23567,58028
16.24502,54518
16.25435,52733
16.26368,55902
16.27303,66402
16.28237,77927
16.29172,125710
16.30105,208236
16.31038,245600
16.31973,177608
16.32907,97623
16.33840,55683
16.34775,42516
16.35708,34446
16.36642,33989
16.37577,32712
16.38510,32517
16.39443,34032
16.40378,34749
16.41312,37019
16.42245,38850
16.43180,37504
16.44113,37553
16.45047,41848
16.45982,51743
16.46915,59465
16.47850,52468
16.48783,48614
16.49717,48178
16.50652,45464
16.51585,44903
16.52518,46494
16.53453,45280
16.54387,44502
16.55320,41725
16.56255,37486
16.57188,37155
16.58122,39964
16.59057,43836
16.59990,41339
16.60923,39407
16.61858,40110
16.62792,47039
16.63727,53131
16.64660,54906
16.65593,50421
16.66528,42880
16.67462,37766
16.68395,39703
16.69330,46806
16.70263,54438
16.71197,54992
16.72132,48525
16.73065,40004
16.73998,46540
16.74933,78405
16.75867,109359
16.76800,98940
16.77735,65172
16.78668,42579
16.79602,36059
16.80537,37256
16.81470,39866
16.82405,47809
16.83338,48747
16.84272,52424
16.85207,51793
16.86140,43200
16.87073,41678
16.88008,38818
16.88942,39375
16.89875,39165
16.90810,44108
16.91743,55004
16.92677,61392
16.93612,54977
16.94545,49908
16.95478,54603
16.96413,59703
16.97347,59317
16.98280,56035
16.99215,47437
17.00148,42168
17.01083,39377
17.02017,40479
17.02950,58138
17.03885,86810
17.04818,89402
17.05752,64161
17.06687,48142
17.07620,43965
17.08553,41636
17.09488,40815
17.10422,41822
17.11355,38810
17.12290,38242
17.13223,38071
17.14157,41378
17.15092,41183
17.16025,37217
17.16958,37454
17.17893,35682
17.18827,35769
17.19762,36756
17.20695,36573
17.21628,35458
17.22563,33149
17.23497,33381
17.24430,34309
17.25365,35409
17.26298,35954
17.27232,40019
17.28167,46600
17.29100,50353
17.30033,46365
17.30968,43436
17.31902,47113
17.32835,48734
17.33770,47478
17.34703,41777
17.35638,37543
17.36572,40224
17.37505,55351
17.38440,107325
17.39373,172968
17.40307,162649
17.41242,102353
17.42175,61055
17.43108,48373
17.44043,42272
17.44977,43008
17.45910,42421
17.46845,43782
17.47778,40897
17.48712,57658
17.49647,188237
17.50580,819457
17.51513,2055165
17.52448,2627880
17.53382,1685822
17.54317,548590
17.55250,124751
17.56183,53771
17.57118,49563
17.58052,53547
17.58985,57556
17.59920,53798
17.60853,48323
17.61787,41622
17.62722,40632
17.63655,40719
17.64588,43598
17.65523,45720
17.66457,49796
17.67390,55436
17.68325,59966
17.69258,63674
17.70192,65015
17.71127,62679
17.72060,59802
17.72995,55816
17.73928,50691
17.74862,46885
17.75797,53094
17.76730,56865
17.77663,58080
17.78598,57004
17.79532,50849
17.80465,49361
17.81400,45324
17.82333,42336
17.83267,41856
17.84202,38063
17.85135,42070
17.86068,51268
17.87003,61029
17.87937,60213
17.88870,52606
17.89805,48737
17.90738,43938
17.91673,39958
17.92607,37267
17.93540,39941
17.94475,42670
17.95408,40807
17.96342,40819
17.97277,39870
17.98210,39078
17.99143,38497
18.00078,39499
18.01012,38518
18.01945,41857
18.02880,38152
18.03813,41374
18.04747,44862
18.05682,54159
18.06615,60378
18.07548,54531
18.08483,42242
18.09417,39513
18.10352,41556
18.11285,49905
18.12218,57013
18.13153,55596
18.14087,50478
18.15020,47864
18.15955,45586
18.16888,46366
18.17822,45200
18.18757,42391
18.19690,40359
18.20623,39220
18.21558,39350
18.22492,41860
18.23425,40324
18.24360,39425
18.25293,35949
18.26228,34776
18.27162,38165
18.28095,41946
18.29030,46117
18.29963,51384
18.30897,55216
18.31832,56952
18.32765,55260
18.33698,52415
18.34633,55554
18.35567,60996
18.36500,66812
18.37435,64894
18.38368,64009
18.39302,58378
18.40237,53558
18.41170,48864
18.42103,45078
18.43038,43302
18.43972,46966
18.44907,52382
18.45840,55145
18.46773,50981
18.47708,43841
18.48642,45735
18.49575,52483
18.50510,69841
18.51443,82135
18.52377,83107
18.53312,78124
18.54245,66887
18.55178,60473
18.56113,55225
18.57047,52730
18.57980,46992
18.58915,46434
18.59848,46004
18.60782,47501
18.61717,54058
18.62650,54183
18.63585,54842
18.64518,57829
18.65452,56942
18.66387,59344
18.67320,57973
18.68253,53646
18.69188,53090
18.70122,49600
18.71055,54008
18.71990,57346
18.72923,57774
18.73857,55179
18.74792,51768
18.75725,48440
18.76658,43717
18.77593,39077
18.78527,36513
18.79460,37506
18.80395,38410
18.81328,44710
18.82263,49565
18.83197,53351
18.84130,48530
18.85065,42166
18.85998,40377
18.86932,36432
18.87867,38656
18.88800,38180
18.89733,37328
18.90668,41599
18.91602,52897
18.92535,56033
18.93470,57671
18.94403,53209
18.95337,56761
18.96272,64568
18.97205,69066
18.98140,67411
18.99073,60057
19.00007,56711
19.00942,52430
19.01875,49359
19.02808,47562
19.03743,50551
19.04677,68103
19.05610,108611
19.06545,142613
19.07478,135554
19.08412,132115
19.09347,137622
19.10280,120891
19.11213,84748
19.12148,60068
19.13082,46556
19.14015,42039
19.14950,39326
19.15883,36261
19.16818,37781
19.17752,36828
19.18685,41225
19.19620,47916
19.20553,54949
19.21487,57169
19.22422,55382
19.23355,53477
19.24288,51160
19.25223,43889
19.26157,42568
19.27090,42498
19.28025,48642
19.28958,55905
19.29892,61486
19.30827,76910
19.31760,102472
19.32693,106857
19.33628,88496
19.34562,62762
19.35497,49571
19.36430,44450
19.37363,38880
19.38298,40989
19.39232,41084
19.40165,44455
19.41100,47417
19.42033,47482
19.42967,40323
19.43902,40498
19.44835,39540
19.45768,37595
19.46703,38305
19.47637,43308
19.48570,46424
19.49505,55047
19.50438,52156
19.51372,45276
19.52307,39836
19.53240,39612
19.54175,40749
19.55108,38142
19.56042,39316
19.56977,41505
19.57910,46190
19.58843,49585
19.59778,51704
19.60712,48683
19.61645,43021
19.62580,45657
19.63513,52841
19.64447,60091
19.65382,55814
19.66315,49094
19.67248,46093
19.68183,44036
19.69117,48039
19.70050,54598
19.70985,58165
19.71918,63657
19.72853,81773
19.73787,96569
19.74720,96981
19.75655,76384
19.76588,60153
19.77522,56890
19.78457,56948
19.79390,53335
19.80323,47390
19.81258,46322
19.82192,41556
19.83125,43492
19.84060,38419
19.84993,40997
19.85927,39994
19.86862,44977
19.87795,61482
19.88728,76498
19.89663,72811
19.90597,58293
19.91532,53043
19.92465,48417
19.93398,44904
19.94333,40083
19.95267,39794
19.96200,40643
19.97135,44324
19.98068,42946
19.99002,38718
19.99937,36706
20.00870,38440
20.01803,43277
20.02738,46189
20.03672,44618
20.04605,45416
20.05540,47873
20.06473,46820
20.07408,46205
20.08342,45291
20.09275,43714
20.10210,42295
20.11143,40076
20.12077,37039
20.13012,35355
20.13945,36607
20.14878,41065
20.15813,50224
20.16747,53921
20.17680,49240
20.18615,45319
20.19548,39455
20.20482,37576
20.21417,40732
20.22350,42374
20.23283,42246
20.24218,43731
20.25152,45988
20.26087,48506
20.27020,43589
20.27953,39810
20.28888,40430
20.29822,38804
20.30755,38922
20.31690,36746
20.32623,33622
20.33557,32997
20.34492,33482
20.35425,35396
20.36358,37509
20.37293,39855
20.38227,37816
20.39160,35591
20.40095,34424
20.41028,34781
20.41962,32693
20.42897,34708
20.43830,35935
20.44765,36174
20.45698,37151
20.46632,39005
20.47567,46402
20.48500,51810
20.49433,46002
20.50368,40107
20.51302,33923
20.52235,35084
20.53170,35343
20.54103,37570
20.55037,38537
20.55972,49104
20.56905,91256
20.57838,196652
20.58773,271250
20.59707,211707
20.60640,116314
20.61575,61771
20.62508,48230
20.63443,43754
20.64377,45279
20.65310,47530
20.66245,44645
20.67178,43204
20.68112,41108
20.69047,41740
20.69980,43937
20.70913,42471
20.71848,43246
20.72782,42933
20.73715,42161
20.74650,42306
20.75583,41520
20.76517,39793
20.77452,38181
20.78385,38252
20.79320,43871
20.80253,45460
20.81187,45240
20.82122,44853
20.83055,38340
20.83988,36610
20.84923,33630
20.85857,35133
20.86790,34707
20.87725,35626
20.88658,34721
20.89592,37191
20.90527,38234
20.91460,38248
20.92393,39852
20.93328,34203
20.94262,33958
20.95195,34186
20.96130,34401
20.97063,33231
20.97998,33386
20.98932,32947
20.99865,33490
21.00800,32700
21.01733,33231
21.02667,34071
21.03602,34953
21.04535,34302
21.05468,35683
21.06403,37368
21.07337,34810
21.08270,35435
21.09205,34998
21.10138,35931
21.11072,36824
21.12007,41321
21.12940,38273
21.13873,38171
21.14808,37936
21.15742,35890
21.16677,37554
21.17610,42808
21.18543,53136
21.19478,59657
21.20412,53937
21.21345,46247
21.22280,40552
21.23213,37788
21.24147,39825
21.25082,35767
21.26015,36186
21.26948,40381
21.27883,43443
21.28817,48273
21.29750,51030
21.30685,46614
21.31618,40810
21.32552,38125
21.33487,35565
21.34420,35377
21.35355,38179
21.36288,40138
21.37222,37540
21.38157,37341
21.39090,38022
21.40023,38974
21.40958,38572
21.41892,40810
21.42825,42584
21.43760,42674
21.44693,39722
21.45627,38986
21.46562,37693
21.47495,37737
21.48428,40957
21.49363,42836
21.50297,46104
21.51230,46316
21.52165,45136
21.53098,39144
21.54033,40292
21.54967,39517
21.55900,42626
21.56835,55799
21.57768,68020
21.58702,71062
21.59637,58700
21.60570,47478
21.61503,44566
21.62438,42147
21.63372,44329
21.64305,42996
21.65240,40462
21.66173,38419
21.67107,41113
21.68042,46876
21.68975,49480
21.69910,50355
21.70843,47708
21.71777,45302
21.72712,49729
21.73645,47571
21.74578,45781
21.75513,42283
21.76447,37987
21.77380,34931
21.78315,35546
21.79248,37264
21.80182,37657
21.81117,43706
21.82050,48443
21.82983,47971
21.83918,47696
21.84852,43632
21.85785,40596
21.86720,42246
21.87653,44164
21.88588,48065
21.89522,52368
21.90455,50437
21.91390,49872
21.92323,40507
21.93257,40250
21.94192,38315
21.95125,38586
21.96058,42286
21.96993,46876
21.97927,54946
21.98860,61395
21.99795,67781
22.00728,62912
22.01662,53778
22.02597,45932
22.03530,43572
22.04463,49110
22.05398,52600
22.06332,54255
22.07267,49972
22.08200,52123
22.09133,49231
22.10068,45181
22.11002,43912
22.11935,42525
22.12870,40774
22.13803,40851
22.14737,45088
22.15672,47545
22.16605,58490
22.17538,64691
22.18473,63614
22.19407,54640
22.20340,45705
22.21275,43519
22.22208,47245
22.23142,50642
22.24077,50744
22.25010,50167
22.25945,47670
22.26878,50115
22.27812,55628
22.28747,63525
22.29680,69157
22.30613,66775
22.31548,59611
22.32482,50163
22.33415,46372
22.34350,46451
22.35283,53311
22.36217,60401
22.37152,64897
22.38085,66340
22.39018,64656
22.39953,58450
22.40887,50912
22.41822,49082
22.42755,49806
22.43688,54475
22.44623,55814
22.45557,57236
22.46490,55987
22.47425,54523
22.48358,50689
22.49292,51692
22.50227,55897
22.51160,68626
22.52093,81637
22.53028,79818
22.53962,63453
22.54895,54407
22.55830,50929
22.56763,53856
22.57697,58585
22.58632,60973
22.59565,62248
22.60500,62467
22.61433,64262
22.62367,65854
22.63302,60184
22.64235,58098
22.65168,54528
22.66103,51749
22.67037,47536
22.67970,50370
22.68905,56440
22.69838,60080
22.70772,60363
22.71707,54071
22.72640,54042
22.73573,59073
22.74508,62149
22.75442,62822
22.76375,64452
22.77310,58634
22.78243,53442
22.79178,52605
22.80112,56005
22.81045,59669
22.81980,57208
22.82913,57218
22.83847,53113
22.84782,52312
22.85715,48656
22.86648,47128
22.87583,48518
22.88517,49440
22.89450,50164
22.90385,47686
22.91318,49492
22.92252,52016
22.93187,53813
22.94120,51173
22.95053,48921
22.95988,47566
22.96922,47692
22.97857,47298
22.98790,41148
22.99723,42267
23.00658,41123
23.01592,39437
23.02525,41318
23.03460,40326
23.04393,42707
23.05327,44512
23.06262,40423
23.07195,43332
23.08128,41825
23.09063,42437
23.09997,39808
23.10930,39076
23.11865,38981
23.12798,37173
23.13732,39122
23.14667,38918
23.15600,40427
23.16535,39124
23.17468,41224
23.18402,42947
23.19337,39937
23.20270,41527
23.21203,38958
23.22138,37444
23.23072,41086
23.24005,40545
23.24940,44405
23.25873,47015
23.26807,50431
23.27742,47435
23.28675,46971
23.29608,43700
23.30543,41191
23.31477,42252
23.32410,45543
23.33345,52725
23.34278,64823
23.35213,62852
23.36147,53982
23.37080,47045
23.38015,44456
23.38948,41562
23.39882,42484
23.40817,41966
23.41750,39037
23.42683,39974
23.43618,41746
23.44552,39131
23.45485,41931
23.46420,42738
23.47353,42017
23.48287,41717
23.49222,38148
23.50155,37623
23.51090,39292
23.52023,40593
23.52957,38333
23.53892,40780
23.54825,38449
23.55758,37953
23.56693,38722
23.57627,37965
23.58560,41423
23.59495,40689
23.60428,39641
23.61362,38399
23.62297,37673
23.63230,35593
23.64163,38460
23.65098,35229
23.66032,33750
23.66965,36417
23.67900,36214
23.68833,38339
23.69768,41008
23.70702,44135
23.71635,43719
23.72570,44391
23.73503,46626
23.74437,47069
23.75372,43967
23.76305,41044
23.77238,39232
23.78173,37416
23.79107,36379
23.80040,35983
23.80975,38408
23.81908,37251
23.82842,38228
23.83777,39105
23.84710,35910
23.85643,37445
23.86578,36316
23.87512,39600
23.88447,38665
23.89380,40250
23.90313,40017
23.91248,39811
23.92182,39906
23.93115,37488
23.94050,38682
23.94983,38746
23.95917,38271
23.96852,38654
23.97785,36133
23.98718,37262
23.99653,37115
24.00587,38726
24.01520,38871
24.02455,38044
24.03388,38524
24.04322,37775
24.05257,36626
24.06190,36263
24.07125,36038
24.08058,35427
24.08992,37592
24.09927,38786
24.10860,36711
24.11793,37054
24.12728,37440
24.13662,35147
24.14595,36734
24.15530,37326
24.16463,35864
24.17397,38034
24.18332,37335
24.19265,35868
24.20198,35269
24.21133,36495
24.22067,34249
24.23002,37170
24.23935,37329
24.24868,37712
24.25803,38797
24.26737,38226
24.27670,38143
24.28605,38237
24.29538,37237
24.30472,37384
24.31407,39511
24.32340,41602
24.33273,42995
24.34208,45963
24.35142,40509
24.36075,39964
24.37010,38124
24.37943,39664
24.38877,40833
24.39812,40022
24.40745,38382
24.41680,40801
24.42613,38858
24.43547,35263
24.44482,37822
24.45415,38095
24.46348,37721
24.47283,37663
24.48217,38317
24.49150,36947
24.50085,40998
24.51018,39081
24.51952,38271
24.52887,38675
24.53820,41393
24.54753,41423
24.55688,46143
24.56622,44338
24.57555,43501
24.58490,40574
24.59423,37562
24.60358,41339
24.61292,40829
24.62225,41434
24.63160,40202
24.64093,40311
24.65027,39162
24.65962,40043
24.66895,41684
24.67828,43560
24.68763,41520
24.69697,39456
24.70630,41496
24.71565,42351
24.72498,41978
24.73432,41854
24.74367,40336
24.75300,41211
24.76233,40032
24.77168,39938
24.78102,37839
24.79037,36990
24.79970,38061
24.80903,39689
24.81838,43586
24.82772,45655
24.83705,44819
24.84640,42142
24.85573,40688
24.86507,39692
24.87442,39125
24.88375,41226
24.89308,40349
24.90243,39381
24.91177,39962
24.92110,40068
24.93045,40163
24.93978,40910
24.94912,40282
24.95847,40584
24.96780,42672
24.97715,40425
24.98648,39123
24.99582,39275
25.00517,41493
25.01450,40598
25.02383,38523
25.03318,39648
25.04252,39836
25.05185,38696
25.06120,39383
25.07053,38765
25.07987,40505
25.08922,39436
25.09855,40880
25.10788,41512
25.11723,40330
25.12657,42389
25.13592,42594
25.14525,44264
25.15458,43975
25.16393,45273
25.17327,44214
25.18260,45072
25.19195,40894
25.20128,41368
25.21062,41390
25.21997,40213
25.22930,39271
25.23863,40702
25.24798,39728
25.25732,42356
25.26665,39852
25.27600,40063
25.28533,42637
25.29467,43087
25.30402,43715
25.31335,48217
25.32270,59077
25.33203,81130
25.34137,97506
25.35072,85232
25.36005,66374
25.36938,57713
25.37873,51434
25.38807,52254
25.39740,50155
25.40675,49198
25.41608,48172
25.42542,48443
25.43477,47884
25.44410,46981
25.45343,50177
25.46278,50686
25.47212,50464
25.48145,51795
25.49080,56023
25.50013,59712
25.50948,59824
25.51882,57309
25.52815,60867
25.53750,60316
25.54683,59047
25.55617,57787
25.56552,56651
25.57485,57606
25.58418,53876
25.59353,53690
25.60287,52621
25.61220,53371
25.62155,50673
25.63088,49354
25.64022,51341
25.64957,54205
25.65890,53836
25.66823,54281
25.67758,52567
25.68692,52456
25.69627,50622
25.70560,48614
25.71493,50843
25.72428,50984
25.73362,48238
25.74295,49906
25.75230,51967
25.76163,49609
25.77097,50421
25.78032,50192
25.78965,50452
25.79898,51742
25.80833,54337
25.81767,54708
25.82700,56434
25.83635,53181
25.84568,54501
25.85503,52382
25.86437,51636
25.87370,49733
25.88305,49800
25.89238,46385
25.90172,48036
25.91107,49402
25.92040,49477
25.92973,49204
25.93908,48704
25.94842,49749
25.95775,55398
25.96710,52463
25.97643,50129
25.98577,50397
25.99512,49692
26.00445,49406
26.01378,48223
26.02313,47053
26.03247,48600
26.04182,49941
26.05115,50688
26.06048,53709
26.06983,49428
26.07917,51477
26.08850,51504
26.09785,50359
26.10718,49298
26.11652,48509
26.12587,51338
26.13520,48878
26.14453,55998
26.15388,59523
26.16322,58370
26.17255,59007
26.18190,57363
26.19123,55037
26.20057,51036
26.20992,48522
26.21925,48106
26.22860,49034
26.23793,48913
26.24727,48949
26.25662,47573
26.26595,47613
26.27528,49086
26.28463,48082
26.29397,46796
26.30330,50019
26.31265,50714
26.32198,51290
26.33132,49166
26.34067,48702
26.35000,49896
26.35933,48947
26.36868,49845
26.37802,47766
26.38735,48478
26.39670,49872
26.40603,45798
26.41538,47360
26.42472,49048
26.43405,48022
26.44340,48804
26.45273,50491
26.46207,51316
26.47142,54053
26.48075,51622
26.49008,53937
26.49943,52438
26.50877,53089
26.51810,52412
26.52745,55976
26.53678,56210
26.54612,59906
26.55547,59170
26.56480,55186
26.57413,54569
26.58348,53927
26.59282,53404
26.60217,55259
26.61150,58458
26.62083,58560
26.63018,56063
26.63952,53117
26.64885,53776
26.65820,52959
26.66753,54337
26.67687,53848
26.68622,52323
26.69555,54323
26.70488,52289
26.71423,52115
26.72357,52674
26.73290,52024
26.74225,51571
26.75158,50762
26.76092,52316
26.77027,54617
26.77960,54531
26.78895,55794
26.79828,53158
26.80762,53786
26.81697,51524
26.82630,52366
26.83563,53448
26.84498,53662
26.85432,52786
26.86365,54215
26.87300,54040
26.88233,51844
26.89167,51669
26.90102,50354
26.91035,52463
26.91968,52441
26.92903,50839
26.93837,52078
26.94772,50532
26.95705,51981
26.96638,49652
26.97573,51652
26.98507,51567
26.99440,52972
27.00375,52330
27.01308,53440
27.02242,55575
27.03177,55102
27.04110,54881
27.05043,54657
27.05978,58500
27.06912,56900
27.07845,56855
27.08780,54451
27.09713,55820
27.10647,54300
27.11582,51812
27.12515,53844
27.13450,55745
27.14383,56071
27.15317,57839
27.16252,54588
27.17185,54030
27.18118,53630
27.19053,54348
27.19987,52466
27.20920,54305
27.21855,53864
27.22788,53941
27.23722,54319
27.24657,58699
27.25590,62744
27.26523,68850
27.27458,66669
27.28392,61630
27.29325,59429
27.30260,57179
27.31193,57343
27.32128,52385
27.33062,56412
27.33995,57017
27.34930,53077
27.35863,53270
27.36797,54168
27.37732,53140
27.38665,56908
27.39598,53535
27.40533,53891
27.41467,55499
27.42400,54593
27.43335,57127
27.44268,56176
27.45202,56367
27.46137,60280
27.47070,59378
27.48003,64638
27.48938,69934
27.49872,79297
27.50807,84647
27.51740,93104
27.52673,100210
27.53608,103345
27.54542,104296
27.55475,105510
27.56410,100814
27.57343,94316
27.58277,90672
27.59212,85663
27.60145,80488
27.61078,75570
27.62013,71932
27.62947,70173
27.63880,64219
27.64815,66737
27.65748,69992
27.66683,69462
27.67617,74589
27.68550,82892
27.69485,79346
27.70418,74054
27.71352,67514
27.72287,66821
27.73220,63281
27.74153,61217
27.75088,62090
27.76022,59992
27.76955,59568
27.77890,61557
27.78823,59391
27.79757,61996
27.80692,60006
27.81625,61469
27.82558,60369
27.83493,61495
27.84427,61698
27.85362,57108
27.86295,59451
27.87228,57116
27.88163,59420
27.89097,60923
27.90030,60445
27.90965,59621
27.91898,59318
27.92832,63753
27.93767,63913
27.94700,61463
27.95633,59507
27.96568,61011
27.97502,58907
27.98435,60271
27.99370,58240
28.00303,59557
28.01237,60658
28.02172,58006
28.03105,55470
28.04040,56229
28.04973,57548
28.05907,57999
28.06842,59120
28.07775,57800
28.08708,56440
28.09643,59900
28.10577,59660
28.11510,62331
28.12445,65907
28.13378,67826
28.14312,68564
28.15247,63879
28.16180,65345
28.17113,64265
28.18048,64160
28.18982,60668
28.19915,62196
28.20850,62263
28.21783,59828
28.22718,60990
28.23652,59184
28.24585,61375
28.25520,59190
28.26453,60190
28.27387,60701
28.28322,59197
28.29255,59779
28.30188,61337
28.31123,61682
28.32057,61116
28.32990,60835
28.33925,60710
28.34858,59497
28.35792,57878
28.36727,61090
28.37660,61767
28.38593,62535
28.39528,61054
28.40462,61261
28.41397,62669
28.42330,59991
28.43263,63302
28.44198,61529
28.45132,63174
28.46065,62344
28.47000,62582
28.47933,60517
28.48867,63621
28.49802,60881
28.50735,61857
28.51668,59374
28.52603,63664
28.53537,64395
28.54470,65692
28.55405,61234
28.56338,65116
28.57273,66236
28.58207,67472
28.59140,68541
28.60075,72714
28.61008,72642
28.61942,72518
28.62877,70195
28.63810,71484
28.64743,69614
28.65678,71568
28.66612,76026
28.67545,93052
28.68480,114379
28.69413,117997
28.70347,107581
28.71282,91343
28.72215,78863
28.73148,74527
28.74083,72088
28.75017,72712
28.75952,71509
28.76885,71625
28.77818,69233
28.78753,67988
28.79687,68856
28.80620,66300
28.81555,69000
28.82488,67472
28.83422,66876
28.84357,70044
28.85290,67884
28.86223,69312
28.87158,68525
28.88092,69155
28.89025,70584
28.89960,71585
28.90893,69121
28.91827,69991
28.92762,68944
28.93695,69361
28.94630,71683
28.95563,74555
28.96497,78191
28.97432,82793
28.98365,79885
28.99298,78974
29.00233,77434
29.01167,75248
29.02100,73343
29.03035,74477
29.03968,72703
29.04902,72930
29.05837,71533
29.06770,74550
29.07703,72677
29.08638,72000
29.09572,74738
29.10505,71124
29.11440,73825
29.12373,75514
29.13308,74237
29.14242,71557
29.15175,73711
29.16110,70539
29.17043,72505
29.17977,74099
29.18912,74795
29.19845,77582
29.20778,85377
29.21713,88898
29.22647,83819
29.23580,83959
29.24515,77896
29.25448,79247
29.26382,74477
29.27317,76833
29.28250,78185
29.29183,73139
29.30118,75518
29.31052,74047
29.31987,73145
29.32920,73197
29.33853,74249
29.34788,73691
29.35722,74579
29.36655,75047
29.37590,73517
29.38523,76710
29.39457,74421
29.40392,77982
29.41325,75660
29.42258,72805
29.43193,74481
29.44127,75809
29.45060,76678
29.45995,79092
29.46928,81858
29.47863,83041
29.48797,82214
29.49730,79647
29.50665,82059
29.51598,82257
29.52532,78084
29.53467,75842
29.54400,72583
29.55333,76693
29.56268,75857
29.57202,73255
29.58135,74935
29.59070,74929
29.60003,75081
29.60937,73209
29.61872,76523
29.62805,75026
29.63738,75294
29.64673,71430
29.65607,73373
29.66542,72889
29.67475,72260
29.68408,75189
29.69343,73887
29.70277,75604
29.71210,73357
29.72145,73000
29.73078,75624
29.74012,78278
29.74947,78047
29.75880,77852
29.76813,77823
29.77748,77487
29.78682,73433
29.79615,75574
29.80550,74980
29.81483,73018
29.82417,73025
29.83352,71191
29.84285,73605
29.85220,72811
29.86153,70228
29.87087,72334
29.88022,71796
29.88955,74199
29.89888,75750
29.90823,74711
29.91757,76519
29.92690,74689
29.93625,77873
29.94558,78401
29.95492,79881
29.96427,76334
29.97360,85313
29.98293,94890
29.99228,104166
30.00162,101808
30.01095,97293
30.02030,88614
30.02963,85044
30.03898,81450
30.04832,80551
30.05765,81680
30.06700,82134
30.07633,77104
30.08567,82463
30.09502,81446
30.10435,91166
30.11368,91511
30.12303,100590
30.13237,108486
30.14170,119253
30.15105,126341
30.16038,133328
30.16972,139758
30.17907,144894
30.18840,145387
30.19773,138319
30.20708,129400
30.21642,122602
30.22577,116673
30.23510,110880
30.24443,105146
30.25378,100512
30.26312,99584
30.27245,96544
30.28180,94640
30.29113,94053
30.30047,90818
30.30982,91480
30.31915,87713
30.32848,87021
30.33783,87602
30.34717,86244
30.35650,86584
30.36585,88670
30.37518,89962
30.38453,88690
30.39387,94147
30.40320,99071
30.41255,105584
30.42188,103708
30.43122,97954
30.44057,93006
30.44990,90320
30.45923,88960
30.46858,87443
30.47792,90612
30.48725,89642
30.49660,85043
30.50593,88515
30.51527,85075
30.52462,84531
30.53395,81700
30.54328,81689
30.55263,81205
30.56197,80407
30.57132,86186
30.58065,85054
30.58998,85598
30.59933,87903
30.60867,89830
30.61800,89384
30.62735,95495
30.63668,97610
30.64602,104529
30.65537,111282
30.66470,112230
30.67403,109586
30.68338,103271
30.69272,99696
30.70205,102213
30.71140,98935
30.72073,93197
30.73007,91241
30.73942,89445
30.74875,89220
30.75810,89070
30.76743,90365
30.77677,86112
30.78612,89034
30.79545,91834
30.80478,88797
30.81413,90357
30.82347,88909
30.83280,87559
30.84215,87817
30.85148,88606
30.86082,88410
30.87017,90623
30.87950,89664
30.88883,93985
30.89818,92200
30.90752,95471
30.91685,95273
30.92620,95569
30.93553,94706
30.94488,97486
30.95422,93027
30.96355,94057
30.97290,93487
30.98223,89227
30.99157,92645
31.00092,90711
31.01025,90278
31.01958,90055
31.02893,90189
31.03827,87382
31.04760,90163
31.05695,88308
31.06628,91491
31.07562,86549
31.08497,86768
31.09430,89483
31.10365,92849
31.11298,91192
31.12232,93866
31.13167,93658
31.14100,90085
31.15033,92333
31.15968,92849
31.16902,91292
31.17835,92406
31.18770,93788
31.19703,88266
31.20637,92768
31.21572,93233
31.22505,91786
31.23438,89232
31.24373,90522
31.25307,87840
31.26240,86876
31.27175,87528
31.28108,88612
31.29043,87872
31.29977,89032
31.30910,86630
31.31845,88648
31.32778,89936
31.33712,88568
31.34647,88888
31.35580,91794
31.36513,93915
