D:\数据\20211206\ZS1E-Z-000044.D Mon Dec 06 20:44:09 2021
Start of data points
0.09748,28608
0.10682,29537
0.11617,29399
0.12550,29848
0.13483,29231
0.14418,28996
0.15352,29432
0.16285,28545
0.17220,29060
0.18153,29796
0.19087,29031
0.20022,28704
0.20955,26510
0.21888,29385
0.22823,28121
0.23757,28758
0.24690,28353
0.25625,28739
0.26558,28369
0.27493,27543
0.28427,29682
0.29360,28606
0.30295,28098
0.31228,27621
0.32162,28412
0.33097,27990
0.34030,27374
0.34963,27841
0.35898,28498
0.36832,27683
0.37765,28625
0.38700,28202
0.39633,29460
0.40567,28481
0.41502,28142
0.42435,26698
0.43368,24980
0.44303,20169
0.45237,17438
0.46172,12500
0.47105,8000
0.48038,6154
0.48973,5908
0.49907,6284
0.50840,5816
0.51775,6290
0.52708,5403
0.53642,6538
0.54577,5550
0.55510,5348
0.56443,6207
0.57378,5518
0.58312,5091
0.59245,5829
0.60180,5704
0.61113,4910
0.62047,5381
0.62982,5784
0.63915,5523
0.64850,5681
0.65783,5286
0.66717,5853
0.67652,5263
0.68585,5395
0.69518,5134
0.70453,5337
0.71387,5614
0.72320,4841
0.73255,4985
0.74188,4759
0.75122,5693
0.76057,5202
0.76990,5079
0.77923,5344
0.78858,4827
0.79792,5091
0.80727,4954
0.81660,5609
0.82593,5103
0.83528,4517
0.84462,4691
0.85395,4239
0.86330,5433
0.87263,4327
0.88197,5130
0.89132,4772
0.90065,4631
0.90998,5325
0.91933,4489
0.92867,4703
0.93800,4934
0.94735,4190
0.95668,4769
0.96602,4948
0.97537,4537
0.98470,4010
0.99405,4667
1.00338,4157
1.01272,4767
1.02207,4397
1.03140,4711
1.04073,4517
1.05008,4542
1.05942,4393
1.06875,5306
1.07810,4409
1.08743,4052
1.09677,4848
1.10612,4812
1.11545,4198
1.12478,4670
1.13413,4488
1.14347,3936
1.15280,5230
1.16215,4773
1.17148,3856
1.18083,4506
1.19017,4340
1.19950,4454
1.20885,4635
1.21818,4297
1.22752,4213
1.23687,4480
1.24620,4502
1.25553,3934
1.26488,4980
1.27422,4525
1.28355,4992
1.29290,4665
1.30223,3836
1.31157,4652
1.32092,4666
1.33025,3398
1.33958,3626
1.34893,4016
1.35827,4217
1.36762,4716
1.37695,4303
1.38628,4305
1.39563,4565
1.40497,4725
1.41430,4031
1.42365,4445
1.43298,4596
1.44232,4664
1.45167,4383
1.46100,4271
1.47033,4674
1.47968,3507
1.48902,3856
1.49835,4268
1.50770,3863
1.51703,4713
1.52637,4251
1.53572,4760
1.54505,3884
1.55440,4366
1.56373,4349
1.57307,3917
1.58242,4186
1.59175,5531
1.60108,9756
1.61043,17781
1.61977,24650
1.62910,29220
1.63845,40456
1.64778,55894
1.65712,61882
1.66647,61552
1.67580,52687
1.68513,46108
1.69448,36662
1.70382,28003
1.71317,21120
1.72250,20789
1.73183,23153
1.74118,26529
1.75052,28436
1.75985,30247
1.76920,32355
1.77853,33158
1.78787,34426
1.79722,33874
1.80655,35335
1.81588,35080
1.82523,33386
1.83457,33957
1.84390,32391
1.85325,33061
1.86258,35239
1.87192,39454
1.88127,51038
1.89060,75744
1.89995,106927
1.90928,132013
1.91862,166037
1.92797,251324
1.93730,433045
1.94663,652560
1.95598,788071
1.96532,755060
1.97465,625298
1.98400,463725
1.99333,341050
2.00267,270347
2.01202,239083
2.02135,235749
2.03068,299821
2.04003,265938
2.04937,212240
2.05870,167941
2.06805,134586
2.07738,120373
2.08673,154888
2.09607,200112
2.10540,153310
2.11475,111980
2.12408,102147
2.13342,230840
2.14277,409164
2.15210,373819
2.16143,261157
2.17078,180059
2.18012,145804
2.18945,150490
2.19880,161048
2.20813,134063
2.21747,96558
2.22682,96729
2.23615,137349
2.24548,254223
2.25483,1143720
2.26417,2987528
2.27352,3165906
2.28285,2300497
2.29218,1444017
2.30153,1065609
2.31087,2654411
2.32020,7483156
2.32955,8922974
2.33888,5552371
2.34822,2472674
2.35757,1072858
2.36690,510418
2.37623,289956
2.38558,222054
2.39492,191000
2.40425,166844
2.41360,154893
2.42293,137525
2.43228,117888
2.44162,105961
2.45095,96666
2.46030,86044
2.46963,86135
2.47897,88662
2.48832,83583
2.49765,75857
2.50698,68524
2.51633,65517
2.52567,64075
2.53500,63984
2.54435,66515
2.55368,76785
2.56302,89418
2.57237,114455
2.58170,210027
2.59103,208933
2.60038,172372
2.60972,147312
2.61907,144206
2.62840,135407
2.63773,121455
2.64708,109080
2.65642,107840
2.66575,98218
2.67510,85865
2.68443,72360
2.69377,63925
2.70312,60582
2.71245,60900
2.72178,78839
2.73113,111158
2.74047,144313
2.74980,175124
2.75915,207810
2.76848,221602
2.77782,227986
2.78717,253025
2.79650,256964
2.80585,213108
2.81518,163921
2.82452,131278
2.83387,117195
2.84320,105001
2.85253,107568
2.86188,121789
2.87122,139627
2.88055,155957
2.88990,145930
2.89923,117348
2.90857,95708
2.91792,86197
2.92725,78959
2.93658,72497
2.94593,65038
2.95527,59973
2.96460,57959
2.97395,56502
2.98328,56106
2.99263,60873
3.00197,78090
3.01130,93000
3.02065,86433
3.02998,75753
3.03932,83328
3.04867,115446
3.05800,126061
3.06733,143251
3.07668,146586
3.08602,124507
3.09535,95946
3.10470,70476
3.11403,58535
3.12337,55554
3.13272,54645
3.14205,53976
3.15138,57417
3.16073,63013
3.17007,67439
3.17942,66157
3.18875,63335
3.19808,60462
3.20743,58447
3.21677,59059
3.22610,56191
3.23545,56663
3.24478,54704
3.25412,53990
3.26347,57926
3.27280,54385
3.28213,52976
3.29148,50850
3.30082,52820
3.31015,53507
3.31950,53159
3.32883,50759
3.33818,51993
3.34752,52102
3.35685,49424
3.36620,48697
3.37553,48711
3.38487,47730
3.39422,45869
3.40355,48070
3.41288,53568
3.42223,59095
3.43157,61467
3.44090,58244
3.45025,60208
3.45958,59565
3.46892,59676
3.47827,54997
3.48760,59780
3.49693,62605
3.50628,59995
3.51562,56468
3.52497,51873
3.53430,49007
3.54363,51504
3.55298,91493
3.56232,218488
3.57165,379064
3.58100,404644
3.59033,274728
3.59967,153355
3.60902,100794
3.61835,73714
3.62768,75171
3.63703,83933
3.64637,75220
3.65570,69599
3.66505,65586
3.67438,67661
3.68372,68878
3.69307,64692
3.70240,56272
3.71175,50890
3.72108,52393
3.73042,55620
3.73977,54647
3.74910,52264
3.75843,51377
3.76778,47691
3.77712,47310
3.78645,46098
3.79580,48125
3.80513,67787
3.81447,130393
3.82382,202286
3.83315,192750
3.84248,125162
3.85183,77433
3.86117,59844
3.87050,53265
3.87985,54674
3.88918,58693
3.89853,59998
3.90787,63135
3.91720,63057
3.92655,63870
3.93588,63761
3.94522,64778
3.95457,83051
3.96390,107038
3.97323,98655
3.98258,79750
3.99192,63128
4.00125,55838
4.01060,49569
4.01993,48455
4.02927,53218
4.03862,61618
4.04795,94125
4.05730,107608
4.06663,89063
4.07597,76057
4.08532,83024
4.09465,99844
4.10398,98954
4.11333,86816
4.12267,67474
4.13200,58200
4.14135,52673
4.15068,49013
4.16002,50837
4.16937,48301
4.17870,45487
4.18803,46363
4.19738,45790
4.20672,48553
4.21605,50775
4.22540,50193
4.23473,46580
4.24408,47190
4.25342,44992
4.26275,43030
4.27210,46167
4.28143,52497
4.29077,56687
4.30012,54890
4.30945,49488
4.31878,49156
4.32813,53194
4.33747,54682
4.34680,56958
4.35615,54211
4.36548,50194
4.37482,48603
4.38417,51585
4.39350,58615
4.40283,60539
4.41218,53327
4.42152,47558
4.43087,45554
4.44020,41355
4.44953,42985
4.45888,41868
4.46822,49492
4.47755,58932
4.48690,70873
4.49623,67579
4.50557,58236
4.51492,50353
4.52425,45326
4.53358,47856
4.54293,50898
4.55227,54615
4.56160,54899
4.57095,53044
4.58028,50657
4.58962,48443
4.59897,46299
4.60830,46819
4.61765,45201
4.62698,46804
4.63632,46259
4.64567,48661
4.65500,49607
4.66433,54334
4.67368,55767
4.68302,57877
4.69235,58587
4.70170,63699
4.71103,64029
4.72037,57359
4.72972,50474
4.73905,53738
4.74838,69597
4.75773,65599
4.76707,60994
4.77640,57488
4.78575,52176
4.79508,49413
4.80443,49005
4.81377,48468
4.82310,49696
4.83245,49215
4.84178,50259
4.85112,52181
4.86047,51407
4.86980,50616
4.87913,54612
4.88848,57612
4.89782,59785
4.90715,58398
4.91650,57879
4.92583,57378
4.93517,51741
4.94452,51976
4.95385,50077
4.96320,46705
4.97253,45352
4.98187,45053
4.99122,45174
5.00055,46340
5.00988,50767
5.01923,51005
5.02857,50920
5.03790,50827
5.04725,51952
5.05658,50351
5.06592,51253
5.07527,53320
5.08460,54591
5.09393,58703
5.10328,54812
5.11262,49938
5.12195,48623
5.13130,48005
5.14063,51704
5.14998,54375
5.15932,54987
5.16865,50208
5.17800,46182
5.18733,46120
5.19667,56224
5.20602,62829
5.21535,61959
5.22468,53468
5.23403,50285
5.24337,49755
5.25270,51972
5.26205,52221
5.27138,62997
5.28072,123535
5.29007,232396
5.29940,305876
5.30873,253846
5.31808,161104
5.32742,109078
5.33677,85074
5.34610,72178
5.35543,58105
5.36478,52807
5.37412,52344
5.38345,57032
5.39280,63020
5.40213,68958
5.41147,69036
5.42082,61291
5.43015,55756
5.43948,51053
5.44883,47033
5.45817,44461
5.46750,42158
5.47685,43880
5.48618,45444
5.49552,45158
5.50487,43312
5.51420,46511
5.52355,52556
5.53288,62970
5.54222,65570
5.55157,63134
5.56090,58792
5.57023,54219
5.57958,49048
5.58892,46125
5.59825,45353
5.60760,44824
5.61693,44045
5.62627,42628
5.63562,44393
5.64495,45078
5.65428,43923
5.66363,44879
5.67297,44081
5.68230,45451
5.69165,47427
5.70098,48396
5.71033,53044
5.71967,53590
5.72900,53697
5.73835,50562
5.74768,54879
5.75702,62525
5.76637,64162
5.77570,55833
5.78503,51015
5.79438,51922
5.80372,51150
5.81305,50457
5.82240,51673
5.83173,56018
5.84107,56800
5.85042,57682
5.85975,49487
5.86910,46543
5.87843,47467
5.88777,41503
5.89712,35764
5.90645,38330
5.91578,61829
5.92513,112383
5.93447,152957
5.94380,145057
5.95315,164636
5.96248,171584
5.97182,134572
5.98117,89772
5.99050,61052
5.99983,49853
6.00918,44888
6.01852,40373
6.02785,36793
6.03720,30753
6.04653,26819
6.05588,23775
6.06522,23060
6.07455,23403
6.08390,22713
6.09323,20151
6.10257,19584
6.11192,18899
6.12125,21391
6.13058,27172
6.13993,32223
6.14927,32321
6.15860,24881
6.16795,21036
6.17728,18419
6.18662,19289
6.19597,21255
6.20530,18458
6.21463,18106
6.22398,18982
6.23332,21228
6.24267,23802
6.25200,23678
6.26133,21326
6.27068,20254
6.28002,24066
6.28935,33158
6.29870,30182
6.30803,24438
6.31737,18865
6.32672,15470
6.33605,14902
6.34538,15083
6.35473,14113
6.36407,14248
6.37340,16747
6.38275,22361
6.39208,33669
6.40142,62036
6.41077,157769
6.42010,293465
6.42945,298476
6.43878,175291
6.44812,64997
6.45747,31902
6.46680,22801
6.47613,20447
6.48548,19793
6.49482,19944
6.50415,19219
6.51350,19101
6.52283,19579
6.53217,17806
6.54152,17229
6.55085,15833
6.56018,15544
6.56953,16595
6.57887,15973
6.58820,17909
6.59755,18101
6.60688,19698
6.61623,19061
6.62557,18757
6.63490,20311
6.64425,20520
6.65358,20336
6.66292,20755
6.67227,21901
6.68160,24320
6.69093,20862
6.70028,22108
6.70962,26088
6.71895,26421
6.72830,26446
6.73763,24266
6.74697,22746
6.75632,20878
6.76565,19939
6.77500,20633
6.78433,23332
6.79367,28340
6.80302,38515
6.81235,41776
6.82168,32247
6.83103,24266
6.84037,18214
6.84970,17520
6.85905,17456
6.86838,18829
6.87772,18465
6.88707,18005
6.89640,18551
6.90573,21559
6.91508,25366
6.92442,24637
6.93375,22606
6.94310,20243
6.95243,20378
6.96178,18766
6.97112,20526
6.98045,19521
6.98980,19679
6.99913,18056
7.00847,17909
7.01782,20203
7.02715,19492
7.03648,18299
7.04583,16504
7.05517,15248
7.06450,14672
7.07385,14127
7.08318,15235
7.09252,17280
7.10187,18258
7.11120,21513
7.12053,21869
7.12988,22026
7.13922,18622
7.14857,17221
7.15790,17528
7.16723,16868
7.17658,15961
7.18592,16923
7.19525,16178
7.20460,15718
7.21393,15509
7.22327,18773
7.23262,30501
7.24195,59386
7.25128,74155
7.26063,64605
7.26997,41881
7.27930,30710
7.28865,28078
7.29798,26237
7.30732,24412
7.31667,21919
7.32600,17916
7.33535,16518
7.34468,15535
7.35402,16965
7.36337,16902
7.37270,16343
7.38203,17442
7.39138,24875
7.40072,47974
7.41005,91368
7.41940,120876
7.42873,105421
7.43807,70736
7.44742,41459
7.45675,27270
7.46608,19764
7.47543,16583
7.48477,18302
7.49412,24830
7.50345,27290
7.51278,25621
7.52213,21296
7.53147,18276
7.54080,16885
7.55015,15186
7.55948,17061
7.56882,18380
7.57817,20499
7.58750,19492
7.59683,17780
7.60618,20244
7.61552,17457
7.62485,17363
7.63420,18268
7.64353,19944
7.65287,20154
7.66222,18506
7.67155,17156
7.68090,16369
7.69023,16902
7.69957,15635
7.70892,16648
7.71825,19731
7.72758,20468
7.73693,19887
7.74627,20049
7.75560,20227
7.76495,21265
7.77428,21776
7.78362,22107
7.79297,24206
7.80230,27173
7.81163,24302
7.82098,21669
7.83032,18240
7.83965,17985
7.84900,21089
7.85833,30059
7.86768,51670
7.87702,72017
7.88635,66954
7.89570,49430
7.90503,35664
7.91437,43061
7.92372,63499
7.93305,70018
7.94238,52137
7.95173,36953
7.96107,45001
7.97040,66391
7.97975,78945
7.98908,86283
7.99842,83774
8.00777,62989
8.01710,44324
8.02643,34293
8.03578,36011
8.04512,43221
8.05447,46390
8.06380,37627
8.07313,28416
8.08248,23015
8.09182,33649
8.10115,52752
8.11050,61842
8.11983,51746
8.12917,37643
8.13852,27337
8.14785,21600
8.15718,19447
8.16653,18231
8.17587,18948
8.18520,20534
8.19455,20898
8.20388,19551
8.21322,20054
8.22257,20408
8.23190,19491
8.24125,22488
8.25058,23707
8.25992,24359
8.26927,23988
8.27860,21172
8.28793,21558
8.29728,19450
8.30662,18931
8.31595,19177
8.32530,18635
8.33463,19568
8.34397,17648
8.35332,19195
8.36265,18959
8.37198,17846
8.38133,17605
8.39067,19201
8.40002,22499
8.40935,29400
8.41868,32628
8.42803,29427
8.43737,30310
8.44670,30664
8.45605,30020
8.46538,28676
8.47472,27419
8.48407,25755
8.49340,24590
8.50273,24240
8.51208,23087
8.52142,22354
8.53075,20109
8.54010,23166
8.54943,32030
8.55877,39672
8.56812,41834
8.57745,40277
8.58680,37119
8.59613,35792
8.60547,33920
8.61482,36553
8.62415,33582
8.63348,32362
8.64283,32214
8.65217,29757
8.66150,27398
8.67085,28578
8.68018,27802
8.68952,26185
8.69887,26472
8.70820,25646
8.71753,25898
8.72688,24365
8.73622,24880
8.74555,28697
8.75490,42338
8.76423,47689
8.77358,39367
8.78292,33458
8.79225,33121
8.80160,57335
8.81093,113930
8.82027,148360
8.82962,120890
8.83895,63955
8.84828,34415
8.85763,23331
8.86697,23900
8.87630,26591
8.88565,29563
8.89498,28678
8.90432,27506
8.91367,25108
8.92300,26507
8.93233,27391
8.94168,28750
8.95102,26960
8.96037,21530
8.96970,24025
8.97903,24865
8.98838,26758
8.99772,24667
9.00705,25416
9.01640,29135
9.02573,28873
9.03507,26975
9.04442,27594
9.05375,27202
9.06308,29768
9.07243,32543
9.08177,39104
9.09110,45576
9.10045,48486
9.10978,42299
9.11913,48231
9.12847,108554
9.13780,223765
9.14715,271776
9.15648,194848
9.16582,91107
9.17517,41739
9.18450,28483
9.19383,27280
9.20318,27461
9.21252,30354
9.22185,39176
9.23120,63220
9.24053,92010
9.24987,89743
9.25922,57607
9.26855,36851
9.27788,27869
9.28723,26585
9.29657,25278
9.30592,25667
9.31525,26673
9.32458,38175
9.33393,57452
9.34327,68457
9.35260,56197
9.36195,55448
9.37128,104518
9.38062,174328
9.38997,185252
9.39930,138010
9.40863,85931
9.41798,60191
9.42732,48873
9.43665,43781
9.44600,37048
9.45533,28314
9.46467,24388
9.47402,23886
9.48335,24571
9.49270,28126
9.50203,33480
9.51137,32775
9.52072,29674
9.53005,25488
9.53938,28235
9.54873,34696
9.55807,46887
9.56740,70633
9.57675,77619
9.58608,57573
9.59542,40732
9.60477,44120
9.61410,47898
9.62343,37994
9.63278,29681
9.64212,28740
9.65145,28663
9.66080,27696
9.67013,29871
9.67948,28040
9.68882,27958
9.69815,25705
9.70750,24952
9.71683,40519
9.72617,204713
9.73552,1095856
9.74485,3190556
9.75418,4918159
9.76353,4263961
9.77287,2172064
9.78220,816798
9.79155,354472
9.80088,225738
9.81022,165437
9.81957,139090
9.82890,129485
9.83823,136326
9.84758,147175
9.85692,144114
9.86627,124083
9.87560,97081
9.88493,95630
9.89428,106407
9.90362,119897
9.91295,120373
9.92230,205596
9.93163,360897
9.94097,347787
9.95032,209032
9.95965,107966
9.96898,72155
9.97833,82619
9.98767,143813
9.99700,209016
10.00635,190280
10.01568,116853
10.02503,74017
10.03437,54328
10.04370,49597
10.05305,48343
10.06238,50717
10.07172,60539
10.08107,71534
10.09040,67680
10.09973,58614
10.10908,63246
10.11842,151696
10.12775,399215
10.13710,643406
10.14643,649111
10.15577,939576
10.16512,2312116
10.17445,3395822
10.18378,2587503
10.19313,963096
10.20247,211830
10.21182,64952
10.22115,45973
10.23048,48941
10.23983,73711
10.24917,113947
10.25850,121836
10.26785,81351
10.27718,52703
10.28652,40760
10.29587,39151
10.30520,39537
10.31453,38457
10.32388,36731
10.33322,35011
10.34255,32199
10.35190,31808
10.36123,37114
10.37057,40752
10.37992,39485
10.38925,32936
10.39860,28875
10.40793,27131
10.41727,28593
10.42662,30929
10.43595,34677
10.44528,40006
10.45463,45251
10.46397,46651
10.47330,42607
10.48265,35791
10.49198,28557
10.50132,26438
10.51067,25410
10.52000,26145
10.52933,27130
10.53868,28363
10.54802,29657
10.55735,29157
10.56670,30490
10.57603,30123
10.58538,32638
10.59472,37863
10.60405,40695
10.61340,38267
10.62273,34965
10.63207,36745
10.64142,38386
10.65075,36989
10.66008,32678
10.66943,32392
10.67877,36978
10.68810,39634
10.69745,37416
10.70678,35123
10.71612,41384
10.72547,51512
10.73480,49435
10.74415,41792
10.75348,66996
10.76282,153714
10.77217,226517
10.78150,201743
10.79083,152010
10.80018,181586
10.80952,281027
10.81885,295824
10.82820,195674
10.83753,99005
10.84687,55467
10.85622,41325
10.86555,36396
10.87488,42182
10.88423,61150
10.89357,74113
10.90290,69399
10.91225,52134
10.92158,42138
10.93093,41088
10.94027,39622
10.94960,36419
10.95895,32071
10.96828,33252
10.97762,32260
10.98697,28971
10.99630,28300
11.00563,27145
11.01498,26955
11.02432,26231
11.03365,26107
11.04300,26186
11.05233,25463
11.06167,25649
11.07102,29786
11.08035,30188
11.08968,29761
11.09903,29793
11.10837,33294
11.11772,41993
11.12705,43744
11.13638,38917
11.14573,30955
11.15507,27638
11.16440,26978
11.17375,27903
11.18308,26422
11.19242,25144
11.20177,25596
11.21110,25955
11.22043,28270
11.22978,29887
11.23912,30494
11.24845,28911
11.25780,28053
11.26713,32462
11.27647,34862
11.28582,30950
11.29515,29386
11.30450,32619
11.31383,30884
11.32317,27797
11.33252,29452
11.34185,38368
11.35118,48695
11.36053,64984
11.36987,64105
11.37920,52410
11.38855,42538
11.39788,38353
11.40722,42204
11.41657,44821
11.42590,40689
11.43523,35496
11.44458,31713
11.45392,33690
11.46325,39874
11.47260,54210
11.48193,61706
11.49128,52233
11.50062,35204
11.50995,27496
11.51930,26580
11.52863,26531
11.53797,24243
11.54732,26257
11.55665,29218
11.56598,40540
11.57533,65865
11.58467,101038
11.59400,103192
11.60335,86189
11.61268,66203
11.62202,51681
11.63137,47439
11.64070,47892
11.65003,45633
11.65938,47787
11.66872,52546
11.67807,48478
11.68740,40231
11.69673,35833
11.70608,34660
11.71542,34851
11.72475,36894
11.73410,34230
11.74343,33030
11.75277,31062
11.76212,31562
11.77145,34478
11.78078,37658
11.79013,46918
11.79947,54546
11.80880,51261
11.81815,42424
11.82748,36967
11.83683,38589
11.84617,41078
11.85550,39547
11.86485,39349
11.87418,41841
11.88352,50670
11.89287,49524
11.90220,41158
11.91153,32105
11.92088,30750
11.93022,32098
11.93955,36870
11.94890,50464
11.95823,58201
11.96757,49969
11.97692,36679
11.98625,34191
11.99558,31862
12.00493,38788
12.01427,52283
12.02362,59914
12.03295,55672
12.04228,43992
12.05163,39013
12.06097,37015
12.07030,33552
12.07965,31003
12.08898,35492
12.09832,39820
12.10767,40406
12.11700,39450
12.12633,32360
12.13568,33846
12.14502,35499
12.15435,36899
12.16370,40360
12.17303,61709
12.18237,100901
12.19172,106842
12.20105,77111
12.21040,52187
12.21973,43067
12.22907,48019
12.23842,56058
12.24775,54031
12.25708,46415
12.26643,80290
12.27577,233903
12.28510,463406
12.29445,487248
12.30378,276343
12.31312,114489
12.32247,62979
12.33180,51812
12.34113,49097
12.35048,51199
12.35982,44016
12.36915,37748
12.37850,35425
12.38783,37412
12.39718,39703
12.40652,38956
12.41585,37479
12.42520,40328
12.43453,41607
12.44387,37377
12.45322,35794
12.46255,39923
12.47188,41102
12.48123,47666
12.49057,51245
12.49990,58761
12.50925,66140
12.51858,59464
12.52792,57301
12.53727,53878
12.54660,49648
12.55595,45984
12.56528,49800
12.57462,61536
12.58397,74865
12.59330,73138
12.60263,59643
12.61198,46542
12.62132,42984
12.63065,44544
12.64000,49029
12.64933,55190
12.65867,58991
12.66802,53019
12.67735,45491
12.68668,38830
12.69603,36572
12.70537,33958
12.71470,34853
12.72405,37328
12.73338,38698
12.74273,39971
12.75207,42151
12.76140,46672
12.77075,45872
12.78008,42285
12.78942,36641
12.79877,34468
12.80810,33973
12.81743,34756
12.82678,37166
12.83612,38689
12.84545,38698
12.85480,35964
12.86413,32331
12.87347,29980
12.88282,29375
12.89215,33740
12.90148,35265
12.91083,35922
12.92017,32593
12.92952,31211
12.93885,29256
12.94818,32628
12.95753,32615
12.96687,32633
12.97620,30467
12.98555,27235
12.99488,25876
13.00422,26248
13.01357,28399
13.02290,32296
13.03223,41394
13.04158,49558
13.05092,49841
13.06025,38495
13.06960,34121
13.07893,33445
13.08827,35783
13.09762,35782
13.10695,37986
13.11630,35698
13.12563,34750
13.13497,41226
13.14432,54001
13.15365,106820
13.16298,234793
13.17233,366023
13.18167,332523
13.19100,212448
13.20035,190633
13.20968,378455
13.21902,610270
13.22837,573017
13.23770,333669
13.24703,153936
13.25638,114666
13.26572,99008
13.27505,72150
13.28440,59198
13.29373,51154
13.30308,46282
13.31242,45673
13.32175,49505
13.33110,54077
13.34043,51850
13.34977,55883
13.35912,60065
13.36845,56262
13.37778,46691
13.38713,43688
13.39647,48468
13.40580,53551
13.41515,52944
13.42448,40963
13.43382,38824
13.44317,45445
13.45250,48776
13.46183,44655
13.47118,40312
13.48052,41413
13.48987,42273
13.49920,39516
13.50853,39166
13.51788,58498
13.52722,120457
13.53655,179522
13.54590,164653
13.55523,99430
13.56457,57946
13.57392,42110
13.58325,36354
13.59258,32629
13.60193,32023
13.61127,31389
13.62060,29951
13.62995,34970
13.63928,50902
13.64863,83951
13.65797,103953
13.66730,89311
13.67665,58288
13.68598,40659
13.69532,32477
13.70467,31765
13.71400,27104
13.72333,27693
13.73268,27554
13.74202,26225
13.75135,26251
13.76070,30221
13.77003,30833
13.77937,29840
13.78872,30474
13.79805,37037
13.80738,46042
13.81673,49502
13.82607,42939
13.83542,33074
13.84475,30805
13.85408,30080
13.86343,31473
13.87277,34620
13.88210,37345
13.89145,47859
13.90078,75720
13.91012,151369
13.91947,294873
13.92880,374639
13.93813,266622
13.94748,121841
13.95682,57084
13.96615,44285
13.97550,40530
13.98483,37274
13.99417,37172
14.00352,39302
14.01285,42991
14.02220,39317
14.03153,33495
14.04087,49065
14.05022,235864
14.05955,1419809
14.06888,4765301
14.07823,8471260
14.08757,8046854
14.09690,3722258
14.10625,788413
14.11558,123941
14.12492,55255
14.13427,45990
14.14360,45118
14.15293,47392
14.16228,51332
14.17162,57945
14.18095,71728
14.19030,129703
14.19963,237564
14.20898,269026
14.21832,177432
14.22765,81136
14.23700,44097
14.24633,35799
14.25567,32038
14.26502,32489
14.27435,32359
14.28368,32122
14.29303,31162
14.30237,29527
14.31170,31499
14.32105,36478
14.33038,49192
14.33972,57697
14.34907,58001
14.35840,49700
14.36775,41173
14.37708,36438
14.38642,35272
14.39577,31191
14.40510,31498
14.41443,30619
14.42378,27916
14.43312,27325
14.44245,28212
14.45180,30280
14.46113,38015
14.47047,46313
14.47982,49255
14.48915,43632
14.49848,35690
14.50783,30019
14.51717,26569
14.52650,26102
14.53585,26877
14.54518,28371
14.55453,29183
14.56387,30006
14.57320,31082
14.58255,30758
14.59188,29680
14.60122,27494
14.61057,27188
14.61990,27560
14.62923,27651
14.63858,32305
14.64792,40663
14.65725,55160
14.66660,63901
14.67593,55596
14.68527,44995
14.69462,34683
14.70395,33235
14.71328,31333
14.72263,30249
14.73197,32185
14.74132,36326
14.75065,35413
14.75998,33162
14.76933,31673
14.77867,30588
14.78800,31613
14.79735,32006
14.80668,31778
14.81602,32341
14.82537,35285
14.83470,32983
14.84403,30834
14.85338,27504
14.86272,29302
14.87205,41765
14.88140,54832
14.89073,55591
14.90007,48954
14.90942,38743
14.91875,33312
14.92810,31884
14.93743,31921
14.94677,31835
14.95612,29073
14.96545,28827
14.97478,33188
14.98413,37713
14.99347,38774
15.00280,39278
15.01215,44271
15.02148,47813
15.03082,44120
15.04017,36484
15.04950,35594
15.05883,37513
15.06818,38794
15.07752,36654
15.08685,35436
15.09620,30728
15.10553,27326
15.11488,29014
15.12422,33068
15.13355,42489
15.14290,45017
15.15223,39959
15.16157,31712
15.17092,26900
15.18025,28736
15.18958,28471
15.19893,33941
15.20827,51734
15.21760,76689
15.22695,90105
15.23628,80377
15.24562,58181
15.25497,45215
15.26430,38880
15.27365,34233
15.28298,34808
15.29232,33949
15.30167,32793
15.31100,31265
15.32033,32502
15.32968,37908
15.33902,41371
15.34835,42214
15.35770,37740
15.36703,40353
15.37637,47941
15.38572,50053
15.39505,43645
15.40438,31865
15.41373,31154
15.42307,33756
15.43240,39262
15.44175,36737
15.45108,33600
15.46043,31335
15.46977,29718
15.47910,30874
15.48845,36265
15.49778,46116
15.50712,55331
15.51647,82951
15.52580,105157
15.53513,95502
15.54448,66432
15.55382,43731
15.56315,34005
15.57250,32046
15.58183,32513
15.59117,31625
15.60052,32153
15.60985,31549
15.61918,34756
15.62853,34560
15.63787,42109
15.64722,42364
15.65655,44108
15.66588,51107
15.67523,51471
15.68457,49117
15.69390,48761
15.70325,54176
15.71258,64352
15.72192,59574
15.73127,46979
15.74060,37676
15.74993,38583
15.75928,46295
15.76862,54753
15.77795,56985
15.78730,48294
15.79663,40831
15.80597,40461
15.81532,65456
15.82465,134306
15.83400,243302
15.84333,341616
15.85267,330307
15.86202,233811
15.87135,122290
15.88068,73875
15.89003,68492
15.89937,79708
15.90870,86547
15.91805,77176
15.92738,57358
15.93672,45018
15.94607,39596
15.95540,37441
15.96473,39807
15.97408,52709
15.98342,71626
15.99277,85728
16.00210,87850
16.01143,70508
16.02078,53195
16.03012,41272
16.03945,35758
16.04880,37624
16.05813,40308
16.06747,42567
16.07682,39985
16.08615,40376
16.09548,36446
16.10483,40419
16.11417,50183
16.12350,66727
16.13285,75345
16.14218,65508
16.15152,52466
16.16087,44056
16.17020,41350
16.17955,38644
16.18888,35836
16.19822,38398
16.20757,44847
16.21690,55406
16.22623,61686
16.23558,65088
16.24492,63683
16.25425,58776
16.26360,59664
16.27293,71530
16.28227,106367
16.29162,212140
16.30095,394783
16.31028,466576
16.31963,334039
16.32897,152698
16.33830,68274
16.34765,44546
16.35698,36695
16.36633,33957
16.37567,30885
16.38500,29801
16.39435,33483
16.40368,33480
16.41302,35176
16.42237,35726
16.43170,39033
16.44103,38495
16.45038,42298
16.45972,53262
16.46905,57704
16.47840,51596
16.48773,43883
16.49707,43422
16.50642,40903
16.51575,45386
16.52508,48613
16.53443,45371
16.54377,41717
16.55312,37618
16.56245,35451
16.57178,36572
16.58113,38346
16.59047,44047
16.59980,44403
16.60915,44571
16.61848,48271
16.62782,53141
16.63717,60207
16.64650,61756
16.65583,60897
16.66518,52445
16.67452,45530
16.68385,42893
16.69320,49904
16.70253,59496
16.71187,60420
16.72122,48557
16.73055,41154
16.73990,48890
16.74923,87037
16.75857,133252
16.76792,127633
16.77725,80556
16.78658,46341
16.79593,37104
16.80527,36242
16.81460,38116
16.82395,43284
16.83328,52269
16.84262,59872
16.85197,56161
16.86130,45660
16.87063,40415
16.87998,34351
16.88932,35246
16.89867,38778
16.90800,42441
16.91733,60240
16.92668,69766
16.93602,62589
16.94535,54131
16.95470,56787
16.96403,62445
16.97337,65622
16.98272,57412
16.99205,45905
17.00138,39462
17.01073,38912
17.02007,40692
17.02940,68855
17.03875,114290
17.04808,127347
17.05742,89923
17.06677,55100
17.07610,44966
17.08545,42881
17.09478,41452
17.10412,40871
17.11347,39026
17.12280,40284
17.13213,47787
17.14148,60357
17.15082,64294
17.16015,53853
17.16950,40915
17.17883,39143
17.18817,40423
17.19752,38710
17.20685,36874
17.21618,34769
17.22553,33107
17.23487,32890
17.24420,34971
17.25355,37156
17.26288,38348
17.27223,43634
17.28157,49205
17.29090,55402
17.30025,56046
17.30958,52036
17.31892,47894
17.32827,50678
17.33760,50677
17.34693,43116
17.35628,39986
17.36562,41609
17.37495,61738
17.38430,133624
17.39363,245317
17.40297,248010
17.41232,150197
17.42165,80328
17.43098,58038
17.44033,49115
17.44967,48405
17.45902,49737
17.46835,46577
17.47768,46132
17.48703,59979
17.49637,215547
17.50570,1006101
17.51505,2714146
17.52438,3812756
17.53372,2832642
17.54307,1013901
17.55240,215875
17.56173,68629
17.57108,54843
17.58042,58029
17.58975,61307
17.59910,58057
17.60843,53143
17.61777,45046
17.62712,41903
17.63645,44650
17.64580,44692
17.65513,44716
17.66447,51487
17.67382,58552
17.68315,64391
17.69248,73021
17.70183,77994
17.71117,68901
17.72050,58527
17.72985,52485
17.73918,48296
17.74852,46243
17.75787,50396
17.76720,57199
17.77653,61953
17.78588,63293
17.79522,53270
17.80457,46086
17.81390,43530
17.82323,40988
17.83258,39795
17.84192,39138
17.85125,43546
17.86060,53381
17.86993,62243
17.87927,65468
17.88862,57365
17.89795,49192
17.90728,42238
17.91663,38874
17.92597,38095
17.93530,39916
17.94465,37383
17.95398,38109
17.96332,38945
17.97267,38965
17.98200,40248
17.99135,39163
18.00068,37928
18.01002,39952
18.01937,41726
18.02870,45562
18.03803,43972
18.04738,53465
18.05672,70986
18.06605,86052
18.07540,75581
18.08473,57610
18.09407,42826
18.10342,42192
18.11275,42424
18.12208,44055
18.13143,44327
18.14077,44464
18.15010,44111
18.15945,43042
18.16878,44832
18.17813,43917
18.18747,43210
18.19680,42446
18.20615,38246
18.21548,37972
18.22482,40793
18.23417,40755
18.24350,39220
18.25283,37429
18.26218,34680
18.27152,39671
18.28085,45118
18.29020,56329
18.29953,56067
18.30887,60895
18.31822,60903
18.32755,56665
18.33688,58535
18.34623,65170
18.35557,72398
18.36492,78762
18.37425,71149
18.38358,63966
18.39293,73733
18.40227,103850
18.41160,152193
18.42095,158954
18.43028,111446
18.43962,75210
18.44897,70390
18.45830,67297
18.46763,58817
18.47698,51302
18.48632,49979
18.49565,61334
18.50500,77768
18.51433,93085
18.52367,102835
18.53302,94239
18.54235,77057
18.55170,61732
18.56103,55486
18.57037,56075
18.57972,52191
18.58905,48097
18.59838,45112
18.60773,49944
18.61707,57081
18.62640,63357
18.63575,68198
18.64508,72869
18.65442,69983
18.66377,72159
18.67310,87353
18.68243,105534
18.69178,95286
18.70112,79159
18.71047,71500
18.71980,70703
18.72913,69737
18.73848,64086
18.74782,63321
18.75715,57566
18.76650,53012
18.77583,47265
18.78517,43467
18.79452,42247
18.80385,46972
18.81318,50117
18.82253,56875
18.83187,55505
18.84120,53460
18.85055,47730
18.85988,44547
18.86922,41279
18.87857,39732
18.88790,38598
18.89725,39818
18.90658,43640
18.91592,52594
18.92527,59090
18.93460,59110
18.94393,56932
18.95328,58457
18.96262,66113
18.97195,70657
18.98130,65954
18.99063,62460
18.99997,56141
19.00932,52614
19.01865,50222
19.02798,46537
19.03733,50292
19.04667,74540
19.05600,124501
19.06535,168798
19.07468,185731
19.08403,211667
19.09337,233068
19.10270,193812
19.11205,123049
19.12138,74287
19.13072,54775
19.14007,47013
19.14940,45052
19.15873,39480
19.16808,39019
19.17742,40037
19.18675,46424
19.19610,53711
19.20543,65406
19.21477,64798
19.22412,65057
19.23345,63068
19.24278,61683
19.25213,53654
19.26147,46923
19.27082,46403
19.28015,51419
19.28948,60211
19.29883,70845
19.30817,90144
19.31750,116639
19.32685,134908
19.33618,106350
19.34552,74898
19.35487,55357
19.36420,45387
19.37353,44210
19.38288,43863
19.39222,41825
19.40155,44362
19.41090,47669
19.42023,48870
19.42958,43435
19.43892,41894
19.44825,40720
19.45760,40257
19.46693,41245
19.47627,45967
19.48562,53062
19.49495,58618
19.50428,60632
19.51363,52580
19.52297,46494
19.53230,44968
19.54165,44840
19.55098,42992
19.56032,42678
19.56967,46987
19.57900,57303
19.58833,59714
19.59768,58196
19.60702,52723
19.61637,47310
19.62570,50214
19.63503,58824
19.64438,67829
19.65372,65280
19.66305,56112
19.67240,49082
19.68173,49247
19.69107,51570
19.70042,54668
19.70975,59147
19.71908,68435
19.72843,98289
19.73777,124863
19.74710,130197
19.75645,97168
19.76578,68567
19.77512,62688
19.78447,65444
19.79380,65691
19.80315,64558
19.81248,58971
19.82182,53546
19.83117,53108
19.84050,50588
19.84983,45662
19.85918,41512
19.86852,50946
19.87785,77981
19.88720,100088
19.89653,95796
19.90587,75360
19.91522,64474
19.92455,61373
19.93388,56265
19.94323,50572
19.95257,48315
19.96190,46816
19.97125,51365
19.98058,50390
19.98993,45342
19.99927,42151
20.00860,42755
20.01795,49113
20.02728,52404
20.03662,55479
20.04597,57007
20.05530,58425
20.06463,56552
20.07398,54783
20.08332,55331
20.09265,55478
20.10200,50625
20.11133,45909
20.12067,41086
20.13002,38114
20.13935,39008
20.14868,46660
20.15803,63260
20.16737,69722
20.17672,65988
20.18605,53197
20.19538,47410
20.20473,46219
20.21407,47747
20.22340,47569
20.23275,48520
20.24208,45817
20.25142,43051
20.26077,43469
20.27010,41201
20.27943,42649
20.28878,46104
20.29812,46035
20.30745,47244
20.31680,41462
20.32613,39396
20.33547,38285
20.34482,38435
20.35415,40829
20.36350,43839
20.37283,47409
20.38217,44404
20.39152,39968
20.40085,39313
20.41018,38901
20.41953,39328
20.42887,38978
20.43820,40670
20.44755,45153
20.45688,43953
20.46622,50169
20.47557,58149
20.48490,67148
20.49423,59950
20.50358,48717
20.51292,42622
20.52227,41985
20.53160,39670
20.54093,42022
20.55028,44647
20.55962,54347
20.56895,107553
20.57830,252281
20.58763,380600
20.59697,317295
20.60632,165589
20.61565,79164
20.62498,69205
20.63433,117703
20.64367,245957
20.65300,378978
20.66235,349579
20.67168,222534
20.68102,132222
20.69037,90884
20.69970,78641
20.70905,71607
20.71838,69467
20.72772,66300
20.73707,61088
20.74640,56801
20.75573,54789
20.76508,53371
20.77442,50743
20.78375,49317
20.79310,50834
20.80243,59173
20.81177,60241
20.82112,55462
20.83045,52139
20.83978,46124
20.84913,45670
20.85847,43512
20.86780,41582
20.87715,41097
20.88648,42979
20.89583,45359
20.90517,50254
20.91450,51804
20.92385,50567
20.93318,47021
20.94252,41422
20.95187,42685
20.96120,40806
20.97053,40327
20.97988,41058
20.98922,40282
20.99855,40191
21.00790,42939
21.01723,41566
21.02657,40640
21.03592,38664
21.04525,38934
21.05458,39631
21.06393,41847
21.07327,40168
21.08262,41454
21.09195,42848
21.10128,43140
21.11063,42460
21.11997,45395
21.12930,44835
21.13865,41954
21.14798,41164
21.15732,42056
21.16667,44217
21.17600,48536
21.18533,56401
21.19468,61861
21.20402,60288
21.21335,51280
21.22270,47469
21.23203,45058
21.24138,47349
21.25072,44508
21.26005,44362
21.26940,44621
21.27873,52699
21.28807,60179
21.29742,59156
21.30675,56110
21.31608,50789
21.32543,43855
21.33477,42514
21.34410,45127
21.35345,44485
21.36278,43659
21.37212,41718
21.38147,40876
21.39080,41251
21.40013,42860
21.40948,46231
21.41882,46335
21.42817,51310
21.43750,47317
21.44683,46357
21.45618,44526
21.46552,41895
21.47485,42731
21.48420,45298
21.49353,49416
21.50287,47427
21.51222,47271
21.52155,46170
21.53088,42218
21.54023,42696
21.54957,42189
21.55890,46534
21.56825,63074
21.57758,86361
21.58692,95952
21.59627,82378
21.60560,60111
21.61495,49822
21.62428,49677
21.63362,51917
21.64297,49948
21.65230,45138
21.66163,42342
21.67098,43558
21.68032,49678
21.68965,60601
21.69900,71937
21.70833,74207
21.71767,63455
21.72702,57236
21.73635,54444
21.74568,50777
21.75503,48152
21.76437,42155
21.77370,40862
21.78305,40486
21.79238,39632
21.80173,41480
21.81107,44549
21.82040,50164
21.82975,52203
21.83908,50193
21.84842,46851
21.85777,44224
21.86710,42079
21.87643,46227
21.88578,52132
21.89512,59273
21.90445,62041
21.91380,59437
21.92313,50641
21.93247,46107
21.94182,44759
21.95115,44092
21.96048,44823
21.96983,51984
21.97917,58139
21.98852,62095
21.99785,70958
22.00718,63935
22.01653,54367
22.02587,49069
22.03520,47364
22.04455,49712
22.05388,51326
22.06322,51022
22.07257,52951
22.08190,52503
22.09123,52942
22.10058,53462
22.10992,49084
22.11925,49976
22.12860,43748
22.13793,46085
22.14728,48152
22.15662,53595
22.16595,64559
22.17530,77786
22.18463,83987
22.19397,73706
22.20332,56900
22.21265,50479
22.22198,54266
22.23133,58001
22.24067,60199
22.25000,56635
22.25935,52324
22.26868,50913
22.27802,53431
22.28737,59203
22.29670,67587
22.30603,66601
22.31538,57887
22.32472,51967
22.33407,44375
22.34340,44717
22.35273,49326
22.36208,53769
22.37142,54465
22.38075,54439
22.39010,50150
22.39943,47148
22.40877,45168
22.41812,44052
22.42745,45094
22.43678,43386
22.44613,48158
22.45547,48537
22.46480,45309
22.47415,46733
22.48348,45483
22.49282,44278
22.50217,43147
22.51150,40262
22.52085,41560
22.53018,43777
22.53952,42847
22.54887,39777
22.55820,42028
22.56753,44300
22.57688,52748
22.58622,54199
22.59555,54775
22.60490,57556
22.61423,54573
22.62357,53674
22.63292,54267
22.64225,51002
22.65158,47438
22.66093,45395
22.67027,42891
22.67960,42975
22.68895,49742
22.69828,56421
22.70763,55308
22.71697,52087
22.72630,49321
22.73565,50265
22.74498,58230
22.75432,61809
22.76367,66422
22.77300,66969
22.78233,58903
22.79168,51395
22.80102,52045
22.81035,52106
22.81970,54300
22.82903,50569
22.83837,51908
22.84772,49823
22.85705,48355
22.86640,45651
22.87573,45299
22.88507,47913
22.89442,47382
22.90375,46194
22.91308,48152
22.92243,50804
22.93177,50509
22.94110,51253
22.95045,47679
22.95978,50221
22.96912,48165
22.97847,47769
22.98780,43709
22.99713,42721
23.00648,41868
23.01582,40909
23.02515,39587
23.03450,39769
23.04383,40091
23.05318,41828
23.06252,42269
23.07185,42665
23.08120,44915
23.09053,43990
23.09987,40296
23.10922,38379
23.11855,39066
23.12788,39264
23.13723,39366
23.14657,40051
23.15590,39987
23.16525,39751
23.17458,39031
23.18392,39552
23.19327,40104
23.20260,40605
23.21193,39700
23.22128,38729
23.23062,39835
23.23997,42177
23.24930,47429
23.25863,53466
23.26798,55198
23.27732,53975
23.28665,50449
23.29600,45052
23.30533,42640
23.31467,42193
23.32402,46532
23.33335,53422
23.34268,59818
23.35203,59742
23.36137,53408
23.37070,43873
23.38005,41259
23.38938,41871
23.39872,42519
23.40807,43896
23.41740,42184
23.42675,41561
23.43608,39561
23.44542,41102
23.45477,40824
23.46410,42559
23.47343,42752
23.48278,41378
23.49212,41815
23.50145,39331
23.51080,38470
23.52013,38575
23.52947,40949
23.53882,41767
23.54815,39511
23.55748,37992
23.56683,38795
23.57617,38632
23.58550,37827
23.59485,41083
23.60418,41025
23.61353,39264
23.62287,37588
23.63220,38074
23.64155,37060
23.65088,36001
23.66022,36214
23.66957,37112
23.67890,41316
23.68823,46793
23.69758,48018
23.70692,48804
23.71625,48004
23.72560,49850
23.73493,50646
23.74427,51929
23.75362,48060
23.76295,42116
23.77228,39409
23.78163,38783
23.79097,39192
23.80032,37990
23.80965,37480
23.81898,38312
23.82833,37424
23.83767,36331
23.84700,36543
23.85635,35726
23.86568,37297
23.87502,36589
23.88437,36500
23.89370,37766
23.90303,37777
23.91238,39269
23.92172,38365
23.93105,39133
23.94040,37566
23.94973,38707
23.95908,38613
23.96842,37634
23.97775,37651
23.98710,37094
23.99643,36678
24.00577,37233
24.01512,38905
24.02445,40135
24.03378,36787
24.04313,37619
24.05247,36913
24.06180,37361
24.07115,36030
24.08048,37738
24.08982,38583
24.09917,37871
24.10850,37164
24.11783,38812
24.12718,35556
24.13652,38075
24.14587,35703
24.15520,37260
24.16453,35148
24.17388,36946
24.18322,35807
24.19255,35888
24.20190,34879
24.21123,36215
24.22057,37781
24.22992,36050
24.23925,46173
24.24858,36872
24.25793,36083
24.26727,37164
24.27660,37470
24.28595,36790
24.29528,37308
24.30462,37869
24.31397,40851
24.32330,43661
24.33265,47353
24.34198,45414
24.35132,42757
24.36067,38440
24.37000,38510
24.37933,39603
24.38868,42806
24.39802,43626
24.40735,40727
24.41670,43518
24.42603,43114
24.43537,40366
24.44472,40641
24.45405,38470
24.46338,38648
24.47273,38423
24.48207,37517
24.49140,38266
24.50075,39614
24.51008,38294
24.51943,38848
24.52877,39838
24.53810,41201
24.54745,39331
24.55678,40256
24.56612,43365
24.57547,40463
24.58480,39996
24.59413,39031
24.60348,41631
24.61282,39671
24.62215,43839
24.63150,44337
24.64083,42292
24.65017,41416
24.65952,42367
24.66885,40920
24.67820,42608
24.68753,42785
24.69687,40755
24.70622,41160
24.71555,43514
24.72488,41931
24.73423,43166
24.74357,40102
24.75290,40278
24.76225,40673
24.77158,39919
24.78092,39567
24.79027,39902
24.79960,40701
24.80893,41231
24.81828,40889
24.82762,41745
24.83695,41416
24.84630,41603
24.85563,41757
24.86498,42590
24.87432,43278
24.88365,42723
24.89300,43257
24.90233,44707
24.91167,45075
24.92102,42985
24.93035,45516
24.93968,44173
24.94903,43491
24.95837,47638
24.96770,47212
24.97705,47599
24.98638,46014
24.99572,44852
25.00507,46335
25.01440,45137
25.02373,42857
25.03308,42231
25.04242,42536
25.05177,41564
25.06110,40659
25.07043,43056
25.07978,42346
25.08912,44160
25.09845,42871
25.10780,42104
25.11713,43340
25.12647,43500
25.13582,44425
25.14515,46366
25.15448,47951
25.16383,50131
25.17317,47111
25.18250,47756
25.19185,44848
25.20118,43394
25.21052,46123
25.21987,44389
25.22920,44036
25.23855,44198
25.24788,44149
25.25722,45032
25.26657,44998
25.27590,44604
25.28523,42821
25.29458,44202
25.30392,45404
25.31325,47501
25.32260,59264
25.33193,82478
25.34127,96202
25.35062,85104
25.35995,68380
25.36928,59279
25.37863,56690
25.38797,55170
25.39730,52021
25.40665,53417
25.41598,52283
25.42533,51647
25.43467,54285
25.44400,55179
25.45335,55370
25.46268,55194
25.47202,56484
25.48137,60886
25.49070,66099
25.50003,66183
25.50938,66393
25.51872,66546
25.52805,63608
25.53740,62402
25.54673,59912
25.55607,61180
25.56542,58241
25.57475,59943
25.58410,58687
25.59343,54585
25.60277,57030
25.61212,55357
25.62145,53673
25.63078,55075
25.64013,53214
25.64947,56582
25.65880,58915
25.66815,61015
25.67748,58073
25.68682,56355
25.69617,53033
25.70550,50280
25.71483,52091
25.72418,50355
25.73352,52412
25.74285,53521
25.75220,56013
25.76153,55447
25.77088,55463
25.78022,55664
25.78955,54930
25.79890,53947
25.80823,56070
25.81757,56268
25.82692,54858
25.83625,56853
25.84558,57744
25.85493,57024
25.86427,56530
25.87360,54440
25.88295,54145
25.89228,52727
25.90162,55347
25.91097,53273
25.92030,53156
25.92963,53890
25.93898,53787
25.94832,56841
25.95767,57505
25.96700,55565
25.97633,57068
25.98568,54713
25.99502,51331
26.00435,53958
26.01370,55474
26.02303,54063
26.03237,56974
26.04172,54754
26.05105,57531
26.06038,56987
26.06973,58372
26.07907,56194
26.08840,58298
26.09775,56111
26.10708,52480
26.11642,54817
26.12577,55816
26.13510,57982
26.14445,59905
26.15378,60121
26.16312,58552
26.17247,59192
26.18180,56404
26.19113,56914
26.20048,54345
26.20982,55164
26.21915,54179
26.22850,53370
26.23783,55526
26.24717,53567
26.25652,53808
26.26585,52574
26.27518,52032
26.28453,53940
26.29387,53979
26.30322,53030
26.31255,53566
26.32188,57542
26.33123,57697
26.34057,58084
26.34990,57237
26.35925,58967
26.36858,56377
26.37792,57053
26.38727,55650
26.39660,56011
26.40593,54733
26.41528,53905
26.42462,57046
26.43395,57835
26.44330,55272
26.45263,56842
26.46197,58505
26.47132,58386
26.48065,60130
26.49000,58626
26.49933,60480
26.50867,58506
26.51802,58581
26.52735,60959
26.53668,58916
26.54603,64770
26.55537,63439
26.56470,58547
26.57405,59839
26.58338,61789
26.59272,60233
26.60207,60379
26.61140,60977
26.62073,61345
26.63008,60216
26.63942,58826
26.64875,60913
26.65810,57682
26.66743,57635
26.67678,59721
26.68612,60767
26.69545,60039
26.70480,55697
26.71413,60341
26.72347,59480
26.73282,58113
26.74215,59452
26.75148,59106
26.76083,61519
26.77017,59667
26.77950,59729
26.78885,62280
26.79818,63219
26.80752,63568
26.81687,61912
26.82620,63290
26.83553,62422
26.84488,67395
26.85422,67756
26.86357,68803
26.87290,68283
26.88223,69404
26.89158,68593
26.90092,64185
26.91025,63110
26.91960,63820
26.92893,64582
26.93827,62275
26.94762,63378
26.95695,61743
26.96628,61358
26.97563,61559
26.98497,63709
26.99430,64772
27.00365,66463
27.01298,66223
27.02232,66077
27.03167,67750
27.04100,65053
27.05035,64345
27.05968,62867
27.06902,62899
27.07837,64628
27.08770,65487
27.09703,66842
27.10638,63420
27.11572,62787
27.12505,64426
27.13440,67242
27.14373,67231
27.15307,67499
27.16242,67955
27.17175,67781
27.18108,65656
27.19043,67073
27.19977,64956
27.20910,67651
27.21845,65551
27.22778,66230
27.23713,67561
27.24647,67921
27.25580,71105
27.26515,71459
27.27448,78072
27.28382,74260
27.29317,70655
27.30250,69003
27.31183,68225
27.32118,66273
27.33052,67072
27.33985,68834
27.34920,65347
27.35853,66523
27.36787,67645
27.37722,69211
27.38655,67782
27.39590,69280
27.40523,68058
27.41457,68907
27.42392,69732
27.43325,74658
27.44258,72054
27.45193,74468
27.46127,73486
27.47060,75705
27.47995,72604
27.48928,72873
27.49862,72501
27.50797,74074
27.51730,74185
27.52663,72370
27.53598,73246
27.54532,74735
27.55465,74742
27.56400,76165
27.57333,72757
27.58268,70564
27.59202,70744
27.60135,72262
27.61070,72334
27.62003,71189
27.62937,70722
27.63872,73001
27.64805,73316
27.65738,72318
27.66673,78611
27.67607,89443
27.68540,103411
27.69475,101044
27.70408,91166
27.71342,83333
27.72277,83580
27.73210,80178
27.74143,77434
27.75078,78262
27.76012,80378
27.76947,78529
27.77880,78050
27.78813,80701
27.79748,79842
27.80682,78764
27.81615,79218
27.82550,76542
27.83483,77357
27.84417,79307
27.85352,80493
27.86285,78642
27.87218,78939
27.88153,78884
27.89087,81491
27.90020,79066
27.90955,79986
27.91888,77306
27.92822,79911
27.93757,80036
27.94690,78689
27.95625,81299
27.96558,76254
27.97492,78649
27.98427,82863
27.99360,80047
28.00293,77688
28.01228,78689
28.02162,81897
28.03095,77135
28.04030,79522
28.04963,80374
28.05897,79341
28.06832,79315
28.07765,76457
28.08698,79156
28.09633,82815
28.10567,82463
28.11502,83362
28.12435,88206
28.13368,88463
28.14303,91298
28.15237,87796
28.16170,86556
28.17105,82108
28.18038,82250
28.18972,82383
28.19907,81716
28.20840,85669
28.21773,82782
28.22708,86069
28.23642,87555
28.24575,85645
28.25510,84476
28.26443,85053
28.27377,86251
28.28312,86555
28.29245,85351
28.30180,86010
28.31113,86292
28.32047,85300
28.32982,86333
28.33915,86882
28.34848,87558
28.35783,87405
28.36717,89056
28.37650,88291
28.38585,85118
28.39518,88113
28.40452,88461
28.41387,85111
28.42320,87976
28.43253,92210
28.44188,92101
28.45122,91786
28.46055,90488
28.46990,91255
28.47923,88887
28.48858,91822
28.49792,92219
28.50725,92189
28.51660,92510
28.52593,93157
28.53527,92544
28.54462,92836
28.55395,96040
28.56328,98635
28.57263,96430
28.58197,96645
28.59130,96180
28.60065,100497
28.60998,99881
28.61932,104509
28.62867,101732
28.63800,102736
28.64733,101742
28.65668,105449
28.66602,113389
28.67537,137388
28.68470,171027
28.69403,186293
28.70338,166720
28.71272,142009
28.72205,118519
28.73140,111265
28.74073,109055
28.75007,107044
28.75942,103781
28.76875,105532
28.77808,105465
28.78743,107898
28.79677,104113
28.80610,103623
28.81545,102666
28.82478,102710
28.83412,103065
28.84347,106004
28.85280,105527
28.86215,104477
28.87148,107656
28.88082,104499
28.89017,106505
28.89950,105903
28.90883,107047
28.91818,105664
28.92752,104306
28.93685,109537
28.94620,105741
28.95553,104337
28.96487,107582
28.97422,109248
28.98355,105604
28.99288,103754
29.00223,103961
29.01157,107968
29.02092,108399
29.03025,109696
29.03958,110751
29.04893,109482
29.05827,111641
29.06760,109949
29.07695,110903
29.08628,110667
29.09562,106411
29.10497,106861
29.11430,107168
29.12363,107049
29.13298,108145
29.14232,107461
29.15165,109052
29.16100,108490
29.17033,107846
29.17967,109133
29.18902,105249
29.19835,108156
29.20770,115653
29.21703,116272
29.22637,116433
29.23572,113493
29.24505,112948
29.25438,109297
29.26373,109832
29.27307,112959
29.28240,112823
29.29175,109967
29.30108,113972
29.31042,113340
29.31977,107751
29.32910,110244
29.33843,110527
29.34778,110673
29.35712,111637
29.36645,112028
29.37580,111394
29.38513,111885
29.39448,111672
29.40382,112414
29.41315,113486
29.42250,115132
29.43183,115505
29.44117,113365
29.45052,116410
29.45985,120056
29.46918,124322
29.47853,129644
29.48787,127401
29.49720,124467
29.50655,123124
29.51588,117976
29.52522,115541
29.53457,113046
29.54390,111096
29.55323,112008
29.56258,113910
29.57192,114722
29.58127,113293
29.59060,115047
29.59993,112595
29.60928,113770
29.61862,114918
29.62795,115307
29.63730,111744
29.64663,115611
29.65597,113377
29.66532,115647
29.67465,114388
29.68398,114959
29.69333,114125
29.70267,112515
29.71200,114382
29.72135,116503
29.73068,117222
29.74003,119964
29.74937,121172
29.75870,117353
29.76805,117136
29.77738,112562
29.78672,114421
29.79607,111028
29.80540,112403
29.81473,111044
29.82408,110837
29.83342,111237
29.84275,111406
29.85210,111635
29.86143,110143
29.87077,110574
29.88012,111284
29.88945,112141
29.89878,109737
29.90813,111897
29.91747,114503
29.92682,112274
29.93615,112783
29.94548,114371
29.95483,114538
29.96417,115813
29.97350,113462
29.98285,116358
29.99218,119338
30.00152,122968
30.01087,121639
30.02020,118810
30.02953,119082
30.03888,115731
30.04822,115797
30.05755,117777
30.06690,116247
30.07623,116853
30.08557,115502
30.09492,115484
30.10425,113822
30.11360,117936
30.12293,115150
30.13227,115406
30.14162,113867
30.15095,116940
30.16028,118395
30.16963,117327
30.17897,115164
30.18830,115884
30.19765,116696
30.20698,112818
30.21632,117619
30.22567,117921
30.23500,115495
30.24433,113009
30.25368,113744
30.26302,113130
30.27235,118457
30.28170,118706
30.29103,119456
30.30038,119555
30.30972,119526
30.31905,116684
30.32840,115205
30.33773,118111
30.34707,122313
30.35642,124967
30.36575,124429
30.37508,128662
30.38443,128473
30.39377,126276
30.40310,130049
30.41245,130251
30.42178,129265
30.43112,126741
30.44047,123938
30.44980,123490
30.45913,119384
30.46848,120409
30.47782,123948
30.48717,120269
30.49650,120372
30.50583,120834
30.51518,120117
30.52452,120208
30.53385,120640
30.54320,117985
30.55253,119226
30.56187,119283
30.57122,123480
30.58055,123358
30.58988,125873
30.59923,124510
30.60857,128435
30.61790,130111
30.62725,132834
30.63658,135312
30.64592,135071
30.65527,136727
30.66460,137201
30.67395,136730
30.68328,137586
30.69262,135095
30.70197,134063
30.71130,129607
30.72063,129946
30.72998,127638
30.73932,123153
30.74865,122373
30.75800,121990
30.76733,121403
30.77667,124735
30.78602,126916
30.79535,124754
30.80468,123714
30.81403,126325
30.82337,129814
30.83272,130814
30.84205,129482
30.85138,133623
30.86073,130587
30.87007,133464
30.87940,137287
30.88875,133662
30.89808,139043
30.90742,135774
30.91677,134842
30.92610,132879
30.93543,138814
30.94478,136499
30.95412,135462
30.96345,133020
30.97280,136435
30.98213,130176
30.99147,132541
31.00082,132597
31.01015,128474
31.01950,125604
31.02883,129652
31.03817,133451
31.04752,131320
31.05685,128172
31.06618,128484
31.07553,129978
31.08487,126710
31.09420,127382
31.10355,126749
31.11288,125469
31.12222,125300
31.13157,124988
31.14090,125912
31.15023,125853
31.15958,123698
31.16892,128514
31.17825,129432
31.18760,127829
31.19693,127463
31.20628,129323
31.21562,128818
31.22495,128296
31.23430,131305
31.24363,134321
31.25297,130288
31.26232,134184
31.27165,132107
31.28098,135933
31.29033,133714
31.29967,132253
31.30900,130756
31.31835,130529
31.32768,130398
31.33702,131756
31.34637,130746
31.35570,129343
31.36503,130226
