D:\数据\20211202\ZS1E-Z-000071.D Thu Dec 02 16:16:46 2021
Start of data points
0.09755,33028
0.10688,35257
0.11622,33634
0.12557,36333
0.13490,33730
0.14423,34383
0.15358,34920
0.16292,36034
0.17225,35335
0.18160,34969
0.19093,35268
0.20027,34777
0.20962,33529
0.21895,33282
0.22830,32247
0.23763,32615
0.24697,32272
0.25632,31714
0.26565,32281
0.27498,31412
0.28433,33552
0.29367,30750
0.30300,32064
0.31235,31752
0.32168,31466
0.33102,31703
0.34037,31165
0.34970,32075
0.35903,29802
0.36838,32161
0.37772,31176
0.38705,31853
0.39640,30049
0.40573,31207
0.41508,31507
0.42442,30279
0.43375,30692
0.44310,28432
0.45243,22553
0.46177,19726
0.47112,13296
0.48045,9278
0.48978,8720
0.49913,8632
0.50847,7991
0.51780,8811
0.52715,8480
0.53648,8876
0.54582,7430
0.55517,7889
0.56450,7550
0.57383,8129
0.58318,7190
0.59252,6925
0.60187,8022
0.61120,7313
0.62053,7701
0.62988,7687
0.63922,6877
0.64855,8007
0.65790,7341
0.66723,6989
0.67657,7517
0.68592,7217
0.69525,6491
0.70458,6553
0.71393,6844
0.72327,7434
0.73260,7159
0.74195,6336
0.75128,7158
0.76063,7613
0.76997,6793
0.77930,7031
0.78865,6881
0.79798,7332
0.80732,7172
0.81667,7310
0.82600,7023
0.83533,7248
0.84468,7092
0.85402,7537
0.86335,6350
0.87270,7181
0.88203,6635
0.89137,6716
0.90072,7195
0.91005,6719
0.91938,6404
0.92873,6565
0.93807,6536
0.94742,5949
0.95675,6825
0.96608,6550
0.97543,6526
0.98477,6627
0.99410,7141
1.00345,7446
1.01278,6995
1.02212,6980
1.03147,6996
1.04080,5925
1.05013,6146
1.05948,6171
1.06882,5936
1.07815,6956
1.08750,6643
1.09683,5991
1.10617,5916
1.11552,6178
1.12485,6490
1.13420,6003
1.14353,6569
1.15287,6761
1.16222,6398
1.17155,5963
1.18088,6609
1.19023,6182
1.19957,6659
1.20890,6535
1.21825,5759
1.22758,6125
1.23692,6615
1.24627,6336
1.25560,6780
1.26493,6129
1.27428,6220
1.28362,6366
1.29295,6810
1.30230,6468
1.31163,5910
1.32098,6539
1.33032,5775
1.33965,5978
1.34900,6637
1.35833,6325
1.36767,5741
1.37702,6220
1.38635,6819
1.39568,6974
1.40503,6030
1.41437,6551
1.42370,6558
1.43305,6155
1.44238,5694
1.45172,6042
1.46107,6268
1.47040,6603
1.47975,6362
1.48908,6507
1.49842,6279
1.50777,6145
1.51710,6073
1.52643,5749
1.53578,6585
1.54512,6307
1.55445,5872
1.56380,5341
1.57313,6078
1.58247,5697
1.59182,6032
1.60115,8380
1.61048,14540
1.61983,21091
1.62917,26990
1.63850,36717
1.64785,61251
1.65718,86415
1.66653,103704
1.67587,103471
1.68520,86540
1.69455,64199
1.70388,50620
1.71322,33705
1.72257,26996
1.73190,27299
1.74123,30137
1.75058,33337
1.75992,36460
1.76925,44272
1.77860,47757
1.78793,48060
1.79727,48123
1.80662,46005
1.81595,45499
1.82528,45522
1.83463,43838
1.84397,42759
1.85332,42533
1.86265,45342
1.87198,60437
1.88133,109463
1.89067,188453
1.90000,247374
1.90935,258157
1.91868,296517
1.92802,513104
1.93737,1099977
1.94670,2021712
1.95603,2611076
1.96538,2422730
1.97472,1846548
1.98405,1306565
1.99340,952923
2.00273,781023
2.01207,756248
2.02142,771432
2.03075,697436
2.04010,533885
2.04943,377037
2.05877,282458
2.06812,212031
2.07745,187303
2.08678,326164
2.09613,570902
2.10547,471277
2.11480,273661
2.12415,194170
2.13348,261194
2.14282,345905
2.15217,296287
2.16150,216657
2.17083,168243
2.18018,156334
2.18952,211090
2.19885,222151
2.20820,171407
2.21753,128690
2.22688,148403
2.23622,221748
2.24555,406651
2.25490,1173149
2.26423,2539651
2.27357,2605734
2.28292,1835126
2.29225,1118135
2.30158,778295
2.31093,1514952
2.32027,3201644
2.32960,3124868
2.33895,1710911
2.34828,779810
2.35762,382996
2.36697,245137
2.37630,221035
2.38563,226123
2.39498,216525
2.40432,184809
2.41367,165174
2.42300,140404
2.43233,125566
2.44168,110538
2.45102,101734
2.46035,126880
2.46970,181122
2.47903,209674
2.48837,175128
2.49772,130901
2.50705,106883
2.51638,94625
2.52573,85776
2.53507,78429
2.54440,82937
2.55375,122309
2.56308,405088
2.57243,885633
2.58177,797658
2.59110,568247
2.60045,390508
2.60978,280633
2.61912,249031
2.62847,236132
2.63780,202443
2.64713,182226
2.65648,167337
2.66582,142557
2.67515,113302
2.68450,98361
2.69383,84158
2.70317,76712
2.71252,91129
2.72185,139496
2.73118,193251
2.74053,214899
2.74987,243263
2.75922,284272
2.76855,358547
2.77788,484660
2.78723,624981
2.79657,684312
2.80590,531305
2.81525,363134
2.82458,348962
2.83392,291998
2.84327,228798
2.85260,207811
2.86193,231104
2.87128,304184
2.88062,296078
2.88995,221590
2.89930,167605
2.90863,135353
2.91797,126675
2.92732,115366
2.93665,101393
2.94600,89588
2.95533,81094
2.96467,79015
2.97402,74610
2.98335,75104
2.99268,72767
3.00203,81434
3.01137,88147
3.02070,86374
3.03005,85087
3.03938,112712
3.04872,151853
3.05807,162731
3.06740,175562
3.07673,187890
3.08608,170132
3.09542,123333
3.10475,90135
3.11410,76389
3.12343,72052
3.13278,70855
3.14212,71864
3.15145,78729
3.16080,90741
3.17013,98567
3.17947,99074
3.18882,91224
3.19815,82013
3.20748,77981
3.21683,77060
3.22617,73032
3.23550,68919
3.24485,63487
3.25418,63828
3.26352,67318
3.27287,63305
3.28220,60498
3.29155,65634
3.30088,79156
3.31022,86895
3.31957,76904
3.32890,67854
3.33823,66317
3.34758,68072
3.35692,69338
3.36625,69214
3.37560,62352
3.38493,57710
3.39427,54931
3.40362,58498
3.41295,67696
3.42228,77414
3.43163,78435
3.44097,88097
3.45030,110882
3.45965,115344
3.46898,96604
3.47833,84636
3.48767,81379
3.49700,80279
3.50635,75495
3.51568,67691
3.52502,63263
3.53437,63953
3.54370,74411
3.55303,147295
3.56238,364112
3.57172,584999
3.58105,550968
3.59040,345266
3.59973,190652
3.60907,244075
3.61842,234771
3.62775,191903
3.63708,150441
3.64643,123307
3.65577,106064
3.66512,105711
3.67445,115513
3.68378,121826
3.69313,105921
3.70247,85485
3.71180,76343
3.72115,74329
3.73048,77080
3.73982,89454
3.74917,106855
3.75850,104404
3.76783,85817
3.77718,69242
3.78652,63224
3.79585,75711
3.80520,174546
3.81453,457411
3.82387,708444
3.83322,611451
3.84255,339602
3.85190,164771
3.86123,97817
3.87057,79486
3.87992,71784
3.88925,73207
3.89858,78719
3.90793,87289
3.91727,88132
3.92660,92587
3.93595,105682
3.94528,132884
3.95462,187125
3.96397,199114
3.97330,177861
3.98263,153814
3.99198,140595
4.00132,106366
4.01065,82000
4.02000,84377
4.02933,84948
4.03868,89033
4.04802,98969
4.05735,98251
4.06670,103570
4.07603,137512
4.08537,165702
4.09472,173012
4.10405,168469
4.11338,147346
4.12273,115041
4.13207,91543
4.14140,79967
4.15075,74983
4.16008,75988
4.16942,69502
4.17877,61653
4.18810,61037
4.19745,60891
4.20678,67089
4.21612,72090
4.22547,71175
4.23480,66395
4.24413,62725
4.25348,60851
4.26282,61446
4.27215,91629
4.28150,105829
4.29083,105790
4.30017,88934
4.30952,80957
4.31885,80281
4.32818,88045
4.33753,98168
4.34687,98537
4.35620,85966
4.36555,72794
4.37488,65207
4.38423,62469
4.39357,66043
4.40290,63228
4.41225,57570
4.42158,55133
4.43092,52715
4.44027,51113
4.44960,51422
4.45893,53443
4.46828,58351
4.47762,64618
4.48695,71616
4.49630,69790
4.50563,65315
4.51497,62694
4.52432,65674
4.53365,69449
4.54298,75229
4.55233,76106
4.56167,75976
4.57102,73785
4.58035,72880
4.58968,69767
4.59903,63461
4.60837,59093
4.61770,55693
4.62705,56197
4.63638,58520
4.64572,73124
4.65507,90664
4.66440,89480
4.67373,80225
4.68308,70312
4.69242,66987
4.70175,64605
4.71110,61978
4.72043,59795
4.72977,64671
4.73912,85742
4.74845,90131
4.75780,84271
4.76713,77068
4.77647,69867
4.78582,66790
4.79515,66516
4.80448,67367
4.81383,66272
4.82317,66908
4.83250,68013
4.84185,68966
4.85118,72813
4.86052,91139
4.86987,143432
4.87920,200214
4.88853,194982
4.89788,144125
4.90722,98617
4.91657,80597
4.92590,67443
4.93523,65264
4.94458,66424
4.95392,63313
4.96325,60825
4.97260,56786
4.98193,55766
4.99127,57392
5.00062,62548
5.00995,71236
5.01928,81342
5.02863,95964
5.03797,92275
5.04730,81497
5.05665,73153
5.06598,70555
5.07532,73501
5.08467,78215
5.09400,75217
5.10335,72265
5.11268,65059
5.12202,62993
5.13137,63676
5.14070,71556
5.15003,79401
5.15938,81134
5.16872,74718
5.17805,68984
5.18740,72145
5.19673,78645
5.20607,80147
5.21542,73689
5.22475,65231
5.23408,65639
5.24343,68785
5.25277,67681
5.26210,76376
5.27145,154367
5.28078,396420
5.29013,713745
5.29947,764035
5.30880,492304
5.31815,250335
5.32748,149550
5.33682,112265
5.34617,90060
5.35550,76318
5.36483,70643
5.37418,66792
5.38352,75223
5.39285,85564
5.40220,89531
5.41153,84849
5.42087,74968
5.43022,67619
5.43955,59503
5.44888,57643
5.45823,57434
5.46757,53350
5.47692,56584
5.48625,56711
5.49558,58024
5.50493,65767
5.51427,71006
5.52360,76312
5.53295,88177
5.54228,89395
5.55162,84912
5.56097,83949
5.57030,86108
5.57963,86190
5.58898,84861
5.59832,73887
5.60765,64899
5.61700,61256
5.62633,56570
5.63567,57349
5.64502,57785
5.65435,58574
5.66370,66182
5.67303,70918
5.68237,81024
5.69172,85863
5.70105,82521
5.71038,87803
5.71973,88475
5.72907,80444
5.73840,78112
5.74775,101554
5.75708,146506
5.76642,174370
5.77577,152060
5.78510,101416
5.79443,73596
5.80378,64896
5.81312,62951
5.82245,66975
5.83180,78220
5.84113,80435
5.85048,72556
5.85982,64344
5.86915,67885
5.87850,64477
5.88783,59137
5.89717,57936
5.90652,82066
5.91585,151516
5.92518,254665
5.93453,283597
5.94387,263705
5.95320,248343
5.96255,197159
5.97188,133526
5.98122,92191
5.99057,72834
5.99990,63600
6.00925,56983
6.01858,53249
6.02792,46918
6.03727,40497
6.04660,40579
6.05593,39305
6.06528,42323
6.07462,43901
6.08395,38133
6.09330,32491
6.10263,31091
6.11197,31905
6.12132,37131
6.13065,44395
6.13998,47024
6.14933,40657
6.15867,35153
6.16800,34519
6.17735,42871
6.18668,49129
6.19603,44249
6.20537,33503
6.21470,32403
6.22405,35960
6.23338,42007
6.24272,45190
6.25207,42232
6.26140,37905
6.27073,43084
6.28008,55293
6.28942,55270
6.29875,43427
6.30810,36124
6.31743,31082
6.32677,29208
6.33612,31050
6.34545,32223
6.35478,33340
6.36413,32938
6.37347,36747
6.38282,49188
6.39215,113382
6.40148,431408
6.41083,1189784
6.42017,1674386
6.42950,1262819
6.43885,560174
6.44818,189773
6.45752,76777
6.46687,57609
6.47620,50564
6.48553,44909
6.49488,39550
6.50422,39496
6.51355,39534
6.52290,37804
6.53223,39240
6.54157,36045
6.55092,33560
6.56025,34106
6.56960,33470
6.57893,37143
6.58827,40963
6.59762,43330
6.60695,46915
6.61628,46408
6.62563,44503
6.63497,45815
6.64430,47919
6.65365,54491
6.66298,54745
6.67232,49554
6.68167,44781
6.69100,53652
6.70033,69543
6.70968,75470
6.71902,75771
6.72837,64305
6.73770,50773
6.74703,44771
6.75638,40686
6.76572,40481
6.77505,42664
6.78440,52479
6.79373,54113
6.80307,58513
6.81242,53439
6.82175,46819
6.83108,43016
6.84043,47616
6.84977,57727
6.85910,57547
6.86845,48163
6.87778,41620
6.88712,37251
6.89647,36637
6.90580,40147
6.91515,50992
6.92448,58025
6.93382,52474
6.94317,45748
6.95250,43781
6.96183,43619
6.97118,42905
6.98052,43176
6.98985,40222
6.99920,37548
7.00853,35015
7.01787,35668
7.02722,35469
7.03655,31712
7.04588,28459
7.05523,26002
7.06457,27532
7.07390,29714
7.08325,33417
7.09258,38816
7.10193,40730
7.11127,45284
7.12060,43881
7.12995,38697
7.13928,33676
7.14862,31254
7.15797,31630
7.16730,29856
7.17663,30108
7.18598,32484
7.19532,31710
7.20465,33212
7.21400,36491
7.22333,51996
7.23267,93206
7.24202,152207
7.25135,161609
7.26068,111455
7.27003,63527
7.27937,42694
7.28872,39268
7.29805,38666
7.30738,38472
7.31673,34841
7.32607,34489
7.33540,33130
7.34475,31228
7.35408,29118
7.36342,28322
7.37277,30380
7.38210,34756
7.39143,68985
7.40078,156582
7.41012,264510
7.41945,284054
7.42880,211147
7.43813,116470
7.44747,61793
7.45682,39254
7.46615,39458
7.47550,66145
7.48483,74984
7.49417,61977
7.50352,44811
7.51285,34854
7.52218,28280
7.53153,27122
7.54087,28938
7.55020,31646
7.55955,32185
7.56888,39751
7.57822,45241
7.58757,53002
7.59690,52852
7.60623,53508
7.61558,49986
7.62492,48814
7.63427,45782
7.64360,41125
7.65293,39556
7.66228,37009
7.67162,39461
7.68095,40775
7.69030,37587
7.69963,36372
7.70897,36253
7.71832,35110
7.72765,36946
7.73698,41423
7.74633,48412
7.75567,54417
7.76500,51752
7.77435,47333
7.78368,47628
7.79302,48300
7.80237,42749
7.81170,36354
7.82105,30231
7.83038,31728
7.83972,33528
7.84907,45534
7.85840,87447
7.86773,156161
7.87708,189263
7.88642,146593
7.89575,88248
7.90510,69347
7.91443,101926
7.92377,139915
7.93312,136837
7.94245,152451
7.95178,184295
7.96113,167826
7.97047,131440
7.97980,120163
7.98915,114981
7.99848,94836
8.00783,67442
8.01717,54370
8.02650,49809
8.03585,58151
8.04518,69195
8.05452,69529
8.06387,55393
8.07320,43405
8.08253,55311
8.09188,99963
8.10122,139441
8.11055,125986
8.11990,80705
8.12923,51833
8.13857,39956
8.14792,35697
8.15725,33572
8.16658,33595
8.17593,35041
8.18527,34131
8.19462,31970
8.20395,32977
8.21328,35258
8.22263,40910
8.23197,45247
8.24130,47530
8.25065,48761
8.25998,44093
8.26932,41747
8.27867,37437
8.28800,34698
8.29733,32490
8.30668,34629
8.31602,35637
8.32535,36996
8.33470,38078
8.34403,35774
8.35338,33313
8.36272,32081
8.37205,33920
8.38140,49007
8.39073,54788
8.40007,54348
8.40942,51838
8.41875,51642
8.42808,52211
8.43743,47274
8.44677,44641
8.45610,41589
8.46545,41138
8.47478,41766
8.48412,39173
8.49347,39714
8.50280,36628
8.51213,35899
8.52148,33611
8.53082,34000
8.54017,35670
8.54950,39505
8.55883,46178
8.56818,53378
8.57752,51283
8.58685,48496
8.59620,48128
8.60553,49097
8.61487,47180
8.62422,43596
8.63355,40004
8.64288,36822
8.65223,36009
8.66157,37241
8.67090,37221
8.68025,37357
8.68958,37096
8.69892,36346
8.70827,37519
8.71760,35704
8.72695,33569
8.73628,36517
8.74562,51594
8.75497,63738
8.76430,68325
8.77363,53508
8.78298,45493
8.79232,50463
8.80165,64027
8.81100,80942
8.82033,84671
8.82967,66683
8.83902,46830
8.84835,40278
8.85768,40549
8.86703,42450
8.87637,44276
8.88570,43574
8.89505,40665
8.90438,43004
8.91373,41852
8.92307,42899
8.93240,44129
8.94175,46797
8.95108,38832
8.96042,37864
8.96977,43715
8.97910,50037
8.98843,46988
8.99778,47133
9.00712,50915
9.01645,49116
9.02580,44238
9.03513,42650
9.04447,41860
9.05382,46534
9.06315,51626
9.07248,60530
9.08183,67731
9.09117,70746
9.10052,65141
9.10985,56939
9.11918,50969
9.12853,52478
9.13787,59619
9.14720,58877
9.15655,51681
9.16588,43126
9.17522,40620
9.18457,39727
9.19390,39828
9.20323,40801
9.21258,56198
9.22192,97741
9.23125,152078
9.24060,163642
9.24993,131531
9.25928,91947
9.26862,71649
9.27795,60426
9.28730,61263
9.29663,58046
9.30597,54348
9.31532,56515
9.32465,73242
9.33398,97563
9.34333,94509
9.35267,89460
9.36200,147283
9.37135,289708
9.38068,360605
9.39002,297037
9.39937,186666
9.40870,109675
9.41803,80141
9.42738,70554
9.43672,63375
9.44607,57232
9.45540,49017
9.46473,40748
9.47408,37848
9.48342,39173
9.49275,44168
9.50210,52714
9.51143,52171
9.52077,50331
9.53012,50736
9.53945,55686
9.54878,65475
9.55813,90474
9.56747,127512
9.57680,149208
9.58615,138800
9.59548,117169
9.60482,100081
9.61417,86812
9.62350,77968
9.63285,74358
9.64218,69271
9.65152,64000
9.66087,59466
9.67020,52296
9.67953,47446
9.68888,44295
9.69822,42851
9.70755,40913
9.71690,66698
9.72623,286871
9.73557,1175206
9.74492,2568593
9.75425,2989611
9.76358,2032020
9.77293,899737
9.78227,370115
9.79160,212036
9.80095,162435
9.81028,144695
9.81963,155816
9.82897,168187
9.83830,170756
9.84765,171128
9.85698,158024
9.86632,121843
9.87567,102243
9.88500,116246
9.89433,139320
9.90368,150259
9.91302,205980
9.92235,344932
9.93170,382441
9.94103,253166
9.95037,132808
9.95972,78895
9.96905,75386
9.97840,126672
9.98773,238363
9.99707,301234
10.00642,234286
10.01575,140282
10.02508,86395
10.03443,65685
10.04377,59077
10.05310,63888
10.06245,67823
10.07178,83294
10.08112,88939
10.09047,85262
10.09980,79965
10.10913,112101
10.11848,321102
10.12782,815133
10.13715,1242449
10.14650,1358371
10.15583,2220663
10.16518,4269689
10.17452,5131899
10.18385,3146007
10.19320,991598
10.20253,202414
10.21187,77034
10.22122,74477
10.23055,99438
10.23988,163275
10.24923,207494
10.25857,172331
10.26790,106654
10.27725,69790
10.28658,59150
10.29592,56913
10.30527,54066
10.31460,54250
10.32393,55652
10.33328,54701
10.34262,51178
10.35197,51620
10.36130,50926
10.37063,53314
10.37998,46427
10.38932,42662
10.39865,42057
10.40800,41122
10.41733,42150
10.42667,43140
10.43602,46966
10.44535,45697
10.45468,50502
10.46403,57402
10.47337,65499
10.48270,62508
10.49205,50869
10.50138,44594
10.51072,40297
10.52007,41599
10.52940,43028
10.53875,43046
10.54808,46303
10.55742,45332
10.56677,45934
10.57610,42563
10.58543,45990
10.59478,53545
10.60412,56286
10.61345,50037
10.62280,47391
10.63213,46556
10.64147,50274
10.65082,43809
10.66015,42064
10.66948,49258
10.67883,50688
10.68817,55197
10.69750,53144
10.70685,49045
10.71618,53093
10.72553,59228
10.73487,57445
10.74420,60852
10.75355,93977
10.76288,164232
10.77222,196263
10.78157,155804
10.79090,125478
10.80023,167168
10.80958,222817
10.81892,196492
10.82825,123037
10.83760,71988
10.84693,52603
10.85627,49092
10.86562,51596
10.87495,61247
10.88428,79307
10.89363,79782
10.90297,67181
10.91232,53019
10.92165,50005
10.93098,55132
10.94033,56304
10.94967,53638
10.95900,48222
10.96835,47222
10.97768,45419
10.98702,44432
10.99637,42487
11.00570,48660
11.01503,48058
11.02438,45210
11.03372,42731
11.04305,41498
11.05240,40504
11.06173,40392
11.07108,39429
11.08042,40302
11.08975,38285
11.09910,47687
11.10843,63799
11.11777,78894
11.12712,74778
11.13645,63887
11.14578,60775
11.15513,56824
11.16447,50558
11.17380,45268
11.18315,44786
11.19248,44805
11.20182,39307
11.21117,38253
11.22050,41098
11.22983,41613
11.23918,42178
11.24852,41474
11.25787,42910
11.26720,50030
11.27653,49779
11.28588,44237
11.29522,41690
11.30455,40796
11.31390,42251
11.32323,45887
11.33257,53229
11.34192,66777
11.35125,73942
11.36058,80699
11.36993,84940
11.37927,78517
11.38860,66295
11.39795,58189
11.40728,57462
11.41662,55491
11.42597,48986
11.43530,48133
11.44465,47480
11.45398,50235
11.46332,53539
11.47267,64919
11.48200,67670
11.49133,57685
11.50068,49336
11.51002,44742
11.51935,39827
11.52870,39394
11.53803,41082
11.54737,43601
11.55672,58968
11.56605,103218
11.57538,178655
11.58473,221312
11.59407,188282
11.60340,126531
11.61275,94950
11.62208,85160
11.63143,77212
11.64077,74301
11.65010,80493
11.65945,86878
11.66878,85751
11.67812,71882
11.68747,62414
11.69680,53599
11.70613,51064
11.71548,48683
11.72482,47736
11.73415,44857
11.74350,43580
11.75283,43324
11.76217,45688
11.77152,50068
11.78085,54868
11.79020,56826
11.79953,57079
11.80887,55602
11.81822,51616
11.82755,51939
11.83688,52377
11.84623,57187
11.85557,59137
11.86490,56611
11.87425,53545
11.88358,53359
11.89292,53201
11.90227,46535
11.91160,47430
11.92093,44552
11.93028,46890
11.93962,56988
11.94895,66144
11.95830,65742
11.96763,54109
11.97698,46995
11.98632,42910
11.99565,44253
12.00500,57609
12.01433,81872
12.02367,97630
12.03302,87765
12.04235,76528
12.05168,69488
12.06103,57628
12.07037,50426
12.07970,43647
12.08905,44966
12.09838,45718
12.10772,46919
12.11707,44276
12.12640,43816
12.13573,46463
12.14508,50755
12.15442,53184
12.16377,58982
12.17310,94169
12.18243,136870
12.19178,127190
12.20112,83430
12.21045,55693
12.21980,50338
12.22913,54749
12.23847,54030
12.24782,50519
12.25715,59641
12.26648,134010
12.27583,343470
12.28517,580456
12.29450,492422
12.30385,243014
12.31318,110358
12.32252,71006
12.33187,64835
12.34120,61260
12.35055,55279
12.35988,52238
12.36922,51468
12.37857,51116
12.38790,55196
12.39723,65932
12.40658,66503
12.41592,59851
12.42525,53811
12.43460,50922
12.44393,48172
12.45327,48711
12.46262,50883
12.47195,52414
12.48128,54323
12.49063,54021
12.49997,58886
12.50930,55048
12.51865,54478
12.52798,55370
12.53733,54574
12.54667,53326
12.55600,56024
12.56535,62678
12.57468,67860
12.58402,69867
12.59337,67701
12.60270,59587
12.61203,56039
12.62138,56828
12.63072,62645
12.64005,68254
12.64940,72990
12.65873,69706
12.66807,69254
12.67742,63577
12.68675,56852
12.69608,51324
12.70543,46934
12.71477,47300
12.72412,45764
12.73345,46089
12.74278,50795
12.75213,60414
12.76147,65197
12.77080,62759
12.78015,52846
12.78948,51475
12.79882,49622
12.80817,51787
12.81750,51543
12.82683,51699
12.83618,51304
12.84552,48957
12.85485,44321
12.86420,45326
12.87353,44832
12.88288,41935
12.89222,42909
12.90155,47162
12.91090,50125
12.92023,46891
12.92957,44026
12.93892,43848
12.94825,42670
12.95758,43522
12.96693,46779
12.97627,44054
12.98560,43661
12.99495,45835
13.00428,49023
13.01362,46870
13.02297,52203
13.03230,58848
13.04163,66614
13.05098,61538
13.06032,56378
13.06967,60943
13.07900,68893
13.08833,65276
13.09768,57705
13.10702,52422
13.11635,52034
13.12570,52461
13.13503,57291
13.14437,60244
13.15372,57219
13.16305,63941
13.17238,73175
13.18173,76131
13.19107,87428
13.20040,187989
13.20975,429971
13.21908,647554
13.22842,533880
13.23777,279242
13.24710,156375
13.25645,141582
13.26578,122600
13.27512,97544
13.28447,86740
13.29380,77636
13.30313,66130
13.31248,62889
13.32182,65983
13.33115,67872
13.34050,71948
13.34983,78191
13.35917,79306
13.36852,69686
13.37785,57371
13.38718,54226
13.39653,58850
13.40587,64354
13.41520,61444
13.42455,55179
13.43388,60445
13.44323,70181
13.45257,71052
13.46190,66359
13.47125,68886
13.48058,72623
13.48992,71485
13.49927,66496
13.50860,65454
13.51793,89420
13.52728,152614
13.53662,199936
13.54595,170928
13.55530,102031
13.56463,66215
13.57397,54725
13.58332,49718
13.59265,45302
13.60200,43803
13.61133,40993
13.62067,41585
13.63002,46285
13.63935,58175
13.64868,77366
13.65803,83219
13.66737,75179
13.67670,58946
13.68605,49905
13.69538,48864
13.70472,51099
13.71407,50357
13.72340,48545
13.73273,42877
13.74208,39887
13.75142,41487
13.76075,43389
13.77010,43471
13.77943,42165
13.78878,45844
13.79812,50689
13.80745,59470
13.81680,60644
13.82613,53327
13.83547,46164
13.84482,43583
13.85415,42387
13.86348,47313
13.87283,53037
13.88217,60119
13.89150,79973
13.90085,131167
13.91018,236674
13.91952,409561
13.92887,465500
13.93820,293068
13.94753,136329
13.95688,91013
13.96622,86453
13.97557,73512
13.98490,59647
13.99423,55569
14.00358,53384
14.01292,54833
14.02225,49184
14.03160,47973
14.04093,74419
14.05027,385358
14.05962,1965153
14.06895,5993486
14.07828,1.019882E+07
14.08763,8732291
14.09697,3492834
14.10630,666021
14.11565,120703
14.12498,66683
14.13432,59427
14.14367,60228
14.15300,66467
14.16235,69815
14.17168,76396
14.18102,98083
14.19037,184645
14.19970,304769
14.20903,300128
14.21838,171918
14.22772,81379
14.23705,50151
14.24640,45190
14.25573,41185
14.26507,44062
14.27442,48023
14.28375,45268
14.29308,42788
14.30243,40903
14.31177,43276
14.32110,50187
14.33045,63731
14.33978,71520
14.34913,71872
14.35847,60311
14.36780,49991
14.37715,45477
14.38648,42531
14.39582,40697
14.40517,40466
14.41450,40326
14.42383,40531
14.43318,38540
14.44252,42211
14.45185,45955
14.46120,52392
14.47053,58690
14.47987,58750
14.48922,55503
14.49855,49941
14.50790,43430
14.51723,38595
14.52657,38992
14.53592,41587
14.54525,44717
14.55458,48258
14.56393,53164
14.57327,53321
14.58260,49273
14.59195,47983
14.60128,46192
14.61062,43698
14.61997,43991
14.62930,48646
14.63863,60138
14.64798,83788
14.65732,117646
14.66665,121239
14.67600,93693
14.68533,64727
14.69468,53479
14.70402,46041
14.71335,42377
14.72270,42108
14.73203,42926
14.74137,43963
14.75072,47099
14.76005,46882
14.76938,51019
14.77873,61291
14.78807,82857
14.79740,116860
14.80675,141203
14.81608,126620
14.82542,84249
14.83477,56072
14.84410,46547
14.85343,42160
14.86278,44486
14.87212,55356
14.88147,68898
14.89080,64200
14.90013,56285
14.90948,48815
14.91882,47559
14.92815,48239
14.93750,47014
14.94683,47709
14.95617,50791
14.96552,50533
14.97485,53752
14.98418,52899
14.99353,49375
15.00287,47849
15.01220,51789
15.02155,52243
15.03088,49944
15.04022,44082
15.04957,44968
15.05890,50236
15.06825,49393
15.07758,49300
15.08692,45877
15.09627,43236
15.10560,41969
15.11493,44533
15.12428,49101
15.13362,54358
15.14295,56639
15.15230,51270
15.16163,48504
15.17097,45718
15.18032,46380
15.18965,53363
15.19898,65938
15.20833,90170
15.21767,112357
15.22702,116110
15.23635,95933
15.24568,72315
15.25503,59719
15.26437,53547
15.27370,49973
15.28305,50062
15.29238,48992
15.30172,47690
15.31107,48411
15.32040,47899
15.32973,49688
15.33908,56909
15.34842,58992
15.35775,56884
15.36710,61613
15.37643,66850
15.38577,64294
15.39512,54288
15.40445,47514
15.41380,46194
15.42313,47272
15.43247,52856
15.44182,53155
15.45115,49037
15.46048,46446
15.46983,43643
15.47917,47928
15.48850,53181
15.49785,58564
15.50718,58945
15.51652,67095
15.52587,78443
15.53520,79518
15.54453,73577
15.55388,59816
15.56322,45606
15.57255,43414
15.58190,43508
15.59123,44577
15.60058,45329
15.60992,46408
15.61925,48961
15.62860,52499
15.63793,60427
15.64727,58486
15.65662,59759
15.66595,57024
15.67528,60282
15.68463,60219
15.69397,66926
15.70330,82885
15.71265,92268
15.72198,83467
15.73132,62124
15.74067,51282
15.75000,58109
15.75933,69551
15.76868,77157
15.77802,68250
15.78737,58825
15.79670,56398
15.80603,84121
15.81538,207889
15.82472,486999
15.83405,818778
15.84340,881524
15.85273,623438
15.86207,333993
15.87142,166465
15.88075,104600
15.89008,96330
15.89943,99616
15.90877,98727
15.91810,87448
15.92745,72297
15.93678,62906
15.94612,54122
15.95547,51505
15.96480,50828
15.97415,57317
15.98348,74863
15.99282,101046
16.00217,117013
16.01150,101219
16.02083,74639
16.03018,58067
16.03952,54207
16.04885,54211
16.05820,55237
16.06753,56907
16.07687,56594
16.08622,53107
16.09555,53844
16.10488,54581
16.11423,59393
16.12357,60463
16.13290,63635
16.14225,60113
16.15158,55769
16.16093,53929
16.17027,53848
16.17960,52124
16.18895,54086
16.19828,56448
16.20762,64687
16.21697,73186
16.22630,80678
16.23563,83446
16.24498,81318
16.25432,69411
16.26365,62851
16.27300,65216
16.28233,94691
16.29167,186134
16.30102,327663
16.31035,370341
16.31970,248822
16.32903,122467
16.33837,69672
16.34772,51972
16.35705,46936
16.36638,45307
16.37573,44876
16.38507,40949
16.39440,43903
16.40375,45999
16.41308,48603
16.42242,49027
16.43177,49616
16.44110,48143
16.45043,51431
16.45978,59414
16.46912,61360
16.47845,59651
16.48780,58398
16.49713,57786
16.50648,56704
16.51582,58706
16.52515,60693
16.53450,58868
16.54383,53167
16.55317,53953
16.56252,51269
16.57185,49459
16.58118,50680
16.59053,52148
16.59987,50580
16.60920,50438
16.61855,54129
16.62788,60293
16.63722,64454
16.64657,68813
16.65590,66490
16.66523,57992
16.67458,54972
16.68392,55505
16.69327,67003
16.70260,79450
16.71193,77546
16.72128,66018
16.73062,55696
16.73995,61391
16.74930,101262
16.75863,143017
16.76797,125848
16.77732,83244
16.78665,55847
16.79598,49103
16.80533,52598
16.81467,60231
16.82400,65125
16.83335,68811
16.84268,75589
16.85202,78152
16.86137,71795
16.87070,62485
16.88005,57570
16.88938,54006
16.89872,54932
16.90807,60765
16.91740,71348
16.92673,76200
16.93608,73508
16.94542,68675
16.95475,71032
16.96410,81473
16.97343,82865
16.98277,80805
16.99212,68164
17.00145,62310
17.01078,57138
17.02013,57047
17.02947,76731
17.03882,108940
17.04815,119273
17.05748,91320
17.06683,66487
17.07617,59499
17.08550,58443
17.09485,55813
17.10418,56130
17.11352,53626
17.12287,51903
17.13220,56905
17.14153,62388
17.15088,63499
17.16022,56795
17.16955,50493
17.17890,50466
17.18823,52094
17.19757,54395
17.20692,49971
17.21625,46562
17.22560,47352
17.23493,47370
17.24427,48769
17.25362,50249
17.26295,54462
17.27228,56397
17.28163,62866
17.29097,66671
17.30030,68371
17.30965,63599
17.31898,64202
17.32832,67129
17.33767,68265
17.34700,58344
17.35633,51979
17.36568,55493
17.37502,77182
17.38435,150641
17.39370,231837
17.40303,228721
17.41238,148672
17.42172,96443
17.43105,76904
17.44040,65432
17.44973,64424
17.45907,67422
17.46842,65540
17.47775,66481
17.48708,78027
17.49643,227905
17.50577,923724
17.51510,2283846
17.52445,2999474
17.53378,1993923
17.54312,706047
17.55247,166756
17.56180,70120
17.57113,63527
17.58048,68987
17.58982,73835
17.59917,72698
17.60850,66333
17.61783,59442
17.62718,60334
17.63652,62720
17.64585,60965
17.65520,58980
17.66453,61587
17.67387,68092
17.68322,80993
17.69255,100313
17.70188,94878
17.71123,81570
17.72057,71407
17.72990,59684
17.73925,56092
17.74858,56724
17.75792,60622
17.76727,68107
17.77660,70980
17.78595,70708
17.79528,64549
17.80462,64109
17.81397,59186
17.82330,54515
17.83263,49631
17.84198,50732
17.85132,58591
17.86065,68344
17.87000,80393
17.87933,85767
17.88867,73282
17.89802,62932
17.90735,56681
17.91668,51268
17.92603,52190
17.93537,55168
17.94472,56711
17.95405,53953
17.96338,52858
17.97273,53087
17.98207,49096
17.99140,49158
18.00075,49771
18.01008,50897
18.01942,53238
18.02877,55492
18.03810,61595
18.04743,80606
18.05678,116267
18.06612,151993
18.07545,135993
18.08480,88284
18.09413,65919
18.10347,76003
18.11282,106521
18.12215,119922
18.13150,106181
18.14083,85494
18.15017,72466
18.15952,63773
18.16885,63261
18.17818,65816
18.18753,63715
18.19687,62275
18.20620,59333
18.21555,63577
18.22488,67814
18.23422,68327
18.24357,61893
18.25290,52674
18.26223,51597
18.27158,52771
18.28092,58461
18.29025,63699
18.29960,69247
18.30893,74041
18.31828,72848
18.32762,70969
18.33695,65639
18.34630,70084
18.35563,74060
18.36497,76473
18.37432,79889
18.38365,84203
18.39298,99413
18.40233,153231
18.41167,223533
18.42100,222497
18.43035,140884
18.43968,87035
18.44902,75351
18.45837,71465
18.46770,65603
18.47703,59090
18.48638,61470
18.49572,68624
18.50507,81892
18.51440,91032
18.52373,93162
18.53308,82794
18.54242,69939
18.55175,64559
18.56110,66643
18.57043,63234
18.57977,62705
18.58912,62609
18.59845,63987
18.60778,69619
18.61713,68895
18.62647,71101
18.63580,69147
18.64515,68284
18.65448,67464
18.66383,66506
18.67317,70715
18.68250,81847
18.69185,89655
18.70118,98593
18.71052,99393
18.71987,91429
18.72920,91868
18.73853,87363
18.74788,85052
18.75722,82241
18.76655,75643
18.77590,62424
18.78523,57373
18.79457,54265
18.80392,55769
18.81325,56558
18.82258,57914
18.83193,56883
18.84127,57449
18.85062,55227
18.85995,54572
18.86928,51106
18.87863,53647
18.88797,55085
18.89730,53003
18.90665,58369
18.91598,65101
18.92532,68023
18.93467,65435
18.94400,63420
18.95333,65963
18.96268,73763
18.97202,85677
18.98135,95482
18.99070,86586
19.00003,69538
19.00937,62349
19.01872,60416
19.02805,57281
19.03740,57895
19.04673,69048
19.05607,88861
19.06542,112163
19.07475,132820
19.08408,164785
19.09343,194425
19.10277,165391
19.11210,105886
19.12145,67931
19.13078,56615
19.14012,51664
19.14947,52320
19.15880,49881
19.16813,50879
19.17748,48446
19.18682,50124
19.19615,52706
19.20550,57144
19.21483,59049
19.22418,59206
19.23352,59992
19.24285,60215
19.25220,58732
19.26153,55768
19.27087,57651
19.28022,63375
19.28955,71217
19.29888,85437
19.30823,107409
19.31757,147375
19.32690,151335
19.33625,122612
19.34558,87928
19.35492,66099
19.36427,58568
19.37360,52979
19.38293,51923
19.39228,51790
19.40162,50732
19.41097,55156
19.42030,55994
19.42963,52889
19.43898,50719
19.44832,49603
19.45765,49067
19.46700,49394
19.47633,55283
19.48567,57004
19.49502,58416
19.50435,60386
19.51368,54904
19.52303,53436
19.53237,52544
19.54170,55469
19.55105,53549
19.56038,52028
19.56972,53111
19.57907,57889
19.58840,62713
19.59775,57779
19.60708,59121
19.61642,55135
19.62577,55764
19.63510,58977
19.64443,63699
19.65378,61742
19.66312,58614
19.67245,52882
19.68180,54759
19.69113,64338
19.70047,75799
19.70982,83722
19.71915,83152
19.72848,83421
19.73783,90887
19.74717,86848
19.75652,72310
19.76585,66288
19.77518,64266
19.78453,66427
19.79387,63156
19.80320,61286
19.81255,56538
19.82188,55894
19.83122,53329
19.84057,53835
19.84990,51456
19.85923,50342
19.86858,57629
19.87792,73176
19.88725,84412
19.89660,82638
19.90593,66463
19.91527,58752
19.92462,56067
19.93395,56050
19.94330,56515
19.95263,55028
19.96197,60480
19.97132,62541
19.98065,59442
19.98998,57463
19.99933,53732
20.00867,53449
20.01800,54326
20.02735,54879
20.03668,54528
20.04602,59615
20.05537,57870
20.06470,56237
20.07403,55682
20.08338,56309
20.09272,61002
20.10205,57949
20.11140,52729
20.12073,51166
20.13008,49535
20.13942,51902
20.14875,54509
20.15810,64424
20.16743,70402
20.17677,67080
20.18612,58814
20.19545,56107
20.20478,53318
20.21413,53352
20.22347,57196
20.23280,58701
20.24215,56916
20.25148,54224
20.26082,53497
20.27017,53699
20.27950,54251
20.28883,57018
20.29818,56355
20.30752,54061
20.31687,51441
20.32620,51465
20.33553,50743
20.34488,49881
20.35422,47335
20.36355,52663
20.37290,52258
20.38223,50681
20.39157,50652
20.40092,52502
20.41025,48996
20.41958,49429
20.42893,50434
20.43827,49871
20.44760,50660
20.45695,53817
20.46628,56071
20.47563,63984
20.48497,70788
20.49430,61785
20.50365,57247
20.51298,52747
20.52232,50073
20.53167,51468
20.54100,51955
20.55033,58700
20.55968,67850
20.56902,107339
20.57835,214953
20.58770,301296
20.59703,255209
20.60637,142279
20.61572,85328
20.62505,94607
20.63438,205748
20.64373,505775
20.65307,759648
20.66242,633756
20.67175,353060
20.68108,176689
20.69043,111185
20.69977,86291
20.70910,75837
20.71845,73095
20.72778,70844
20.73712,68457
20.74647,64900
20.75580,63811
20.76513,63383
20.77448,59368
20.78382,57535
20.79315,64265
20.80250,69067
20.81183,67528
20.82117,62925
20.83052,60531
20.83985,53859
20.84920,54042
20.85853,53889
20.86787,52667
20.87722,51698
20.88655,54154
20.89588,56077
20.90523,60413
20.91457,58920
20.92390,57679
20.93325,53963
20.94258,52773
20.95192,52148
20.96127,50597
20.97060,50821
20.97993,50684
20.98928,48485
20.99862,50418
21.00795,52936
21.01730,50915
21.02663,49394
21.03598,51638
21.04532,49366
21.05465,51340
21.06400,54509
21.07333,54449
21.08267,52085
21.09202,52730
21.10135,51502
21.11068,53651
21.12003,54483
21.12937,54594
21.13870,55484
21.14805,56327
21.15738,54883
21.16672,55434
21.17607,63216
21.18540,74126
21.19473,82942
21.20408,77599
21.21342,66181
21.22277,58629
21.23210,56775
21.24143,55340
21.25078,54909
21.26012,50011
21.26945,56479
21.27880,60885
21.28813,68968
21.29747,70736
21.30682,65737
21.31615,60735
21.32548,57254
21.33483,57170
21.34417,57067
21.35350,57201
21.36285,56740
21.37218,53293
21.38152,56329
21.39087,58050
21.40020,60484
21.40955,61212
21.41888,65100
21.42822,63083
21.43757,60423
21.44690,60333
21.45623,56839
21.46558,53063
21.47492,54415
21.48425,57288
21.49360,63057
21.50293,62824
21.51227,62328
21.52162,61366
21.53095,56299
21.54028,56449
21.54963,60154
21.55897,67369
21.56832,79606
21.57765,101220
21.58698,104671
21.59633,93164
21.60567,75195
21.61500,63231
21.62435,61299
21.63368,63392
21.64302,65552
21.65237,65475
21.66170,64492
21.67103,63177
21.68038,77144
21.68972,87813
21.69905,91481
21.70840,83900
21.71773,80376
21.72707,79098
21.73642,75780
21.74575,67055
21.75510,61167
21.76443,56765
21.77377,57065
21.78312,56345
21.79245,57630
21.80178,65011
21.81113,70821
21.82047,80567
21.82980,83665
21.83915,76910
21.84848,65043
21.85782,59530
21.86717,59657
21.87650,63752
21.88583,71628
21.89518,77581
21.90452,80156
21.91385,74570
21.92320,67721
21.93253,60236
21.94188,60222
21.95122,58321
21.96055,62155
21.96990,68664
21.97923,80269
21.98857,87935
21.99792,95806
22.00725,96000
22.01658,84938
22.02593,73891
22.03527,69687
22.04460,76716
22.05395,83131
22.06328,86652
22.07262,83839
22.08197,78799
22.09130,73786
22.10063,67178
22.10998,62997
22.11932,61980
22.12867,61452
22.13800,57413
22.14733,62039
22.15668,74489
22.16602,93139
22.17535,116002
22.18470,115883
22.19403,96585
22.20337,77717
22.21272,75672
22.22205,75640
22.23138,84006
22.24073,84399
22.25007,83303
22.25940,76847
22.26875,80564
22.27808,100145
22.28743,130189
22.29677,149098
22.30610,137849
22.31545,111158
22.32478,89712
22.33412,76262
22.34347,77505
22.35280,89461
22.36213,109864
22.37148,122703
22.38082,127674
22.39015,126340
22.39950,119545
22.40883,100186
22.41817,86334
22.42752,89384
22.43685,102623
22.44618,106296
22.45553,104075
22.46487,92083
22.47422,87552
22.48355,79216
22.49288,77685
22.50223,76066
22.51157,73432
22.52090,73903
22.53025,76278
22.53958,72845
22.54892,74859
22.55827,75251
22.56760,85189
22.57693,100515
22.58628,111449
22.59562,106643
22.60495,104140
22.61430,107712
22.62363,104933
22.63297,106887
22.64232,102635
22.65165,91163
22.66100,83683
22.67033,80758
22.67967,86250
22.68902,102469
22.69835,116196
22.70768,113933
22.71703,97887
22.72637,97418
22.73570,105508
22.74505,115085
22.75438,115635
22.76372,108431
22.77307,103336
22.78240,99760
22.79173,100735
22.80108,113304
22.81042,131647
22.81975,131784
22.82910,116786
22.83843,102671
22.84778,99623
22.85712,89111
22.86645,85114
22.87580,85403
22.88513,88290
22.89447,89415
22.90382,87187
22.91315,89184
22.92248,94445
22.93183,104302
22.94117,105399
22.95050,95139
22.95985,88490
22.96918,82906
22.97852,82271
22.98787,76141
22.99720,73167
23.00653,78700
23.01588,79897
23.02522,71366
23.03457,70717
23.04390,70789
23.05323,75972
23.06258,74883
23.07192,74812
23.08125,69610
23.09060,68951
23.09993,68396
23.10927,67344
23.11862,68299
23.12795,67349
23.13728,67281
23.14663,72160
23.15597,72153
23.16530,73547
23.17465,70265
23.18398,69045
23.19333,68065
23.20267,68156
23.21200,65222
23.22135,64060
23.23068,64719
23.24002,68941
23.24937,75780
23.25870,81774
23.26803,79537
23.27738,81713
23.28672,76984
23.29605,69945
23.30540,64789
23.31473,65384
23.32407,71798
23.33342,80677
23.34275,97952
23.35208,95665
23.36143,85903
23.37077,76459
23.38012,71496
23.38945,70375
23.39878,72521
23.40813,70097
23.41747,66757
23.42680,68138
23.43615,66814
23.44548,66841
23.45482,67933
23.46417,70428
23.47350,67520
23.48283,68062
23.49218,65644
23.50152,64455
23.51085,63864
23.52020,65873
23.52953,69107
23.53887,71111
23.54822,67961
23.55755,65056
23.56690,62284
23.57623,63410
23.58557,63931
23.59492,69263
23.60425,66626
23.61358,66686
23.62293,62191
23.63227,62266
23.64160,62660
23.65095,59584
23.66028,61007
23.66962,60574
23.67897,67422
23.68830,75290
23.69763,80375
23.70698,80436
23.71632,80431
23.72565,77864
23.73500,83189
23.74433,84841
23.75368,78568
23.76302,72356
23.77235,67255
23.78170,65362
23.79103,63509
23.80037,64328
23.80972,64068
23.81905,62866
23.82838,63142
23.83773,61313
23.84707,58484
23.85640,63109
23.86575,63112
23.87508,61745
23.88442,62337
23.89377,62826
23.90310,65992
23.91245,67611
23.92178,64470
23.93112,64593
23.94047,63748
23.94980,63731
23.95913,64154
23.96848,62387
23.97782,61538
23.98715,59407
23.99650,61257
24.00583,62752
24.01517,61950
24.02452,66001
24.03385,67541
24.04318,62583
24.05253,61637
24.06187,58305
24.07120,59332
24.08055,62245
24.08988,66256
24.09923,63258
24.10857,63328
24.11790,64171
24.12725,61157
24.13658,60856
24.14592,62508
24.15527,61592
24.16460,60697
24.17393,61029
24.18328,61661
24.19262,60654
24.20195,62538
24.21130,60834
24.22063,61889
24.22997,62613
24.23932,64585
24.24865,66672
24.25798,68982
24.26733,67154
24.27667,65881
24.28602,64972
24.29535,65467
24.30468,65202
24.31403,66156
24.32337,68900
24.33270,70387
24.34205,70671
24.35138,67891
24.36072,65270
24.37007,66845
24.37940,66804
24.38873,71186
24.39808,71421
24.40742,72849
24.41675,72045
24.42610,67532
24.43543,69244
24.44477,65741
24.45412,65407
24.46345,67093
24.47280,62996
24.48213,64913
24.49147,65374
24.50082,65978
24.51015,66417
24.51948,66091
24.52883,65835
24.53817,66283
24.54750,68228
24.55685,69913
24.56618,67309
24.57552,68421
24.58487,68459
24.59420,65100
24.60353,65791
24.61288,70268
24.62222,73112
24.63155,72986
24.64090,67528
24.65023,66607
24.65958,67434
24.66892,73408
24.67825,76263
24.68760,76320
24.69693,73577
24.70627,69834
24.71562,72528
24.72495,68626
24.73428,69818
24.74363,67377
24.75297,67739
24.76230,66723
24.77165,64768
24.78098,66577
24.79032,64493
24.79967,65110
24.80900,64857
24.81833,67631
24.82768,66994
24.83702,66760
24.84637,66271
24.85570,64720
24.86503,64255
24.87438,63383
24.88372,66471
24.89305,67007
24.90240,69605
24.91173,66715
24.92107,66479
24.93042,67587
24.93975,67676
24.94908,68826
24.95843,68377
24.96777,69310
24.97710,69823
24.98645,68585
24.99578,67757
25.00513,67743
25.01447,66757
25.02380,64719
25.03315,64926
25.04248,61314
25.05182,63412
25.06117,64320
25.07050,67851
25.07983,67505
25.08918,67124
25.09852,66767
25.10785,69096
25.11720,66471
25.12653,66601
25.13587,66232
25.14522,70921
25.15455,75230
25.16388,73756
25.17323,75902
25.18257,72047
25.19192,68154
25.20125,69508
25.21058,69009
25.21993,66667
25.22927,67728
25.23860,64189
25.24795,66744
25.25728,67279
25.26662,67587
25.27597,67436
25.28530,69025
25.29463,65465
25.30398,68088
25.31332,69607
25.32265,83283
25.33200,112109
25.34133,141385
25.35067,135897
25.36002,114122
25.36935,96063
25.37870,91492
25.38803,85592
25.39737,80525
25.40672,81083
25.41605,79649
25.42538,77746
25.43473,77407
25.44407,78778
25.45340,79073
25.46275,75824
25.47208,77497
25.48142,82766
25.49077,92772
25.50010,93872
25.50943,91634
25.51878,90147
25.52812,87931
25.53745,87673
25.54680,89958
25.55613,88576
25.56548,89990
25.57482,86465
25.58415,84362
25.59350,82027
25.60283,80943
25.61217,80170
25.62152,79864
25.63085,79161
25.64018,79675
25.64953,77565
25.65887,81317
25.66820,84675
25.67755,88787
25.68688,84642
25.69622,83482
25.70557,81422
25.71490,81474
25.72425,79845
25.73358,79396
25.74292,80362
25.75227,83348
25.76160,84118
25.77093,86620
25.78028,84574
25.78962,81992
25.79895,86060
25.80830,86714
25.81763,90041
25.82697,89737
25.83632,91076
25.84565,91823
25.85498,89004
25.86433,88654
25.87367,84972
25.88300,84927
25.89235,83037
25.90168,82939
25.91103,85579
25.92037,87231
25.92970,85455
25.93905,84818
25.94838,88551
25.95772,94086
25.96707,95965
25.97640,95695
25.98573,88146
25.99508,87891
26.00442,85972
26.01375,87175
26.02310,87643
26.03243,89880
26.04177,94861
26.05112,98895
26.06045,99272
26.06978,98007
26.07913,96783
26.08847,95898
26.09782,93674
26.10715,89832
26.11648,90571
26.12583,88628
26.13517,94661
26.14450,105841
26.15385,112844
26.16318,119029
26.17252,118257
26.18187,112699
26.19120,104545
26.20053,95873
26.20988,90584
26.21922,85420
26.22855,85460
26.23790,86726
26.24723,87918
26.25657,84360
26.26592,85458
26.27525,83445
26.28460,85328
26.29393,84953
26.30327,88511
26.31262,88667
26.32195,92698
26.33128,94437
26.34063,91679
26.34997,92828
26.35930,89627
26.36865,89961
26.37798,90928
26.38732,91197
26.39667,88678
26.40600,89702
26.41533,88049
26.42468,88718
26.43402,86196
26.44335,87329
26.45270,92472
26.46203,95419
26.47138,100952
26.48072,95426
26.49005,94979
26.49940,95934
26.50873,96010
26.51807,96454
26.52742,99514
26.53675,107046
26.54608,111535
26.55543,109316
26.56477,106125
26.57410,100838
26.58345,101981
26.59278,104902
26.60212,107910
26.61147,116051
26.62080,114620
26.63015,106875
26.63948,103912
26.64882,99037
26.65817,97780
26.66750,103496
26.67683,107251
26.68618,106000
26.69552,103162
26.70485,97936
26.71420,97459
26.72353,94853
26.73287,97704
26.74222,97869
26.75155,98605
26.76088,100147
26.77023,99898
26.77957,100140
26.78890,104253
26.79825,104824
26.80758,98811
26.81693,101593
26.82627,103108
26.83560,103131
26.84495,103307
26.85428,105614
26.86362,107681
26.87297,107088
26.88230,104923
26.89163,104959
26.90098,100165
26.91032,100154
26.91965,102314
26.92900,99167
26.93833,98112
26.94767,100694
26.95702,98388
26.96635,99757
26.97568,101577
26.98503,100066
26.99437,101866
27.00372,103434
27.01305,109029
27.02238,106155
27.03173,105255
27.04107,103059
27.05040,104854
27.05975,108398
27.06908,113375
27.07842,109578
27.08777,106501
27.09710,106068
27.10643,103933
27.11578,102577
27.12512,101644
27.13445,107731
27.14380,107821
27.15313,109066
27.16247,110006
27.17182,105168
27.18115,102895
27.19050,101593
27.19983,103740
27.20917,104297
27.21852,104280
27.22785,103557
27.23718,102273
27.24653,105685
27.25587,113597
27.26520,121215
27.27455,123126
27.28388,115661
27.29322,108360
27.30257,104741
27.31190,101980
27.32123,101856
27.33058,99912
27.33992,101546
27.34927,98883
27.35860,97371
27.36793,100594
27.37728,102865
27.38662,101561
27.39595,100528
27.40530,100733
27.41463,101388
27.42397,100843
27.43332,104019
27.44265,106910
27.45198,108446
27.46133,108597
27.47067,109521
27.48000,105234
27.48935,107575
27.49868,109552
27.50802,113620
27.51737,118597
27.52670,119622
27.53605,124168
27.54538,122604
27.55472,124241
27.56407,121435
27.57340,118856
27.58273,121543
27.59208,117520
27.60142,113714
27.61075,113514
27.62010,111222
27.62943,113995
27.63877,110826
27.64812,112883
27.65745,111809
27.66678,113551
27.67613,130972
27.68547,149364
27.69480,150311
27.70415,140551
27.71348,131687
27.72283,121872
27.73217,122831
27.74150,118205
27.75085,117073
27.76018,116962
27.76952,118302
27.77887,115172
27.78820,118170
27.79753,117715
27.80688,117412
27.81622,122350
27.82555,113385
27.83490,116980
27.84423,116544
27.85357,115131
27.86292,117537
27.87225,113002
27.88158,117321
27.89093,113663
27.90027,113806
27.90962,114748
27.91895,115330
27.92828,118734
27.93763,117990
27.94697,118110
27.95630,116116
27.96565,115364
27.97498,116995
27.98432,115622
27.99367,115301
28.00300,117637
28.01233,118266
28.02168,113604
28.03102,115831
28.04035,112793
28.04970,111383
28.05903,112939
28.06837,116399
28.07772,118840
28.08705,119161
28.09640,121477
28.10573,120247
28.11507,125217
28.12442,135539
28.13375,151210
28.14308,149704
28.15243,139359
28.16177,132254
28.17110,129445
28.18045,128892
28.18978,126269
28.19912,123774
28.20847,124389
28.21780,122171
28.22713,123542
28.23648,122004
28.24582,121414
28.25515,124553
28.26450,121088
28.27383,122937
28.28318,122481
28.29252,121854
28.30185,120950
28.31120,120477
28.32053,120448
28.32987,124610
28.33922,123646
28.34855,121002
28.35788,117958
28.36723,122777
28.37657,122804
28.38590,122369
28.39525,124477
28.40458,123058
28.41392,125556
28.42327,124368
28.43260,123733
28.44195,128878
28.45128,128206
28.46062,129828
28.46997,126049
28.47930,129751
28.48863,127635
28.49798,131268
28.50732,126476
28.51665,130405
28.52600,128129
28.53533,129958
28.54467,135331
28.55402,134263
28.56335,131421
28.57268,133636
28.58203,139396
28.59137,139378
28.60070,143981
28.61005,146907
28.61938,147791
28.62873,151593
28.63807,150548
28.64740,140011
28.65675,142692
28.66608,154628
28.67542,177137
28.68477,223186
28.69410,251408
28.70343,225454
28.71278,187243
28.72212,161357
28.73145,147919
28.74080,149605
28.75013,142548
28.75947,141353
28.76882,140904
28.77815,141695
28.78748,140263
28.79683,140274
28.80617,142893
28.81552,149121
28.82485,146461
28.83418,141549
28.84353,144654
28.85287,142939
28.86220,143620
28.87155,145713
28.88088,143596
28.89022,142794
28.89957,143347
28.90890,141370
28.91823,145436
28.92758,141474
28.93692,146843
28.94625,146561
28.95560,143069
28.96493,147504
28.97427,150178
28.98362,157133
28.99295,155316
29.00230,149139
29.01163,148968
29.02097,149772
29.03032,148887
29.03965,156279
29.04898,154223
29.05833,152638
29.06767,148236
29.07700,151983
29.08635,148958
29.09568,147977
29.10502,151335
29.11437,154500
29.12370,150756
29.13303,151315
29.14238,147084
29.15172,151639
29.16107,147945
29.17040,148564
29.17973,149264
29.18908,150125
29.19842,151835
29.20775,159288
29.21710,167092
29.22643,166781
29.23577,158265
29.24512,152389
29.25445,150551
29.26378,146592
29.27313,151546
29.28247,150265
29.29180,151244
29.30115,149812
29.31048,149042
29.31982,150317
29.32917,150796
29.33850,148902
29.34785,147726
29.35718,148038
29.36652,154300
29.37587,152652
29.38520,149190
29.39453,155107
29.40388,152834
29.41322,150777
29.42255,152667
29.43190,152891
29.44123,153743
29.45057,149514
29.45992,155950
29.46925,162780
29.47858,163290
29.48793,162999
29.49727,163204
29.50660,158274
29.51595,152627
29.52528,151942
29.53463,149907
29.54397,149398
29.55330,147610
29.56265,147903
29.57198,147278
29.58132,144437
29.59067,150945
29.60000,149933
29.60933,149188
29.61868,149844
29.62802,152507
29.63735,152422
29.64670,147125
29.65603,147899
29.66537,147131
29.67472,145061
29.68405,143780
29.69338,152473
29.70273,152418
29.71207,147999
29.72142,153710
29.73075,153626
29.74008,157703
29.74943,160602
29.75877,153126
29.76810,151867
29.77745,152937
29.78678,148369
29.79612,150241
29.80547,146448
29.81480,145556
29.82413,145826
29.83348,144642
29.84282,144298
29.85215,144066
29.86150,146639
29.87083,147377
29.88017,139881
29.88952,146054
29.89885,147713
29.90820,150534
29.91753,146339
29.92687,151838
29.93622,153717
29.94555,157510
29.95488,150202
29.96423,154872
29.97357,156489
29.98290,167351
29.99225,172165
30.00158,182417
30.01092,176764
30.02027,169077
30.02960,157042
30.03893,160835
30.04828,158302
30.05762,156762
30.06695,159164
30.07630,158055
30.08563,152997
30.09498,152518
30.10432,150407
30.11365,155342
30.12300,152929
30.13233,155789
30.14167,155189
30.15102,157721
30.16035,158460
30.16968,158573
30.17903,160038
30.18837,159110
30.19770,161045
30.20705,158946
30.21638,160238
30.22572,158343
30.23507,156197
30.24440,155919
30.25375,154443
30.26308,156719
30.27242,157520
30.28177,154297
30.29110,156468
30.30043,154276
30.30978,155607
30.31912,153895
30.32845,154347
30.33780,156037
30.34713,152699
30.35647,156577
30.36582,154399
30.37515,159172
30.38448,156631
30.39383,156615
30.40317,163052
30.41250,171966
30.42185,175471
30.43118,173618
30.44053,164447
30.44987,159472
30.45920,156040
30.46855,160096
30.47788,164257
30.48722,164473
30.49657,167853
30.50590,166299
30.51523,162325
30.52458,156962
30.53392,153636
30.54325,152983
30.55260,155552
30.56193,155426
30.57127,155775
30.58062,155235
30.58995,160568
30.59928,156885
30.60863,159369
30.61797,162288
30.62732,164408
30.63665,168799
30.64598,176513
30.65533,182613
30.66467,183708
30.67400,188079
30.68335,182987
30.69268,175792
30.70202,172854
30.71137,168067
30.72070,164229
30.73003,164759
30.73938,158241
30.74872,159998
30.75805,159264
30.76740,157785
30.77673,159166
30.78607,153052
30.79542,155863
30.80475,158577
30.81410,159250
30.82343,156538
30.83277,163452
30.84212,164447
30.85145,158589
30.86078,161624
30.87013,161300
30.87947,160763
30.88880,160144
30.89815,158383
30.90748,160716
30.91682,163656
30.92617,165406
30.93550,158957
30.94483,160472
30.95418,163520
30.96352,162206
30.97287,162552
30.98220,164863
30.99153,163996
31.00088,163678
31.01022,162747
31.01955,164930
31.02890,163652
31.03823,163955
31.04757,163062
31.05692,163900
31.06625,157590
31.07558,160944
31.08493,160835
31.09427,155380
31.10360,158208
31.11295,161564
31.12228,159509
31.13162,159104
31.14097,158777
31.15030,154470
31.15965,157391
31.16898,162327
31.17832,160179
31.18767,158915
31.19700,157908
31.20633,158448
31.21568,160880
31.22502,158331
31.23435,159863
31.24370,159096
31.25303,157903
31.26237,157638
31.27172,156797
31.28105,153781
31.29038,156178
31.29973,155748
31.30907,156201
31.31840,154033
31.32775,154409
31.33708,157660
31.34643,154672
31.35577,159440
31.36510,157959
