D:\数据\20211119\ZS1E-Z-000014.D Fri Nov 19 23:25:04 2021
Start of data points
0.09745,44572
0.10678,43752
0.11613,43874
0.12547,42973
0.13482,44570
0.14415,41830
0.15348,43207
0.16283,43410
0.17217,45052
0.18150,42103
0.19085,40420
0.20018,38807
0.20952,40452
0.21887,41816
0.22820,40042
0.23753,39998
0.24688,41489
0.25622,39876
0.26555,41032
0.27490,40994
0.28423,39030
0.29357,39469
0.30292,40910
0.31225,41945
0.32160,39434
0.33093,38738
0.34027,39508
0.34962,38305
0.35895,38800
0.36828,38794
0.37763,37635
0.38697,39592
0.39630,38298
0.40565,38915
0.41498,38625
0.42432,37928
0.43367,34046
0.44300,31797
0.45233,26701
0.46168,21049
0.47102,15501
0.48037,14314
0.48970,12783
0.49903,12789
0.50838,13989
0.51772,13447
0.52705,12522
0.53640,11888
0.54573,13323
0.55507,13096
0.56442,13195
0.57375,13542
0.58308,12772
0.59243,11728
0.60177,11803
0.61110,12563
0.62045,12282
0.62978,12838
0.63912,11624
0.64847,11440
0.65780,11178
0.66715,11079
0.67648,10871
0.68582,12305
0.69517,10719
0.70450,11447
0.71383,11246
0.72318,10897
0.73252,12817
0.74185,11295
0.75120,11258
0.76053,10800
0.76987,10689
0.77922,11521
0.78855,11412
0.79788,10668
0.80723,10331
0.81657,11454
0.82590,11915
0.83525,10224
0.84458,11427
0.85393,11910
0.86327,10874
0.87260,10827
0.88195,10597
0.89128,12143
0.90062,10149
0.90997,10353
0.91930,9002
0.92863,10423
0.93798,10131
0.94732,10693
0.95665,10218
0.96600,10502
0.97533,11157
0.98467,11460
0.99402,9850
1.00335,9493
1.01268,9996
1.02203,10209
1.03137,10572
1.04072,10968
1.05005,9946
1.05938,9679
1.06873,10140
1.07807,9593
1.08740,10234
1.09675,10501
1.10608,10084
1.11542,10729
1.12477,9580
1.13410,10513
1.14343,11479
1.15278,10374
1.16212,9779
1.17145,10369
1.18080,10054
1.19013,9538
1.19948,9135
1.20882,9980
1.21815,10609
1.22750,8956
1.23683,9463
1.24617,9985
1.25552,10020
1.26485,9954
1.27418,10064
1.28353,9480
1.29287,8888
1.30220,9024
1.31155,10362
1.32088,9998
1.33022,10486
1.33957,9682
1.34890,8881
1.35823,8546
1.36758,9363
1.37692,9317
1.38627,9510
1.39560,9006
1.40493,8169
1.41428,9231
1.42362,9477
1.43295,9341
1.44230,8892
1.45163,8717
1.46097,9256
1.47032,8155
1.47965,9543
1.48898,8696
1.49833,10025
1.50767,8764
1.51700,8578
1.52635,9273
1.53568,9127
1.54502,9141
1.55437,9399
1.56370,9273
1.57305,8548
1.58238,9130
1.59172,12020
1.60107,19311
1.61040,26290
1.61973,33695
1.62908,41859
1.63842,52818
1.64775,65894
1.65710,70715
1.66643,68980
1.67577,59563
1.68512,53904
1.69445,46883
1.70378,35824
1.71313,30689
1.72247,29624
1.73180,33284
1.74115,36257
1.75048,43194
1.75983,48727
1.76917,51648
1.77850,52834
1.78785,52289
1.79718,53747
1.80652,52235
1.81587,49438
1.82520,48130
1.83453,46740
1.84388,49289
1.85322,45524
1.86255,48564
1.87190,58671
1.88123,99253
1.89057,156696
1.89992,208696
1.90925,227467
1.91858,294309
1.92793,580365
1.93727,1363568
1.94662,2633516
1.95595,3515667
1.96528,3351452
1.97463,2627683
1.98397,1899587
1.99330,1404759
2.00265,1117109
2.01198,986483
2.02132,885266
2.03067,777851
2.04000,599367
2.04933,427735
2.05868,315402
2.06802,242334
2.07735,188985
2.08670,166654
2.09603,243390
2.10537,331883
2.11472,260644
2.12405,185169
2.13340,151960
2.14273,184040
2.15207,187757
2.16142,167928
2.17075,143226
2.18008,154173
2.18943,285206
2.19877,434238
2.20810,357776
2.21745,224127
2.22678,161659
2.23612,181297
2.24547,356770
2.25480,1541709
2.26413,3558438
2.27348,3695541
2.28282,2678741
2.29217,1664660
2.30150,1074460
2.31083,1741548
2.32018,4788892
2.32952,6105151
2.33885,3945956
2.34820,1805603
2.35753,811985
2.36687,413202
2.37622,289295
2.38555,280759
2.39488,272233
2.40423,240466
2.41357,210255
2.42290,188806
2.43225,198889
2.44158,196167
2.45092,160149
2.46027,155812
2.46960,198452
2.47895,228627
2.48828,191442
2.49762,143224
2.50697,116708
2.51630,104103
2.52563,97627
2.53498,93337
2.54432,92633
2.55365,116119
2.56300,159387
2.57233,297266
2.58167,383173
2.59102,334530
2.60035,247073
2.60968,203748
2.61903,185821
2.62837,225406
2.63770,274484
2.64705,249278
2.65638,212556
2.66573,207165
2.67507,198011
2.68440,153387
2.69375,126040
2.70308,103774
2.71242,93693
2.72177,118183
2.73110,170655
2.74043,232457
2.74978,271858
2.75912,284936
2.76845,305252
2.77780,315779
2.78713,339685
2.79647,359062
2.80582,325610
2.81515,286851
2.82448,279502
2.83383,257216
2.84317,218508
2.85252,170584
2.86185,175205
2.87118,254077
2.88053,320785
2.88987,270887
2.89920,197162
2.90855,147517
2.91788,119639
2.92722,114111
2.93657,106427
2.94590,94646
2.95523,89208
2.96458,87458
2.97392,85137
2.98325,84293
2.99260,84973
3.00193,98332
3.01128,121998
3.02062,138369
3.02995,132419
3.03930,183751
3.04863,248019
3.05797,237941
3.06732,208969
3.07665,193932
3.08598,177072
3.09533,145396
3.10467,111670
3.11400,91695
3.12335,81523
3.13268,75682
3.14202,82953
3.15137,86105
3.16070,95807
3.17003,107818
3.17938,110957
3.18872,98570
3.19807,90966
3.20740,85816
3.21673,83815
3.22608,85935
3.23542,77728
3.24475,72654
3.25410,71689
3.26343,72092
3.27277,75711
3.28212,68737
3.29145,69082
3.30078,80199
3.31013,95412
3.31947,96148
3.32880,84350
3.33815,78575
3.34748,74531
3.35682,77194
3.36617,83020
3.37550,77906
3.38485,70739
3.39418,63826
3.40352,64176
3.41287,70515
3.42220,84306
3.43153,89344
3.44088,88718
3.45022,98474
3.45955,111859
3.46890,101903
3.47823,91276
3.48757,83148
3.49692,80223
3.50625,75092
3.51558,78106
3.52493,73490
3.53427,71494
3.54360,69414
3.55295,84764
3.56228,187857
3.57163,443554
3.58097,651190
3.59030,564229
3.59965,354973
3.60898,383930
3.61832,344671
3.62767,268608
3.63700,207144
3.64633,174110
3.65568,145926
3.66502,130670
3.67435,127335
3.68370,139266
3.69303,145381
3.70237,121682
3.71172,96628
3.72105,94816
3.73038,111468
3.73973,126347
3.74907,123705
3.75842,100325
3.76775,83353
3.77708,77253
3.78643,72652
3.79577,71473
3.80510,103761
3.81445,344898
3.82378,1106902
3.83312,1882957
3.84247,1708779
3.85180,1068680
3.86113,561188
3.87048,291977
3.87982,160970
3.88915,121297
3.89850,119163
3.90783,132637
3.91718,137101
3.92652,125548
3.93585,116043
3.94520,137639
3.95453,194378
3.96387,197734
3.97322,164503
3.98255,126019
3.99188,93927
4.00123,80699
4.01057,74716
4.01990,89714
4.02925,92456
4.03858,106725
4.04792,149737
4.05727,210552
4.06660,221180
4.07593,190161
4.08528,177405
4.09462,186514
4.10397,190011
4.11330,163834
4.12263,129242
4.13198,101156
4.14132,90274
4.15065,86112
4.16000,87185
4.16933,86664
4.17867,78272
4.18802,73311
4.19735,70417
4.20668,77233
4.21603,86676
4.22537,89039
4.23470,83968
4.24405,73844
4.25338,72991
4.26272,71193
4.27207,70665
4.28140,96591
4.29075,103145
4.30008,97216
4.30942,92057
4.31877,92154
4.32810,112922
4.33743,140107
4.34678,139074
4.35612,118622
4.36545,95204
4.37480,78499
4.38413,86013
4.39347,102925
4.40282,104901
4.41215,90668
4.42148,75732
4.43083,65951
4.44017,66954
4.44950,61507
4.45885,62742
4.46818,69220
4.47753,83894
4.48687,109152
4.49620,123598
4.50555,111292
4.51488,92568
4.52422,75156
4.53357,70421
4.54290,76439
4.55223,81602
4.56158,80222
4.57092,73527
4.58025,69303
4.58960,70079
4.59893,70292
4.60827,68914
4.61762,70645
4.62695,68169
4.63630,67379
4.64563,69055
4.65497,82941
4.66432,90833
4.67365,87528
4.68298,80720
4.69233,83143
4.70167,109074
4.71100,137425
4.72035,137816
4.72968,111554
4.73902,98863
4.74837,98048
4.75770,92885
4.76703,82674
4.77638,77202
4.78572,75465
4.79505,74244
4.80440,72888
4.81373,70749
4.82308,70027
4.83242,74612
4.84175,85740
4.85110,88056
4.86043,85647
4.86977,84981
4.87912,90816
4.88845,108245
4.89778,109733
4.90713,107010
4.91647,96933
4.92580,89580
4.93515,85063
4.94448,81573
4.95382,82911
4.96317,76479
4.97250,68724
4.98183,65127
4.99118,63823
5.00052,67581
5.00987,70530
5.01920,70432
5.02853,76034
5.03788,79724
5.04722,81524
5.05655,79723
5.06590,71990
5.07523,71901
5.08457,77790
5.09392,78958
5.10325,76888
5.11258,72735
5.12193,66435
5.13127,64747
5.14060,73705
5.14995,85960
5.15928,95896
5.16862,93405
5.17797,85381
5.18730,107732
5.19665,166109
5.20598,165991
5.21532,128159
5.22467,96395
5.23400,78435
5.24333,80365
5.25268,82089
5.26202,78508
5.27135,91557
5.28070,185942
5.29003,430245
5.29937,664249
5.30872,617503
5.31805,386145
5.32738,220309
5.33673,161958
5.34607,128200
5.35540,96178
5.36475,76797
5.37408,68510
5.38343,75888
5.39277,98233
5.40210,121745
5.41145,118061
5.42078,105490
5.43012,89879
5.43947,77013
5.44880,63735
5.45813,62354
5.46748,62398
5.47682,62025
5.48615,62459
5.49550,62076
5.50483,69357
5.51417,69524
5.52352,79406
5.53285,107652
5.54218,132237
5.55153,133366
5.56087,106531
5.57022,85412
5.57955,71714
5.58888,68970
5.59823,65748
5.60757,61892
5.61690,62153
5.62625,60159
5.63558,59195
5.64492,58365
5.65427,62894
5.66360,67611
5.67293,82923
5.68228,102208
5.69162,99594
5.70095,83721
5.71030,80303
5.71963,82666
5.72898,88198
5.73832,84994
5.74765,90375
5.75700,112078
5.76633,140393
5.77567,139478
5.78502,111499
5.79435,83851
5.80368,66321
5.81303,59991
5.82237,66056
5.83170,80222
5.84105,97392
5.85038,104198
5.85972,94761
5.86907,83683
5.87840,81697
5.88773,80043
5.89708,78466
5.90642,84545
5.91577,124209
5.92510,234769
5.93443,357135
5.94378,324029
5.95312,220352
5.96245,163992
5.97180,123565
5.98113,91091
5.99047,73626
5.99982,64503
6.00915,63526
6.01848,63160
6.02783,59517
6.03717,56614
6.04650,51479
6.05585,51560
6.06518,49460
6.07452,46411
6.08387,45655
6.09320,40792
6.10255,37827
6.11188,37770
6.12122,37805
6.13057,50608
6.13990,62550
6.14923,71064
6.15858,60590
6.16792,41882
6.17725,35171
6.18660,34307
6.19593,32787
6.20527,32563
6.21462,31627
6.22395,33667
6.23328,43061
6.24263,48877
6.25197,49121
6.26130,46167
6.27065,58872
6.27998,107708
6.28933,126045
6.29867,95758
6.30800,59644
6.31735,41825
6.32668,33171
6.33602,29395
6.34537,30123
6.35470,29862
6.36403,31436
6.37338,33468
6.38272,50092
6.39205,98393
6.40140,355779
6.41073,1371035
6.42007,3052025
6.42942,3427730
6.43875,2093741
6.44810,765212
6.45743,213514
6.46677,80197
6.47612,56173
6.48545,44831
6.49478,39382
6.50413,36388
6.51347,36459
6.52280,36219
6.53215,38457
6.54148,37362
6.55082,36124
6.56017,32294
6.56950,30183
6.57883,31999
6.58818,35437
6.59752,39893
6.60685,43476
6.61620,46820
6.62553,43020
6.63488,43056
6.64422,45495
6.65355,45417
6.66290,44712
6.67223,46676
6.68157,41923
6.69092,41169
6.70025,47920
6.70958,58371
6.71893,59599
6.72827,55535
6.73760,45883
6.74695,38069
6.75628,36148
6.76562,34509
6.77497,34485
6.78430,35778
6.79363,44910
6.80298,51723
6.81232,57867
6.82167,51945
6.83100,43777
6.84033,38475
6.84968,40845
6.85902,45560
6.86835,43776
6.87770,38559
6.88703,33220
6.89637,32892
6.90572,33561
6.91505,38309
6.92438,38468
6.93373,34531
6.94307,34214
6.95240,32370
6.96175,34477
6.97108,35440
6.98042,36248
6.98977,35611
6.99910,34434
7.00845,32220
7.01778,32222
7.02712,33714
7.03647,32326
7.04580,29528
7.05513,26252
7.06448,25013
7.07382,26372
7.08315,28136
7.09250,32048
7.10183,35812
7.11117,40292
7.12052,40739
7.12985,42355
7.13918,38995
7.14853,35929
7.15787,30111
7.16720,31329
7.17655,29710
7.18588,31429
7.19523,31764
7.20457,31157
7.21390,33771
7.22325,39747
7.23258,64131
7.24192,125045
7.25127,192303
7.26060,182361
7.26993,119027
7.27928,76215
7.28862,63377
7.29795,57753
7.30730,58678
7.31663,61256
7.32597,60031
7.33532,54439
7.34465,45772
7.35400,37937
7.36333,34086
7.37267,30564
7.38202,33387
7.39135,46924
7.40068,113674
7.41003,266515
7.41937,409283
7.42870,389556
7.43805,248649
7.44738,125043
7.45672,62743
7.46607,44667
7.47540,58985
7.48473,77804
7.49408,71424
7.50342,57406
7.51275,45154
7.52210,35411
7.53143,34091
7.54078,32792
7.55012,33802
7.55945,34391
7.56880,36545
7.57813,40875
7.58747,42825
7.59682,44502
7.60615,45091
7.61548,46775
7.62483,45419
7.63417,45638
7.64350,42063
7.65285,38276
7.66218,33611
7.67152,35690
7.68087,40854
7.69020,38644
7.69953,42028
7.70888,49856
7.71822,60526
7.72757,56762
7.73690,52817
7.74623,57257
7.75558,57538
7.76492,54127
7.77425,50048
7.78360,56404
7.79293,63323
7.80227,60691
7.81162,46287
7.82095,38850
7.83028,36480
7.83963,113449
7.84897,127579
7.85830,139672
7.86765,185994
7.87698,248992
7.88632,246521
7.89567,182394
7.90500,120470
7.91435,124347
7.92368,182435
7.93302,221086
7.94237,208563
7.95170,200437
7.96103,185665
7.97038,157479
7.97972,168846
7.98905,239559
7.99840,272373
8.00773,214925
8.01707,125691
8.02642,80950
8.03575,70005
8.04508,75224
8.05443,90855
8.06377,89214
8.07312,67608
8.08245,57398
8.09178,62615
8.10113,85840
8.11047,94693
8.11980,87612
8.12915,69277
8.13848,56958
8.14782,53827
8.15717,53562
8.16650,53411
8.17583,48886
8.18518,45352
8.19452,43461
8.20385,42621
8.21320,46459
8.22253,49230
8.23187,50674
8.24122,54019
8.25055,55681
8.25990,60075
8.26923,61406
8.27857,52592
8.28792,45368
8.29725,42475
8.30658,45001
8.31593,43264
8.32527,41117
8.33460,40397
8.34395,40355
8.35328,39415
8.36262,36739
8.37197,38414
8.38130,40757
8.39063,49429
8.39998,55337
8.40932,57773
8.41865,62617
8.42800,65181
8.43733,64086
8.44668,56292
8.45602,49758
8.46535,47054
8.47470,48227
8.48403,49088
8.49337,44982
8.50272,45866
8.51205,44569
8.52138,44911
8.53073,41449
8.54007,44490
8.54940,64238
8.55875,73685
8.56808,73083
8.57742,71698
8.58677,62959
8.59610,57497
8.60543,56130
8.61478,57983
8.62412,54670
8.63347,50886
8.64280,48500
8.65213,48023
8.66148,47797
8.67082,50681
8.68015,51178
8.68950,51522
8.69883,48792
8.70817,50730
8.71752,51031
8.72685,46804
8.73618,43568
8.74553,53297
8.75487,82084
8.76420,111520
8.77355,105071
8.78288,84888
8.79222,83877
8.80157,91877
8.81090,105083
8.82025,127637
8.82958,125813
8.83892,89000
8.84827,58671
8.85760,51539
8.86693,49299
8.87628,58173
8.88562,63065
8.89495,64365
8.90430,59640
8.91363,56379
8.92297,55098
8.93232,56242
8.94165,62292
8.95098,61591
8.96033,56905
8.96967,57536
8.97900,60436
8.98835,60854
8.99768,57350
9.00703,57555
9.01637,60957
9.02570,57849
9.03505,55030
9.04438,61092
9.05372,69443
9.06307,73569
9.07240,81293
9.08173,88415
9.09108,100961
9.10042,113612
9.10975,104259
9.11910,73589
9.12843,58110
9.13777,56676
9.14712,58282
9.15645,57269
9.16580,50152
9.17513,48896
9.18447,50389
9.19382,46984
9.20315,51003
9.21248,59591
9.22183,87967
9.23117,158153
9.24050,234941
9.24985,245764
9.25918,175571
9.26852,104250
9.27787,72764
9.28720,63678
9.29653,60781
9.30588,61614
9.31522,72810
9.32455,91802
9.33390,133231
9.34323,170056
9.35258,147027
9.36192,123762
9.37125,195509
9.38060,324829
9.38993,348404
9.39927,274611
9.40862,197491
9.41795,134974
9.42728,111874
9.43663,109140
9.44597,95690
9.45530,67509
9.46465,54602
9.47398,48220
9.48332,51334
9.49267,89584
9.50200,174729
9.51133,231060
9.52068,195787
9.53002,143008
9.53937,112562
9.54870,107977
9.55803,123261
9.56738,167488
9.57672,206927
9.58605,169684
9.59540,116828
9.60473,110373
9.61407,124882
9.62342,116445
9.63275,90321
9.64208,78315
9.65143,73150
9.66077,69673
9.67010,70399
9.67945,69123
9.68878,66729
9.69812,63036
9.70747,58551
9.71680,56786
9.72615,96878
9.73548,328477
9.74482,976832
9.75417,1658468
9.76350,1607228
9.77283,934871
9.78218,421337
9.79152,230204
9.80085,166672
9.81020,135910
9.81953,119523
9.82887,136655
9.83822,171075
9.84755,218862
9.85688,252792
9.86623,219855
9.87557,154380
9.88492,125733
9.89425,143460
9.90358,161652
9.91293,169106
9.92227,223059
9.93160,284914
9.94095,282706
9.95028,209645
9.95962,125921
9.96897,89749
9.97830,132924
9.98763,343721
9.99698,660340
10.00632,734211
10.01565,471513
10.02500,211788
10.03433,107742
10.04367,74462
10.05302,71220
10.06235,84383
10.07170,115093
10.08103,157121
10.09037,177215
10.09972,150160
10.10905,191986
10.11838,767132
10.12773,3142442
10.13707,6980717
10.14640,8215174
10.15575,6142556
10.16508,5526506
10.17442,7719522
10.18377,8275270
10.19310,4583447
10.20243,1236970
10.21178,245810
10.22112,112526
10.23045,104724
10.23980,118459
10.24913,145037
10.25848,155241
10.26782,124790
10.27715,92134
10.28650,73296
10.29583,73049
10.30517,72972
10.31452,75961
10.32385,81112
10.33318,89538
10.34253,86505
10.35187,77631
10.36120,69548
10.37055,70602
10.37988,63493
10.38922,60001
10.39857,55557
10.40790,61325
10.41723,84302
10.42658,107837
10.43592,115779
10.44527,99533
10.45460,81480
10.46393,80732
10.47328,90836
10.48262,83203
10.49195,67348
10.50130,56993
10.51063,51324
10.51997,49669
10.52932,51358
10.53865,54387
10.54798,59980
10.55733,61714
10.56667,65124
10.57600,66750
10.58535,69102
10.59468,76960
10.60402,78619
10.61337,76257
10.62270,66379
10.63205,69711
10.64138,81728
10.65072,95433
10.66007,80278
10.66940,71604
10.67873,78666
10.68808,93508
10.69742,98066
10.70675,84854
10.71610,75889
10.72543,93055
10.73477,98781
10.74412,91616
10.75345,93659
10.76278,148327
10.77213,219874
10.78147,231506
10.79082,198001
10.80015,259584
10.80948,471327
10.81883,605312
10.82817,459848
10.83750,225348
10.84685,97914
10.85618,63578
10.86552,58930
10.87487,67620
10.88420,85634
10.89353,99558
10.90288,99482
10.91222,84912
10.92155,79247
10.93090,81517
10.94023,88171
10.94957,84745
10.95892,71742
10.96825,66447
10.97760,68952
10.98693,63197
10.99627,60372
11.00562,57871
11.01495,58915
11.02428,55162
11.03363,54869
11.04297,54345
11.05230,51914
11.06165,50697
11.07098,48460
11.08032,47123
11.08967,47793
11.09900,50256
11.10833,56599
11.11768,73384
11.12702,78247
11.13635,74146
11.14570,69075
11.15503,69670
11.16438,66533
11.17372,60380
11.18305,58046
11.19240,55331
11.20173,54152
11.21107,54826
11.22042,59633
11.22975,68348
11.23908,68752
11.24843,64048
11.25777,66375
11.26710,72975
11.27645,85285
11.28578,77919
11.29512,69768
11.30447,72981
11.31380,78030
11.32313,75600
11.33248,70843
11.34182,88286
11.35117,119561
11.36050,154443
11.36983,162357
11.37918,132643
11.38852,98932
11.39785,87607
11.40720,101065
11.41653,118051
11.42587,105640
11.43522,83725
11.44455,70256
11.45388,64847
11.46323,70441
11.47257,101269
11.48190,135858
11.49125,135154
11.50058,95028
11.50993,71093
11.51927,63049
11.52860,59048
11.53795,58258
11.54728,62161
11.55662,72353
11.56597,97209
11.57530,160021
11.58463,240486
11.59398,251477
11.60332,203834
11.61265,149898
11.62200,122242
11.63133,112588
11.64067,114304
11.65002,109524
11.65935,105078
11.66868,104187
11.67803,101610
11.68737,87824
11.69672,73566
11.70605,70994
11.71538,71402
11.72473,75317
11.73407,73873
11.74340,81656
11.75275,82682
11.76208,85540
11.77142,86505
11.78077,85255
11.79010,97386
11.79943,104559
11.80878,99155
11.81812,83687
11.82745,80079
11.83680,86378
11.84613,89094
11.85547,85024
11.86482,86619
11.87415,82668
11.88350,84548
11.89283,89793
11.90217,85620
11.91152,79559
11.92085,79196
11.93018,75947
11.93953,80775
11.94887,109486
11.95820,141800
11.96755,135595
11.97688,106130
11.98622,86418
11.99557,80204
12.00490,89696
12.01423,112933
12.02358,145969
12.03292,159198
12.04225,133287
12.05160,104466
12.06093,86153
12.07028,76926
12.07962,72737
12.08895,70555
12.09830,75020
12.10763,80468
12.11697,79759
12.12632,74115
12.13565,73645
12.14498,76440
12.15433,78361
12.16367,92355
12.17300,148977
12.18235,289774
12.19168,399573
12.20102,310067
12.21037,159780
12.21970,96135
12.22903,94404
12.23838,116084
12.24772,124209
12.25707,110745
12.26640,99002
12.27573,151903
12.28508,268847
12.29442,345138
12.30375,258178
12.31310,153070
12.32243,102419
12.33177,90433
12.34112,93681
12.35045,103275
12.35978,102137
12.36913,88646
12.37847,83646
12.38780,91645
12.39715,111224
12.40648,138774
12.41582,142616
12.42517,122851
12.43450,113283
12.44385,100092
12.45318,91263
12.46252,91429
12.47187,98233
12.48120,105247
12.49053,108789
12.49988,110491
12.50922,113206
12.51855,112560
12.52790,109384
12.53723,113067
12.54657,110834
12.55592,105953
12.56525,109150
12.57458,130500
12.58393,153909
12.59327,167937
12.60262,149549
12.61195,119026
12.62128,99602
12.63063,93197
12.63997,106835
12.64930,132321
12.65865,145947
12.66798,133927
12.67732,113193
12.68667,89047
12.69600,74782
12.70533,71102
12.71468,75937
12.72402,86832
12.73335,108408
12.74270,127333
12.75203,128123
12.76137,130209
12.77072,128772
12.78005,108458
12.78940,88378
12.79873,77482
12.80807,73987
12.81742,78240
12.82675,78625
12.83608,80058
12.84543,81640
12.85477,80354
12.86410,73882
12.87345,75786
12.88278,71204
12.89212,70822
12.90147,77226
12.91080,78411
12.92013,71708
12.92948,65643
12.93882,66326
12.94815,78464
12.95750,83806
12.96683,82401
12.97618,73544
12.98552,66789
12.99485,58205
13.00420,57541
13.01353,59017
13.02287,65315
13.03222,78796
13.04155,100463
13.05088,109120
13.06023,99349
13.06957,101998
13.07890,132386
13.08825,148355
13.09758,118373
13.10692,94138
13.11627,82182
13.12560,79031
13.13493,80734
13.14428,91686
13.15362,94919
13.16297,93613
13.17230,87255
13.18163,91224
13.19098,142638
13.20032,550862
13.20965,2265566
13.21900,5378151
13.22833,6411711
13.23767,4111219
13.24702,1506193
13.25635,488565
13.26568,287100
13.27503,198169
13.28437,140688
13.29370,125985
13.30305,115268
13.31238,106288
13.32173,112772
13.33107,125978
13.34040,119227
13.34975,108043
13.35908,100690
13.36842,97628
13.37777,84795
13.38710,78700
13.39643,87782
13.40578,108989
13.41512,125718
13.42445,104793
13.43380,83073
13.44313,87176
13.45247,106627
13.46182,106676
13.47115,96606
13.48048,88615
13.48983,88589
13.49917,82899
13.50852,75273
13.51785,90292
13.52718,166943
13.53653,275990
13.54587,301551
13.55520,202382
13.56455,104208
13.57388,71214
13.58322,66422
13.59257,61658
13.60190,59790
13.61123,59019
13.62058,59536
13.62992,60607
13.63925,67184
13.64860,75488
13.65793,86256
13.66727,88763
13.67662,78076
13.68595,73345
13.69530,78898
13.70463,93132
13.71397,101165
13.72332,91819
13.73265,68245
13.74198,56801
13.75133,51460
13.76067,54756
13.77000,57650
13.77935,60289
13.78868,58166
13.79802,60302
13.80737,74871
13.81670,93152
13.82603,96291
13.83538,78372
13.84472,66360
13.85405,65605
13.86340,65303
13.87273,72668
13.88208,79064
13.89142,91012
13.90075,136761
13.91010,244943
13.91943,470195
13.92877,723122
13.93812,695641
13.94745,373469
13.95678,167835
13.96613,111085
13.97547,99670
13.98480,84708
13.99415,74182
14.00348,77908
14.01282,83039
14.02217,78041
14.03150,69663
14.04083,71073
14.05018,160504
14.05952,934841
14.06887,4262563
14.07820,1.092642E+07
14.08753,1.693844E+07
14.09688,1.515605E+07
14.10622,5854676
14.11555,924662
14.12490,158560
14.13423,94406
14.14357,85934
14.15292,87574
14.16225,98729
14.17158,110597
14.18093,113942
14.19027,124735
14.19960,163683
14.20895,189475
14.21828,164914
14.22762,112980
14.23697,77706
14.24630,65854
14.25565,62881
14.26498,63710
14.27432,72283
14.28367,79052
14.29300,73201
14.30233,68658
14.31168,65137
14.32102,79513
14.33035,116836
14.33970,156824
14.34903,153474
14.35837,119107
14.36772,89165
14.37705,71269
14.38638,67802
14.39573,65049
14.40507,67985
14.41442,65525
14.42375,57623
14.43308,54596
14.44243,58779
14.45177,75377
14.46110,122489
14.47045,183010
14.47978,213778
14.48912,188211
14.49847,126447
14.50780,85008
14.51713,62223
14.52648,55115
14.53582,52848
14.54515,53040
14.55450,61877
14.56383,64861
14.57317,69939
14.58252,67701
14.59185,65405
14.60120,62810
14.61053,62407
14.61987,62250
14.62922,64297
14.63855,88013
14.64788,140105
14.65723,239847
14.66657,277314
14.67590,219207
14.68525,145746
14.69458,95329
14.70392,72785
14.71327,62737
14.72260,58682
14.73193,61455
14.74128,65507
14.75062,66174
14.75995,61702
14.76930,66209
14.77863,83881
14.78798,182332
14.79732,472159
14.80665,866213
14.81600,907875
14.82533,590349
14.83467,255361
14.84402,115347
14.85335,78071
14.86268,72278
14.87203,93675
14.88137,129614
14.89070,137709
14.90005,110556
14.90938,80296
14.91872,70751
14.92807,69931
14.93740,72644
14.94673,78044
14.95608,78219
14.96542,83320
14.97477,92472
14.98410,103318
14.99343,94562
15.00278,84370
15.01212,90714
15.02145,101251
15.03080,98630
15.04013,85604
15.04947,84622
15.05882,93993
15.06815,104156
15.07748,111062
15.08683,107662
15.09617,87690
15.10550,69038
15.11485,61006
15.12418,69484
15.13353,90235
15.14287,116886
15.15220,116687
15.16155,91655
15.17088,73746
15.18022,69710
15.18957,78407
15.19890,90244
15.20823,121369
15.21758,185869
15.22692,261780
15.23625,287643
15.24560,241179
15.25493,160225
15.26427,107260
15.27362,81805
15.28295,73269
15.29228,73059
15.30163,68925
15.31097,65756
15.32032,67359
15.32965,71903
15.33898,83272
15.34833,93175
15.35767,88119
15.36700,88259
15.37635,102841
15.38568,118527
15.39502,104177
15.40437,80631
15.41370,66815
15.42303,67852
15.43238,76918
15.44172,77605
15.45105,75912
15.46040,66651
15.46973,64245
15.47907,64428
15.48842,68301
15.49775,69907
15.50710,82650
15.51643,125405
15.52577,198303
15.53512,228811
15.54445,180812
15.55378,116966
15.56313,74948
15.57247,62738
15.58180,57171
15.59115,59281
15.60048,61422
15.60982,66488
15.61917,74393
15.62850,75210
15.63783,89387
15.64718,101145
15.65652,99520
15.66585,111745
15.67520,122330
15.68453,107961
15.69388,86082
15.70322,89901
15.71255,116298
15.72190,123511
15.73123,103402
15.74057,77623
15.74992,79666
15.75925,106915
15.76858,124042
15.77793,118483
15.78727,100630
15.79660,82903
15.80595,80234
15.81528,107934
15.82462,194225
15.83397,357956
15.84330,561423
15.85263,671757
15.86198,576006
15.87132,315963
15.88067,159486
15.89000,132342
15.89933,146488
15.90868,166824
15.91802,155503
15.92735,124931
15.93670,95768
15.94603,78389
15.95537,70740
15.96472,67121
15.97405,76449
15.98338,104264
15.99273,143580
16.00207,174872
16.01140,168477
16.02075,117777
16.03008,81858
16.03943,69842
16.04877,69354
16.05810,72046
16.06745,74405
16.07678,79219
16.08612,72769
16.09547,71396
16.10480,71414
16.11413,76111
16.12348,94063
16.13282,102175
16.14215,99640
16.15150,85866
16.16083,77092
16.17017,74045
16.17952,74241
16.18885,66034
16.19818,68990
16.20753,79116
16.21687,99005
16.22622,107910
16.23555,105173
16.24488,95147
16.25423,88421
16.26357,81611
16.27290,98455
16.28225,219967
16.29158,685621
16.30092,1675296
16.31027,2310435
16.31960,1822801
16.32893,828362
16.33828,265863
16.34762,107939
16.35695,71782
16.36630,62190
16.37563,55954
16.38497,55024
16.39432,54352
16.40365,57622
16.41300,63412
16.42233,66259
16.43167,67254
16.44102,66657
16.45035,70594
16.45968,93457
16.46903,113309
16.47837,109496
16.48770,90367
16.49705,78800
16.50638,75645
16.51572,80159
16.52507,88090
16.53440,90456
16.54373,81094
16.55308,71995
16.56242,65430
16.57175,61258
16.58110,67115
16.59043,75718
16.59978,77703
16.60912,71739
16.61845,65904
16.62780,76919
16.63713,93867
16.64647,106854
16.65582,102254
16.66515,92873
16.67448,77651
16.68383,74869
16.69317,82755
16.70250,100099
16.71185,114354
16.72118,102226
16.73052,82469
16.73987,78643
16.74920,126752
16.75855,215833
16.76788,248927
16.77722,175879
16.78657,97597
16.79590,70963
16.80523,65761
16.81458,68081
16.82392,75261
16.83325,88428
16.84260,100688
16.85193,106860
16.86127,95644
16.87062,77780
16.87995,66009
16.88928,61130
16.89863,61983
16.90797,70567
16.91730,97529
16.92665,126920
16.93598,123070
16.94533,101561
16.95467,94608
16.96400,107684
16.97335,119345
16.98268,110850
16.99202,93313
17.00137,80948
17.01070,70012
17.02003,70572
17.02938,94163
17.03872,161120
17.04805,211774
17.05740,176133
17.06673,117647
17.07607,93593
17.08542,84691
17.09475,81490
17.10408,82172
17.11343,77648
17.12277,70307
17.13212,68125
17.14145,82599
17.15078,92162
17.16013,82938
17.16947,67573
17.17880,63310
17.18815,62930
17.19748,65509
17.20682,62075
17.21617,58047
17.22550,57126
17.23483,55549
17.24418,57818
17.25352,58025
17.26285,64532
17.27220,66124
17.28153,73092
17.29087,87921
17.30022,97292
17.30955,93175
17.31890,90986
17.32823,96714
17.33757,97248
17.34692,87722
17.35625,74192
17.36558,68090
17.37493,86873
17.38427,178577
17.39360,354311
17.40295,454110
17.41228,334713
17.42162,168244
17.43097,101358
17.44030,82396
17.44963,75991
17.45898,77734
17.46832,81181
17.47765,78537
17.48700,82827
17.49633,196227
17.50568,956009
17.51502,3122990
17.52435,5947602
17.53370,6060071
17.54303,2942320
17.55237,725609
17.56172,156236
17.57105,88210
17.58038,88377
17.58973,101259
17.59907,106543
17.60840,99549
17.61775,86118
17.62708,75518
17.63642,75583
17.64577,80419
17.65510,81756
17.66443,91970
17.67378,108820
17.68312,116077
17.69247,112555
17.70180,116195
17.71113,118318
17.72048,117271
17.72982,109974
17.73915,92677
17.74850,88848
17.75783,96467
17.76717,107471
17.77652,112032
17.78585,111397
17.79518,97548
17.80453,87651
17.81387,82721
17.82320,73691
17.83255,65371
17.84188,68212
17.85123,76326
17.86057,95949
17.86990,120906
17.87925,126804
17.88858,113274
17.89792,100828
17.90727,99681
17.91660,87781
17.92593,70947
17.93528,75686
17.94462,80097
17.95395,78601
17.96330,74417
17.97263,66594
17.98197,65577
17.99132,62731
18.00065,62806
18.00998,66088
18.01933,67597
18.02867,68551
18.03802,70437
18.04735,71538
18.05668,79724
18.06603,93809
18.07537,90423
18.08470,78212
18.09405,68777
18.10338,75841
18.11272,94750
18.12207,115013
18.13140,119740
18.14073,106731
18.15008,101008
18.15942,96502
18.16875,89739
18.17810,86421
18.18743,84890
18.19677,78440
18.20612,75897
18.21545,74914
18.22480,77382
18.23413,77744
18.24347,78741
18.25282,75349
18.26215,66184
18.27148,63387
18.28083,74405
18.29017,87109
18.29950,98024
18.30885,104164
18.31818,106254
18.32752,103172
18.33687,100153
18.34620,112063
18.35553,128415
18.36488,147128
18.37422,148071
18.38355,131006
18.39290,120361
18.40223,119692
18.41158,139013
18.42092,146557
18.43025,120837
18.43960,94885
18.44893,98853
18.45827,111811
18.46762,106350
18.47695,91084
18.48628,82546
18.49563,99988
18.50497,142317
18.51430,194515
18.52365,216826
18.53298,181453
18.54232,131311
18.55167,110013
18.56100,117915
18.57035,117339
18.57968,102782
18.58902,80319
18.59837,72919
18.60770,82951
18.61703,100404
18.62638,119136
18.63572,117147
18.64505,106181
18.65440,101389
18.66373,102510
18.67307,115202
18.68242,136901
18.69175,146083
18.70108,127575
18.71043,120469
18.71977,130714
18.72910,127963
18.73845,119338
18.74778,104351
18.75713,93781
18.76647,83596
18.77580,79147
18.78515,68285
18.79448,68295
18.80382,68425
18.81317,74785
18.82250,79471
18.83183,81281
18.84118,78899
18.85052,77088
18.85985,76687
18.86920,76242
18.87853,78032
18.88787,76548
18.89722,74695
18.90655,77495
18.91588,104642
18.92523,130618
18.93457,129416
18.94392,113310
18.95325,112505
18.96258,134009
18.97193,149063
18.98127,149776
18.99060,129614
18.99995,102869
19.00928,89097
19.01862,82886
19.02797,82540
19.03730,85116
19.04663,102656
19.05598,147909
19.06532,226645
19.07465,314557
19.08400,458397
19.09333,595970
19.10267,525553
19.11202,324035
19.12135,171824
19.13070,99274
19.14003,72923
19.14937,66661
19.15872,65448
19.16805,63044
19.17738,63138
19.18673,65656
19.19607,74105
19.20540,92209
19.21475,97577
19.22408,105814
19.23342,104062
19.24277,97391
19.25210,84535
19.26143,78179
19.27078,70598
19.28012,73439
19.28945,79336
19.29880,96646
19.30813,137439
19.31748,217134
19.32682,274552
19.33615,228956
19.34550,147453
19.35483,105135
19.36417,81918
19.37352,71758
19.38285,67630
19.39218,67044
19.40153,69326
19.41087,76751
19.42020,78644
19.42955,73607
19.43888,71156
19.44822,67616
19.45757,66169
19.46690,71402
19.47623,73202
19.48558,82889
19.49492,91466
19.50427,94694
19.51360,87596
19.52293,77023
19.53228,70471
19.54162,72183
19.55095,72908
19.56030,72316
19.56963,69292
19.57897,78198
19.58832,88358
19.59765,93339
19.60698,92907
19.61633,80309
19.62567,74751
19.63500,83640
19.64435,96931
19.65368,102808
19.66303,94045
19.67237,75755
19.68170,75431
19.69105,80027
19.70038,93656
19.70972,104741
19.71907,106429
19.72840,121027
19.73773,155598
19.74708,176856
19.75642,149519
19.76575,107875
19.77510,93794
19.78443,95100
19.79377,97182
19.80312,91655
19.81245,84664
19.82178,75358
19.83113,73743
19.84047,74639
19.84982,72401
19.85915,69866
19.86848,73927
19.87783,104218
19.88717,140781
19.89650,151656
19.90585,118281
19.91518,90902
19.92452,82051
19.93387,78148
19.94320,76221
19.95253,76477
19.96188,80402
19.97122,84334
19.98055,83983
19.98990,77891
19.99923,70291
20.00857,67666
20.01792,71517
20.02725,75374
20.03660,82684
20.04593,86864
20.05527,88789
20.06462,80974
20.07395,76703
20.08328,79419
20.09263,82235
20.10197,80414
20.11130,72655
20.12065,65575
20.12998,60072
20.13932,64180
20.14867,73239
20.15800,86542
20.16733,108024
20.17668,102274
20.18602,86989
20.19535,73780
20.20470,69126
20.21403,68269
20.22338,74333
20.23272,78282
20.24205,78627
20.25140,78658
20.26073,78691
20.27007,72777
20.27942,73180
20.28875,76810
20.29808,83705
20.30743,85343
20.31677,82446
20.32610,74183
20.33545,64347
20.34478,62176
20.35412,64099
20.36347,68204
20.37280,75084
20.38215,76038
20.39148,72458
20.40082,68205
20.41017,64632
20.41950,60905
20.42883,62825
20.43818,63498
20.44752,65952
20.45685,68094
20.46620,72056
20.47553,95773
20.48487,113467
20.49422,106865
20.50355,83562
20.51288,71133
20.52223,68436
20.53157,67853
20.54090,66153
20.55025,70511
20.55958,85198
20.56893,151695
20.57827,380406
20.58760,707062
20.59695,736177
20.60628,409856
20.61562,169691
20.62497,95927
20.63430,95540
20.64363,133155
20.65298,183768
20.66232,188078
20.67165,150907
20.68100,112569
20.69033,97413
20.69967,88018
20.70902,83114
20.71835,80670
20.72768,83864
20.73703,80579
20.74637,78815
20.75572,79001
20.76505,76206
20.77438,71835
20.78373,69576
20.79307,68963
20.80240,76664
20.81175,80642
20.82108,83121
20.83042,78346
20.83977,73332
20.84910,69029
20.85843,65235
20.86778,62403
20.87712,62701
20.88645,66195
20.89580,71873
20.90513,73706
20.91447,77016
20.92382,75150
20.93315,71414
20.94250,64840
20.95183,64587
20.96117,64375
20.97052,63173
20.97985,59877
20.98918,63175
20.99853,64876
21.00787,69681
21.01720,72961
21.02655,70627
21.03588,68739
21.04522,67271
21.05457,65834
21.06390,69978
21.07323,69723
21.08258,68555
21.09192,68779
21.10125,69294
21.11060,72105
21.11993,75711
21.12928,79062
21.13862,84818
21.14795,87918
21.15730,83936
21.16663,83065
21.17597,84296
21.18532,86452
21.19465,90567
21.20398,90502
21.21333,78720
21.22267,72068
21.23200,74037
21.24135,71022
21.25068,70939
21.26002,69350
21.26937,76444
21.27870,99289
21.28805,142405
21.29738,180796
21.30672,177743
21.31607,136513
21.32540,92311
21.33473,78979
21.34408,73949
21.35342,75199
21.36275,76909
21.37210,78942
21.38143,76513
21.39077,78790
21.40012,80102
21.40945,82488
21.41878,86776
21.42813,83170
21.43747,81321
21.44680,78827
21.45615,76623
21.46548,71129
21.47483,71421
21.48417,74145
21.49350,83721
21.50285,87059
21.51218,85927
21.52152,78962
21.53087,76890
21.54020,71729
21.54953,73852
21.55888,80119
21.56822,108952
21.57755,156872
21.58690,184242
21.59623,163976
21.60557,117723
21.61492,91064
21.62425,85218
21.63358,89211
21.64293,89938
21.65227,86044
21.66162,74592
21.67095,74140
21.68028,87003
21.68963,105091
21.69897,122114
21.70830,125913
21.71765,113717
21.72698,101322
21.73632,97622
21.74567,90169
21.75500,83625
21.76433,78655
21.77368,76587
21.78302,71579
21.79235,77464
21.80170,75885
21.81103,84530
21.82037,93294
21.82972,94702
21.83905,94445
21.84840,90488
21.85773,83180
21.86707,75297
21.87642,76019
21.88575,90574
21.89508,102908
21.90443,114964
21.91377,109603
21.92310,97538
21.93245,83333
21.94178,77572
21.95112,75271
21.96047,80169
21.96980,93052
21.97913,104599
21.98848,120878
21.99782,133879
22.00717,129604
22.01650,111704
22.02583,90775
22.03518,82697
22.04452,88160
22.05385,101386
22.06320,109483
22.07253,102890
22.08187,97327
22.09122,90236
22.10055,88124
22.10988,85970
22.11923,83064
22.12857,79765
22.13790,78095
22.14725,75819
22.15658,86804
22.16592,109040
22.17527,132307
22.18460,144712
22.19395,129178
22.20328,107489
22.21262,91943
22.22197,91734
22.23130,94543
22.24063,95975
22.24998,96196
22.25932,92708
22.26865,91763
22.27800,112937
22.28733,140438
22.29667,162630
22.30602,162407
22.31535,139489
22.32468,112993
22.33403,90893
22.34337,91480
22.35270,97087
22.36205,114811
22.37138,124541
22.38073,130395
22.39007,131786
22.39940,123009
22.40875,110886
22.41808,97429
22.42742,95628
22.43677,105882
22.44610,115393
22.45543,114604
22.46478,108710
22.47412,100296
22.48345,96142
22.49280,89749
22.50213,85492
22.51147,83178
22.52082,85346
22.53015,83540
22.53948,84274
22.54883,80914
22.55817,85450
22.56752,90553
22.57685,104954
22.58618,116883
22.59553,121390
22.60487,123097
22.61420,117501
22.62355,115249
22.63288,112462
22.64222,106912
22.65157,98912
22.66090,89031
22.67023,82791
22.67958,86028
22.68892,100674
22.69825,117401
22.70760,124089
22.71693,113388
22.72627,100510
22.73562,107914
22.74495,118527
22.75430,121351
22.76363,123708
22.77297,123100
22.78232,113774
22.79165,109058
22.80098,114107
22.81033,134412
22.81967,135564
22.82900,127281
22.83835,112554
22.84768,105374
22.85702,100393
22.86637,97406
22.87570,97175
22.88503,101677
22.89438,102416
22.90372,99726
22.91305,102730
22.92240,106657
22.93173,112122
22.94108,116035
22.95042,109386
22.95975,103209
22.96910,99090
22.97843,93109
22.98777,88156
22.99712,81881
23.00645,81222
23.01578,80602
23.02513,78429
23.03447,76958
23.04380,80328
23.05315,82864
23.06248,83223
23.07182,86550
23.08117,84102
23.09050,86462
23.09985,81552
23.10918,81087
23.11852,77896
23.12787,76486
23.13720,79038
23.14653,79700
23.15588,76475
23.16522,78372
23.17455,80260
23.18390,82102
23.19323,84709
23.20257,80644
23.21192,78741
23.22125,79150
23.23058,77511
23.23993,78876
23.24927,89477
23.25860,95937
23.26795,101042
23.27728,98161
23.28663,89245
23.29597,85042
23.30530,78716
23.31465,76872
23.32398,83181
23.33332,102413
23.34267,132953
23.35200,149795
23.36133,128510
23.37068,96560
23.38002,88695
23.38935,83768
23.39870,92062
23.40803,89359
23.41737,89763
23.42672,86526
23.43605,82300
23.44538,83776
23.45473,86806
23.46407,86004
23.47342,85800
23.48275,84104
23.49208,84013
23.50143,80260
23.51077,81519
23.52010,85727
23.52945,92171
23.53878,93544
23.54812,90289
23.55747,84104
23.56680,81676
23.57613,83518
23.58548,80003
23.59482,86633
23.60415,86183
23.61350,85493
23.62283,79353
23.63217,79767
23.64152,76914
23.65085,75829
23.66020,76138
23.66953,74232
23.67887,79283
23.68822,78711
23.69755,81101
23.70688,90353
23.71623,89029
23.72557,98190
23.73490,109103
23.74425,117960
23.75358,108812
23.76292,94311
23.77227,84247
23.78160,81874
23.79093,80702
23.80028,79495
23.80962,76632
23.81897,78380
23.82830,77998
23.83763,78041
23.84698,77244
23.85632,76639
23.86565,81259
23.87500,81173
23.88433,80484
23.89367,80772
23.90302,83613
23.91235,85534
23.92168,81842
23.93103,78553
23.94037,76867
23.94970,79444
23.95905,78758
23.96838,77248
23.97772,75267
23.98707,74146
23.99640,75468
24.00575,76256
24.01508,78794
24.02442,80075
24.03377,80928
24.04310,81449
24.05243,78113
24.06178,72044
24.07112,75919
24.08045,79919
24.08980,82090
24.09913,84221
24.10847,84642
24.11782,79544
24.12715,80688
24.13648,78377
24.14583,78815
24.15517,77554
24.16450,79597
24.17385,81393
24.18318,78246
24.19253,78647
24.20187,79344
24.21120,74416
24.22055,77994
24.22988,76695
24.23922,76770
24.24857,81625
24.25790,79212
24.26723,80877
24.27658,79625
24.28592,80378
24.29525,81080
24.30460,79104
24.31393,87662
24.32327,97303
24.33262,103322
24.34195,100556
24.35128,93586
24.36063,84998
24.36997,84190
24.37932,85005
24.38865,87113
24.39798,92972
24.40733,92048
24.41667,91665
24.42600,88532
24.43535,85772
24.44468,85515
24.45402,84391
24.46337,83277
24.47270,85232
24.48203,82827
24.49138,85059
24.50072,86755
24.51005,84543
24.51940,84596
24.52873,86738
24.53807,87288
24.54742,86245
24.55675,88750
24.56610,91714
24.57543,89584
24.58477,84537
24.59412,83063
24.60345,82947
24.61278,85804
24.62213,96232
24.63147,94814
24.64080,92685
24.65015,86355
24.65948,87766
24.66882,89607
24.67817,99883
24.68750,97690
24.69683,96636
24.70618,92745
24.71552,96252
24.72485,95078
24.73420,90352
24.74353,86202
24.75288,85695
24.76222,85268
24.77155,83840
24.78090,83882
24.79023,83252
24.79957,83836
24.80892,83047
24.81825,82999
24.82758,86847
24.83693,85200
24.84627,84541
24.85560,86002
24.86495,81192
24.87428,83196
24.88362,85638
24.89297,83952
24.90230,86888
24.91165,86244
24.92098,89481
24.93032,86966
24.93967,86899
24.94900,85672
24.95833,92616
24.96768,95274
24.97702,96882
24.98635,91572
24.99570,88461
25.00503,87355
25.01437,94271
25.02372,88217
25.03305,87425
25.04238,82661
25.05173,84218
25.06107,84269
25.07040,87672
25.07975,85555
25.08908,87851
25.09843,91482
25.10777,92427
25.11710,92490
25.12645,92096
25.13578,90100
25.14512,97290
25.15447,101189
25.16380,100956
25.17313,97568
25.18248,93479
25.19182,89931
25.20115,91911
25.21050,90663
25.21983,92890
25.22917,89797
25.23852,89139
25.24785,90465
25.25718,92756
25.26653,88059
25.27587,89408
25.28522,86784
25.29455,92239
25.30388,91845
25.31323,91917
25.32257,99479
25.33190,122613
25.34125,154497
25.35058,166200
25.35992,139472
25.36927,126653
25.37860,114407
25.38793,110435
25.39728,106643
25.40662,106787
25.41595,104864
25.42530,109887
25.43463,113188
25.44397,112525
25.45332,111017
25.46265,104577
25.47200,105146
25.48133,123199
25.49067,148500
25.50002,159036
25.50935,150658
25.51868,136803
25.52803,125687
25.53737,121746
25.54670,115002
25.55605,115918
25.56538,112013
25.57472,116170
25.58407,111301
25.59340,111282
25.60273,107521
25.61208,107126
25.62142,106585
25.63077,107083
25.64010,106453
25.64943,110283
25.65878,117955
25.66812,125339
25.67745,125683
25.68680,119955
25.69613,112979
25.70547,110499
25.71482,109070
25.72415,108995
25.73348,107974
25.74283,109814
25.75217,112655
25.76150,110713
25.77085,108408
25.78018,107467
25.78952,108727
25.79887,108773
25.80820,113738
25.81755,120615
25.82688,119669
25.83622,118120
25.84557,124850
25.85490,124439
25.86423,117768
25.87358,112150
25.88292,110697
25.89225,115602
25.90160,111509
25.91093,112893
25.92027,110503
25.92962,110219
25.93895,112334
25.94828,118517
25.95763,124714
25.96697,126012
25.97630,123303
25.98565,120122
25.99498,113976
26.00433,112905
26.01367,113325
26.02300,115555
26.03235,118695
26.04168,127270
26.05102,129201
26.06037,135321
26.06970,138839
26.07903,134971
26.08838,129717
26.09772,123444
26.10705,122941
26.11640,120822
26.12573,116119
26.13507,116203
26.14442,122976
26.15375,123805
26.16308,136685
26.17243,133088
26.18177,130216
26.19112,130147
26.20045,122559
26.20978,120501
26.21913,116207
26.22847,114551
26.23780,117308
26.24715,115959
26.25648,113072
26.26582,115218
26.27517,113129
26.28450,119604
26.29383,121777
26.30318,120154
26.31252,125961
26.32185,121698
26.33120,126332
26.34053,124948
26.34987,121723
26.35922,123573
26.36855,123839
26.37790,126782
26.38723,122374
26.39657,119846
26.40592,122287
26.41525,119747
26.42458,120571
26.43393,125951
26.44327,127696
26.45260,132392
26.46195,137426
26.47128,142308
26.48062,141303
26.48997,145571
26.49930,145555
26.50863,151957
26.51798,150834
26.52732,157530
26.53667,163754
26.54600,172770
26.55533,178035
26.56468,168968
26.57402,164255
26.58335,159960
26.59270,159023
26.60203,156198
26.61137,160290
26.62072,156819
26.63005,155760
26.63938,146727
26.64873,146232
26.65807,145439
26.66740,147201
26.67675,154761
26.68608,150173
26.69542,145922
26.70477,138459
26.71410,137095
26.72345,136557
26.73278,138798
26.74212,137163
26.75147,141641
26.76080,142635
26.77013,139763
26.77948,146037
26.78882,149927
26.79815,151125
26.80750,149250
26.81683,151046
26.82617,146134
26.83552,150318
26.84485,152941
26.85418,161000
26.86353,168361
26.87287,174403
26.88220,172727
26.89155,167186
26.90088,161318
26.91023,156710
26.91957,161167
26.92890,153764
26.93825,146529
26.94758,151897
26.95692,150036
26.96627,149582
26.97560,154387
26.98493,153531
26.99428,147870
27.00362,152026
27.01295,159709
27.02230,162125
27.03163,157714
27.04097,155898
27.05032,159937
27.05965,161708
27.06898,160378
27.07833,165156
27.08767,163764
27.09702,158568
27.10635,158280
27.11568,161509
27.12503,163626
27.13437,168835
27.14370,170726
27.15305,171741
27.16238,170642
27.17172,163816
27.18107,161173
27.19040,159474
27.19973,161309
27.20908,156344
27.21842,160139
27.22775,161562
27.23710,165342
27.24643,166445
27.25578,175472
27.26512,182227
27.27445,187439
27.28380,176951
27.29313,173303
27.30247,172826
27.31182,166747
27.32115,166347
27.33048,168139
27.33983,173748
27.34917,170846
27.35850,167860
27.36785,172352
27.37718,170206
27.38652,169587
27.39587,171812
27.40520,170791
27.41453,171962
27.42388,177030
27.43322,181313
27.44257,188559
27.45190,189928
27.46123,184580
27.47058,176432
27.47992,178094
27.48925,177777
27.49860,181359
27.50793,184399
27.51727,186382
27.52662,189377
27.53595,192855
27.54528,185655
27.55463,190342
27.56397,187214
27.57330,188540
27.58265,185100
27.59198,184524
27.60132,185307
27.61067,179868
27.62000,183073
27.62935,179023
27.63868,180169
27.64802,183203
27.65737,184793
27.66670,186467
27.67603,192835
27.68538,205152
27.69472,211158
27.70405,206912
27.71340,204143
27.72273,197877
27.73207,193027
27.74142,194030
27.75075,192202
27.76008,187797
27.76943,189415
27.77877,194676
27.78810,197283
27.79745,195792
27.80678,195525
27.81613,193134
27.82547,195576
27.83480,196677
27.84415,194276
27.85348,193570
27.86282,196569
27.87217,198736
27.88150,193843
27.89083,195926
27.90018,196363
27.90952,196158
27.91885,196787
27.92820,203513
27.93753,206551
27.94687,205793
27.95622,201089
27.96555,204957
27.97488,202556
27.98423,204864
27.99357,201479
28.00292,202764
28.01225,202028
28.02158,199908
28.03093,200280
28.04027,198927
28.04960,201910
28.05895,199364
28.06828,201364
28.07762,200932
28.08697,204892
28.09630,202385
28.10563,207431
28.11498,210262
28.12432,216457
28.13365,222650
28.14300,224208
28.15233,222409
28.16167,218498
28.17102,219866
28.18035,215137
28.18970,221848
28.19903,219553
28.20837,211414
28.21772,220641
28.22705,219462
28.23638,218988
28.24573,221196
28.25507,219367
28.26440,221383
28.27375,225620
28.28308,229515
28.29242,219853
28.30177,223311
28.31110,220198
28.32043,222926
28.32978,225831
28.33912,223936
28.34847,222957
28.35780,220349
28.36713,223404
28.37648,223703
28.38582,231842
28.39515,224996
28.40450,229708
28.41383,226097
28.42317,230362
28.43252,228621
28.44185,230063
28.45118,230813
28.46053,232458
28.46987,233546
28.47920,234184
28.48855,230501
28.49788,235732
28.50722,239384
28.51657,238137
28.52590,247645
28.53525,251731
28.54458,253405
28.55392,258391
28.56327,270311
28.57260,280648
28.58193,284871
28.59128,302037
28.60062,318484
28.60995,322176
28.61930,331643
28.62863,346841
28.63797,351666
28.64732,358078
28.65665,356030
28.66598,361249
28.67533,385416
28.68467,435903
28.69400,467863
28.70335,436321
28.71268,365493
28.72203,305716
28.73137,289969
28.74070,279837
28.75005,281089
28.75938,273166
28.76872,272964
28.77807,272874
28.78740,268984
28.79673,267729
28.80608,270374
28.81542,272482
28.82475,274551
28.83410,272534
28.84343,270210
28.85277,269587
28.86212,275919
28.87145,265895
28.88078,271236
28.89013,274976
28.89947,274049
28.90882,279054
28.91815,277171
28.92748,278361
28.93683,275790
28.94617,279156
28.95550,275620
28.96485,279255
28.97418,289504
28.98352,289647
28.99287,289585
29.00220,286299
29.01153,285175
29.02088,283459
29.03022,294492
29.03955,301356
29.04890,306251
29.05823,298783
29.06758,295798
29.07692,291457
29.08625,291626
29.09560,285267
29.10493,286982
29.11427,287224
29.12362,287199
29.13295,287329
29.14228,288263
29.15163,285471
29.16097,289803
29.17030,288477
29.17965,285261
29.18898,287261
29.19832,294026
29.20767,311499
29.21700,326157
29.22633,316264
29.23568,305949
29.24502,290694
29.25437,293417
29.26370,292081
29.27303,296926
29.28238,297328
29.29172,293852
29.30105,293041
29.31040,294581
29.31973,294188
29.32907,291105
29.33842,294992
29.34775,290898
29.35708,298618
29.36643,289261
29.37577,287725
29.38510,293453
29.39445,296953
29.40378,294248
29.41312,289954
29.42247,297559
29.43180,297820
29.44115,294087
29.45048,300946
29.45982,302080
29.46917,313117
29.47850,313196
29.48783,315243
29.49718,307891
29.50652,300086
29.51585,298110
29.52520,295816
29.53453,292928
29.54387,291482
29.55322,293798
29.56255,295170
29.57188,294301
29.58123,298198
29.59057,295449
29.59990,297342
29.60925,302622
29.61858,296644
29.62793,301590
29.63727,295651
29.64660,294910
29.65595,297138
29.66528,294554
29.67462,299683
29.68397,293801
29.69330,294528
29.70263,295977
29.71198,298188
29.72132,297530
29.73065,301879
29.74000,303533
29.74933,304313
29.75867,303869
29.76802,303154
29.77735,300088
29.78668,302654
29.79603,294365
29.80537,296990
29.81472,298632
29.82405,292311
29.83338,294408
29.84273,294284
29.85207,288678
29.86140,291746
29.87075,290819
29.88008,290373
29.88942,295706
29.89877,298227
29.90810,296166
29.91743,294331
29.92678,298529
29.93612,301566
29.94545,299253
29.95480,303171
29.96413,298225
29.97348,304294
29.98282,322262
29.99215,344267
30.00150,354107
30.01083,351556
30.02017,338709
30.02952,335110
30.03885,322350
30.04818,318976
30.05753,315349
30.06687,318523
30.07620,316867
30.08555,317990
30.09488,311528
30.10422,311775
30.11357,314179
30.12290,309481
30.13223,315971
30.14158,313515
30.15092,315359
30.16027,322291
30.16960,325917
30.17893,322838
30.18828,323010
30.19762,321195
30.20695,323041
30.21630,317065
30.22563,314289
30.23497,311558
30.24432,313306
30.25365,310482
30.26298,312592
30.27233,309015
30.28167,309508
30.29100,311714
30.30035,316703
30.30968,312985
30.31902,313399
30.32837,314555
30.33770,316619
30.34705,306210
30.35638,313379
30.36572,304674
30.37507,305715
30.38440,311903
30.39373,325149
30.40308,345779
30.41242,367910
30.42175,374475
30.43110,360167
30.44043,340486
30.44977,330023
30.45912,322877
30.46845,317951
30.47778,322131
30.48713,322372
30.49647,321948
30.50580,317191
30.51515,314503
30.52448,314074
30.53383,316475
30.54317,312776
30.55250,314702
30.56185,311341
30.57118,313220
30.58052,316091
30.58987,316778
30.59920,317661
30.60853,315355
30.61788,319406
30.62722,318346
30.63655,324003
30.64590,331945
30.65523,337314
30.66457,343201
30.67392,349475
30.68325,338988
30.69260,332982
30.70193,327073
30.71127,317101
30.72062,317888
30.72995,312974
30.73928,309447
30.74863,311130
30.75797,311676
30.76730,311718
30.77665,311694
30.78598,314088
30.79532,316415
30.80467,332582
30.81400,327750
30.82333,330374
30.83268,322933
30.84202,325551
30.85135,325664
30.86070,325658
30.87003,324592
30.87938,317876
30.88872,318513
30.89805,314577
30.90740,318826
30.91673,318205
30.92607,312954
30.93542,315047
30.94475,319842
30.95408,317677
30.96343,318085
30.97277,314303
30.98210,318427
30.99145,316721
31.00078,312807
31.01012,315608
31.01947,322225
31.02880,316495
31.03813,319211
31.04748,318133
31.05682,314869
31.06617,319317
31.07550,320378
31.08483,316850
31.09418,318854
31.10352,320507
31.11285,317669
31.12220,324099
31.13153,315952
31.14087,326304
31.15022,319032
31.15955,322996
31.16888,321359
31.17823,325468
31.18757,326739
31.19690,326263
31.20625,324249
31.21558,324737
31.22492,321569
31.23427,318020
31.24360,325048
31.25295,323262
31.26228,321333
31.27162,321561
31.28097,319191
31.29030,322596
31.29963,318944
31.30898,317081
31.31832,319595
31.32765,319253
31.33700,317034
31.34633,322498
31.35567,321223
31.36502,319684
