D:\数据\20211118\ZS1E-Z-000008.D Fri Nov 19 02:30:03 2021
Start of data points
0.09760,44623
0.10693,44013
0.11628,42964
0.12562,44649
0.13495,41274
0.14430,43581
0.15363,42935
0.16297,42484
0.17232,43310
0.18165,41180
0.19098,41532
0.20033,41929
0.20967,42887
0.21902,39760
0.22835,38190
0.23768,40036
0.24703,40848
0.25637,38885
0.26570,38071
0.27505,40132
0.28438,39657
0.29372,40535
0.30307,40613
0.31240,36301
0.32173,38193
0.33108,38416
0.34042,37941
0.34975,38550
0.35910,38020
0.36843,39611
0.37778,38123
0.38712,38312
0.39645,38590
0.40580,36852
0.41513,38312
0.42447,37515
0.43382,30718
0.44315,28402
0.45248,23277
0.46183,18573
0.47117,14718
0.48050,14040
0.48985,13204
0.49918,13218
0.50852,13641
0.51787,13434
0.52720,13225
0.53653,13699
0.54588,12041
0.55522,12348
0.56457,13193
0.57390,11759
0.58323,12054
0.59258,11695
0.60192,12792
0.61125,12316
0.62060,12417
0.62993,12866
0.63927,11930
0.64862,11929
0.65795,12539
0.66728,11908
0.67663,12611
0.68597,11562
0.69530,11971
0.70465,11860
0.71398,11897
0.72332,10961
0.73267,11945
0.74200,11056
0.75135,11095
0.76068,11555
0.77002,11969
0.77937,11000
0.78870,11429
0.79803,10889
0.80738,10836
0.81672,11015
0.82605,10565
0.83540,10727
0.84473,10533
0.85407,11144
0.86342,11072
0.87275,10728
0.88208,10487
0.89143,11069
0.90077,10982
0.91010,10385
0.91945,11272
0.92878,10262
0.93813,11833
0.94747,10473
0.95680,10018
0.96615,10941
0.97548,10605
0.98482,10151
0.99417,10648
1.00350,10879
1.01283,9900
1.02218,10142
1.03152,10482
1.04085,10129
1.05020,11158
1.05953,10398
1.06887,10304
1.07822,9057
1.08755,11069
1.09688,9211
1.10623,9412
1.11557,10036
1.12492,10798
1.13425,10712
1.14358,9360
1.15293,9869
1.16227,10297
1.17160,9644
1.18095,10318
1.19028,10423
1.19962,9760
1.20897,9973
1.21830,10498
1.22763,10153
1.23698,10395
1.24632,10276
1.25565,9704
1.26500,10584
1.27433,9863
1.28367,10030
1.29302,9610
1.30235,10765
1.31170,10422
1.32103,11073
1.33037,9205
1.33972,9983
1.34905,10413
1.35838,9060
1.36773,9689
1.37707,10017
1.38640,10661
1.39575,9629
1.40508,8582
1.41442,9053
1.42377,9730
1.43310,9499
1.44243,9932
1.45178,9174
1.46112,10143
1.47047,9652
1.47980,9336
1.48913,9846
1.49848,9385
1.50782,9513
1.51715,9533
1.52650,10014
1.53583,9273
1.54517,9135
1.55452,9743
1.56385,9002
1.57318,9047
1.58253,10977
1.59187,14307
1.60120,20292
1.61055,26854
1.61988,33150
1.62922,43076
1.63857,59262
1.64790,70962
1.65725,72745
1.66658,64159
1.67592,56746
1.68527,49659
1.69460,43291
1.70393,35480
1.71328,27743
1.72262,27857
1.73195,29667
1.74130,33544
1.75063,35868
1.75997,43454
1.76932,45731
1.77865,46668
1.78798,46297
1.79733,45038
1.80667,46072
1.81600,45554
1.82535,44600
1.83468,44833
1.84403,44218
1.85337,43383
1.86270,45693
1.87205,50971
1.88138,72493
1.89072,118199
1.90007,171933
1.90940,220442
1.91873,291717
1.92808,506055
1.93742,952919
1.94675,1473121
1.95610,1714414
1.96543,1582310
1.97477,1288023
1.98412,977126
1.99345,769850
2.00278,677960
2.01213,630496
2.02147,595042
2.03082,524959
2.04015,418491
2.04948,304184
2.05883,221771
2.06817,171842
2.07750,136499
2.08685,118431
2.09618,124032
2.10552,125919
2.11487,110924
2.12420,99920
2.13353,103719
2.14288,135312
2.15222,150123
2.16155,141150
2.17090,125169
2.18023,130990
2.18958,187619
2.19892,246564
2.20825,209426
2.21760,148700
2.22693,124459
2.23627,164871
2.24562,319653
2.25495,1373920
2.26428,3160714
2.27363,3145331
2.28297,2236007
2.29230,1405885
2.30165,903784
2.31098,1430811
2.32032,3812100
2.32967,4808583
2.33900,3092682
2.34833,1426157
2.35768,644176
2.36702,345913
2.37637,241208
2.38570,222834
2.39503,214699
2.40438,188959
2.41372,178021
2.42305,164334
2.43240,165004
2.44173,158383
2.45107,137057
2.46042,123210
2.46975,129869
2.47908,148358
2.48843,141791
2.49777,123216
2.50710,108117
2.51645,100474
2.52578,95450
2.53512,92160
2.54447,87418
2.55380,97947
2.56315,122615
2.57248,176130
2.58182,235270
2.59117,209607
2.60050,172603
2.60983,143466
2.61918,132784
2.62852,166607
2.63785,212715
2.64720,204334
2.65653,183939
2.66587,158424
2.67522,128919
2.68455,103457
2.69388,87159
2.70323,81994
2.71257,79500
2.72190,98697
2.73125,141079
2.74058,185647
2.74993,227251
2.75927,258977
2.76860,269401
2.77795,266593
2.78728,295396
2.79662,331682
2.80597,304194
2.81530,260804
2.82463,227384
2.83398,206262
2.84332,171738
2.85265,139809
2.86200,137291
2.87133,190786
2.88067,235133
2.89002,207180
2.89935,158257
2.90868,122367
2.91803,109052
2.92737,103268
2.93672,97226
2.94605,89377
2.95538,80861
2.96473,78436
2.97407,74012
2.98340,72472
2.99275,75340
3.00208,83375
3.01142,106258
3.02077,127187
3.03010,118155
3.03943,130731
3.04878,156397
3.05812,150959
3.06745,141986
3.07680,139172
3.08613,142660
3.09548,121177
3.10482,97209
3.11415,80709
3.12350,72651
3.13283,72842
3.14217,73546
3.15152,80399
3.16085,80512
3.17018,89164
3.17953,86292
3.18887,83341
3.19820,78849
3.20755,74598
3.21688,74895
3.22622,73366
3.23557,69354
3.24490,66640
3.25423,68189
3.26358,65782
3.27292,68030
3.28227,65013
3.29160,63240
3.30093,69548
3.31028,75985
3.31962,77942
3.32895,74298
3.33830,68352
3.34763,68977
3.35697,66554
3.36632,69072
3.37565,68066
3.38498,65133
3.39433,60745
3.40367,60621
3.41300,68898
3.42235,82731
3.43168,89084
3.44102,90090
3.45037,98335
3.45970,108358
3.46905,97228
3.47838,90327
3.48772,83566
3.49707,80620
3.50640,74618
3.51573,71685
3.52508,66632
3.53442,68016
3.54375,64998
3.55310,76631
3.56243,156822
3.57177,367300
3.58112,557113
3.59045,487643
3.59978,305995
3.60913,186788
3.61847,185516
3.62780,171064
3.63715,142076
3.64648,122436
3.65583,107101
3.66517,98805
3.67450,104251
3.68385,112884
3.69318,105544
3.70252,87987
3.71187,76700
3.72120,75296
3.73053,89501
3.73988,101315
3.74922,98839
3.75855,83445
3.76790,74932
3.77723,69151
3.78657,63848
3.79592,63608
3.80525,66124
3.81460,98260
3.82393,223656
3.83327,412630
3.84262,555740
3.85195,644804
3.86128,580285
3.87063,354021
3.87997,182392
3.88930,114119
3.89865,119119
3.90798,151531
3.91732,170502
3.92667,146890
3.93600,125451
3.94533,133240
3.95468,187110
3.96402,197639
3.97335,164144
3.98270,122909
3.99203,92473
4.00138,78637
4.01072,73445
4.02005,91790
4.02940,98880
4.03873,146993
4.04807,337455
4.05742,615675
4.06675,678920
4.07608,480707
4.08543,317039
4.09477,231963
4.10410,196814
4.11345,160370
4.12278,126312
4.13212,99512
4.14147,87776
4.15080,85568
4.16013,80253
4.16948,78550
4.17882,73686
4.18817,71956
4.19750,67795
4.20683,72485
4.21618,75610
4.22552,75869
4.23485,72702
4.24420,70245
4.25353,67323
4.26287,65888
4.27222,69812
4.28155,93731
4.29088,102286
4.30023,95093
4.30957,85150
4.31890,81568
4.32825,87323
4.33758,96016
4.34692,96806
4.35627,87693
4.36560,79536
4.37495,68394
4.38428,69011
4.39362,71191
4.40297,71048
4.41230,68139
4.42163,62886
4.43098,60190
4.44032,60905
4.44965,60331
4.45900,59671
4.46833,60269
4.47767,74246
4.48702,88582
4.49635,100784
4.50568,94543
4.51503,80989
4.52437,72143
4.53370,68070
4.54305,68017
4.55238,69456
4.56173,68657
4.57107,69386
4.58040,71515
4.58975,67395
4.59908,63682
4.60842,63086
4.61777,61704
4.62710,62016
4.63643,60861
4.64578,63659
4.65512,71032
4.66445,78879
4.67380,76905
4.68313,70982
4.69247,74689
4.70182,91346
4.71115,110343
4.72048,108287
4.72983,85900
4.73917,72896
4.74852,70727
4.75785,71147
4.76718,69990
4.77653,70051
4.78587,69173
4.79520,68830
4.80455,67670
4.81388,67611
4.82322,69108
4.83257,70567
4.84190,73658
4.85123,73182
4.86058,74572
4.86992,72281
4.87925,84848
4.88860,100120
4.89793,100577
4.90728,93522
4.91662,84881
4.92595,80070
4.93530,76201
4.94463,75231
4.95397,71600
4.96332,68410
4.97265,61534
4.98198,59448
4.99133,61083
5.00067,62511
5.01000,65595
5.01935,69837
5.02868,73787
5.03802,76409
5.04737,77861
5.05670,71461
5.06603,70199
5.07538,69720
5.08472,71969
5.09407,73301
5.10340,73917
5.11273,70303
5.12208,66540
5.13142,63600
5.14075,65532
5.15010,72135
5.15943,82755
5.16877,83513
5.17812,76298
5.18745,78874
5.19678,90572
5.20613,95135
5.21547,89780
5.22480,74135
5.23415,70185
5.24348,74029
5.25282,74880
5.26217,72457
5.27150,83921
5.28085,159616
5.29018,348471
5.29952,529805
5.30887,483151
5.31820,307806
5.32753,182621
5.33688,137891
5.34622,113316
5.35555,94297
5.36490,79547
5.37423,70312
5.38357,70082
5.39292,84802
5.40225,101091
5.41158,101659
5.42093,91665
5.43027,83883
5.43960,70897
5.44895,65702
5.45828,59871
5.46763,60095
5.47697,58705
5.48630,60892
5.49565,59845
5.50498,62819
5.51432,69512
5.52367,72358
5.53300,83502
5.54233,95379
5.55168,93798
5.56102,91322
5.57035,86420
5.57970,82663
5.58903,73772
5.59837,66656
5.60772,64367
5.61705,62396
5.62640,57487
5.63573,57989
5.64507,57873
5.65442,60776
5.66375,66979
5.67308,81502
5.68243,94798
5.69177,89784
5.70110,78494
5.71045,76368
5.71978,84046
5.72912,86376
5.73847,79747
5.74780,89168
5.75713,112480
5.76648,150635
5.77582,165230
5.78515,137878
5.79450,101025
5.80383,74362
5.81318,65193
5.82252,63424
5.83185,72157
5.84120,82411
5.85053,84717
5.85987,75452
5.86922,69443
5.87855,64621
5.88788,57047
5.89723,50793
5.90657,55396
5.91590,85850
5.92525,168542
5.93458,249086
5.94392,252069
5.95327,228028
5.96260,193975
5.97193,147856
5.98128,101053
5.99062,75960
5.99997,66225
6.00930,57590
6.01863,54358
6.02798,47535
6.03732,42758
6.04665,41944
6.05600,40271
6.06533,40580
6.07467,44440
6.08402,44636
6.09335,39464
6.10268,34524
6.11203,33198
6.12137,35872
6.13070,41707
6.14005,51744
6.14938,55621
6.15872,47891
6.16807,40076
6.17740,33572
6.18675,32624
6.19608,31445
6.20542,31108
6.21477,31017
6.22410,33981
6.23343,41010
6.24278,50246
6.25212,49908
6.26145,42479
6.27080,44896
6.28013,62973
6.28947,74085
6.29882,59531
6.30815,45485
6.31748,34423
6.32683,28983
6.33617,27787
6.34550,29635
6.35485,30292
6.36418,31378
6.37353,34559
6.38287,41719
6.39220,77037
6.40155,248337
6.41088,929028
6.42022,2037996
6.42957,2300327
6.43890,1424550
6.44823,538307
6.45758,166142
6.46692,75304
6.47625,54731
6.48560,44556
6.49493,41108
6.50427,37388
6.51362,35140
6.52295,36260
6.53230,36493
6.54163,34899
6.55097,30118
6.56032,30194
6.56965,28832
6.57898,33962
6.58833,36990
6.59767,39168
6.60700,42800
6.61635,42592
6.62568,42274
6.63502,42163
6.64437,43394
6.65370,43778
6.66303,45453
6.67238,44653
6.68172,41845
6.69105,46552
6.70040,58987
6.70973,61224
6.71908,58898
6.72842,50426
6.73775,42390
6.74710,38274
6.75643,34474
6.76577,32252
6.77512,32332
6.78445,37754
6.79378,45018
6.80313,48998
6.81247,52884
6.82180,48561
6.83115,40883
6.84048,35984
6.84982,39096
6.85917,42189
6.86850,40288
6.87783,36138
6.88718,33357
6.89652,32385
6.90587,32909
6.91520,34646
6.92453,36973
6.93388,35380
6.94322,34094
6.95255,35423
6.96190,34499
6.97123,36949
6.98057,38792
6.98992,38308
6.99925,35651
7.00858,33179
7.01793,32375
7.02727,33086
7.03660,30545
7.04595,27568
7.05528,27011
7.06462,25978
7.07397,26590
7.08330,29381
7.09265,33973
7.10198,37572
7.11132,43578
7.12067,46270
7.13000,44229
7.13933,39234
7.14868,35075
7.15802,33578
7.16735,30677
7.17670,31424
7.18603,30247
7.19537,30821
7.20472,32502
7.21405,34832
7.22338,42223
7.23273,53436
7.24207,85148
7.25142,121593
7.26075,119376
7.27008,80172
7.27943,58270
7.28877,51071
7.29810,46395
7.30745,43533
7.31678,38060
7.32612,31077
7.33547,29781
7.34480,28350
7.35413,28339
7.36348,27127
7.37282,27387
7.38215,29068
7.39150,37790
7.40083,74869
7.41017,159388
7.41952,236822
7.42885,229756
7.43820,160398
7.44753,90584
7.45687,49509
7.46622,36941
7.47555,34483
7.48488,40589
7.49423,45288
7.50357,44526
7.51290,39972
7.52225,32964
7.53158,30650
7.54092,29159
7.55027,27995
7.55960,29492
7.56893,33702
7.57828,42589
7.58762,46864
7.59695,49458
7.60630,50688
7.61563,52153
7.62498,51827
7.63432,51278
7.64365,46227
7.65300,39882
7.66233,37598
7.67167,38634
7.68102,39375
7.69035,41480
7.69968,38297
7.70903,37358
7.71837,40951
7.72770,40594
7.73705,39045
7.74638,44565
7.75572,50951
7.76507,55315
7.77440,49546
7.78373,44337
7.79308,44869
7.80242,48393
7.81177,41044
7.82110,35086
7.83043,31475
7.83978,31469
7.84912,36897
7.85845,53516
7.86780,98515
7.87713,148986
7.88647,160794
7.89582,115332
7.90515,71046
7.91448,63230
7.92383,91848
7.93317,117404
7.94250,103176
7.95185,110924
7.96118,136019
7.97052,129759
7.97987,124332
7.98920,155136
7.99855,169886
8.00788,141426
8.01722,93366
8.02657,66005
8.03590,58845
8.04523,62689
8.05458,74847
8.06392,71173
8.07325,53973
8.08260,47555
8.09193,64115
8.10127,104682
8.11062,120292
8.11995,89644
8.12928,61035
8.13863,47298
8.14797,42438
8.15730,39900
8.16665,39066
8.17598,40388
8.18533,38959
8.19467,39338
8.20400,38430
8.21335,38903
8.22268,38680
8.23202,41776
8.24137,45115
8.25070,47549
8.26003,49176
8.26938,46054
8.27872,42041
8.28805,39032
8.29740,38220
8.30673,42371
8.31607,41189
8.32542,40025
8.33475,39782
8.34410,41305
8.35343,38021
8.36277,35136
8.37212,34734
8.38145,46736
8.39078,60479
8.40013,62630
8.40947,65100
8.41880,65674
8.42815,64699
8.43748,59258
8.44682,53344
8.45617,46855
8.46550,43695
8.47483,46072
8.48418,46739
8.49352,43234
8.50285,43297
8.51220,44727
8.52153,42726
8.53088,39962
8.54022,40853
8.54955,45702
8.55890,54826
8.56823,68096
8.57757,68658
8.58692,59878
8.59625,53245
8.60558,51042
8.61493,48015
8.62427,47199
8.63360,43687
8.64295,41621
8.65228,40492
8.66162,39575
8.67097,40989
8.68030,41704
8.68963,42467
8.69898,44371
8.70832,46266
8.71767,45168
8.72700,39423
8.73633,38990
8.74568,47680
8.75502,66655
8.76435,92162
8.77370,87694
8.78303,64306
8.79237,55495
8.80172,66474
8.81105,114339
8.82038,164962
8.82973,157666
8.83907,102106
8.84840,60973
8.85775,45088
8.86708,46443
8.87642,49045
8.88577,54152
8.89510,52783
8.90445,50216
8.91378,48429
8.92312,48466
8.93247,50261
8.94180,53609
8.95113,49756
8.96048,43995
8.96982,41708
8.97915,46046
8.98850,47819
8.99783,50438
9.00717,52193
9.01652,57922
9.02585,56637
9.03518,50124
9.04453,48311
9.05387,47253
9.06322,52045
9.07255,58051
9.08188,71383
9.09123,84443
9.10057,95887
9.10990,88015
9.11925,73737
9.12858,91985
9.13792,161576
9.14727,226064
9.15660,202344
9.16593,118162
9.17528,64506
9.18462,51891
9.19395,48221
9.20330,47733
9.21263,56092
9.22197,76891
9.23132,137837
9.24065,200508
9.25000,212111
9.25933,157702
9.26867,99891
9.27802,69273
9.28735,61729
9.29668,61324
9.30603,55654
9.31537,56872
9.32470,65765
9.33405,97567
9.34338,131915
9.35272,119393
9.36207,115281
9.37140,209061
9.38073,340018
9.39008,363094
9.39942,252745
9.40875,146971
9.41810,97338
9.42743,81523
9.43678,80415
9.44612,70486
9.45545,56394
9.46480,48042
9.47413,43789
9.48347,40019
9.49282,46449
9.50215,56562
9.51148,64933
9.52083,62078
9.53017,55780
9.53950,55836
9.54885,60688
9.55818,76075
9.56752,114394
9.57687,147152
9.58620,126816
9.59553,89529
9.60488,82458
9.61422,93677
9.62357,94955
9.63290,84756
9.64223,77385
9.65158,69818
9.66092,62388
9.67025,57099
9.67960,51543
9.68893,53993
9.69827,53470
9.70762,49549
9.71695,48468
9.72628,72927
9.73563,258881
9.74497,815698
9.75430,1463855
9.76365,1419730
9.77298,836395
9.78232,373412
9.79167,191006
9.80100,130931
9.81035,106201
9.81968,94461
9.82902,104981
9.83837,126519
9.84770,171436
9.85703,204588
9.86638,184851
9.87572,129464
9.88505,105749
9.89440,123527
9.90373,147185
9.91307,211682
9.92242,373371
9.93175,462106
9.94108,346848
9.95043,187419
9.95977,97285
9.96912,73399
9.97845,94717
9.98778,206376
9.99713,386985
10.00647,435524
10.01580,292037
10.02515,143614
10.03448,84208
10.04382,69461
10.05317,64140
10.06250,69009
10.07183,75995
10.08118,86603
10.09052,89858
10.09985,87560
10.10920,89416
10.11853,215472
10.12787,714121
10.13722,1506258
10.14655,1750822
10.15590,1620440
10.16523,2873690
10.17457,5425479
10.18392,5896982
10.19325,3174290
10.20258,829629
10.21193,169118
10.22127,87848
10.23060,86328
10.23995,108322
10.24928,154040
10.25862,168389
10.26797,130631
10.27730,88200
10.28663,71788
10.29598,63955
10.30532,64530
10.31465,64170
10.32400,58285
10.33333,55258
10.34268,52760
10.35202,54679
10.36135,52855
10.37070,55919
10.38003,53163
10.38937,50268
10.39872,46360
10.40805,47299
10.41738,44954
10.42673,46284
10.43607,50568
10.44540,52578
10.45475,53763
10.46408,70164
10.47342,94015
10.48277,97861
10.49210,81753
10.50143,59571
10.51078,51150
10.52012,50068
10.52947,44654
10.53880,46361
10.54813,47318
10.55748,52944
10.56682,52433
10.57615,51511
10.58550,53280
10.59483,52034
10.60417,49727
10.61352,48928
10.62285,46192
10.63218,54014
10.64153,64977
10.65087,75852
10.66020,63318
10.66955,52370
10.67888,55098
10.68823,63131
10.69757,68292
10.70690,61050
10.71625,62940
10.72558,77001
10.73492,84305
10.74427,73663
10.75360,74120
10.76293,110756
10.77228,164594
10.78162,173320
10.79095,134350
10.80030,120170
10.80963,165011
10.81897,210854
10.82832,196997
10.83765,139345
10.84698,91073
10.85633,66350
10.86567,54079
10.87502,62903
10.88435,83381
10.89368,104362
10.90303,95958
10.91237,74540
10.92170,61774
10.93105,64121
10.94038,68992
10.94972,65767
10.95907,57609
10.96840,49947
10.97773,50819
10.98708,49608
10.99642,47630
11.00575,49319
11.01510,47094
11.02443,45433
11.03377,45715
11.04312,46209
11.05245,46052
11.06180,44956
11.07113,44472
11.08047,44000
11.08982,44859
11.09915,46482
11.10848,63014
11.11783,86845
11.12717,96633
11.13650,84429
11.14585,72054
11.15518,65934
11.16452,59253
11.17387,51820
11.18320,50532
11.19253,49056
11.20188,47512
11.21122,45541
11.22055,48476
11.22990,51293
11.23923,50354
11.24858,51794
11.25792,50139
11.26725,57172
11.27660,63030
11.28593,59951
11.29527,52872
11.30462,48008
11.31395,48353
11.32328,48229
11.33263,53600
11.34197,69362
11.35130,96035
11.36065,116785
11.36998,128039
11.37932,116079
11.38867,91703
11.39800,71507
11.40733,71764
11.41668,79459
11.42602,76036
11.43537,66832
11.44470,56213
11.45403,52828
11.46338,59092
11.47272,76502
11.48205,95586
11.49140,93695
11.50073,68783
11.51007,55059
11.51942,49149
11.52875,49440
11.53808,49113
11.54743,50049
11.55677,56531
11.56610,77708
11.57545,139430
11.58478,215159
11.59412,229516
11.60347,176980
11.61280,128195
11.62215,101234
11.63148,96937
11.64082,96528
11.65017,92928
11.65950,88757
11.66883,88791
11.67818,83569
11.68752,78742
11.69685,69591
11.70620,61102
11.71553,60841
11.72487,61204
11.73422,55626
11.74355,55957
11.75288,56045
11.76223,57967
11.77157,61143
11.78092,67044
11.79025,72759
11.79958,77812
11.80893,74894
11.81827,64749
11.82760,59261
11.83695,60037
11.84628,63389
11.85562,62700
11.86497,63624
11.87430,63527
11.88363,68783
11.89298,69198
11.90232,64464
11.91165,62836
11.92100,59975
11.93033,55506
11.93967,64306
11.94902,79312
11.95835,91735
11.96770,88112
11.97703,68548
11.98637,58714
11.99572,57729
12.00505,60710
12.01438,82520
12.02373,111187
12.03307,120662
12.04240,104094
12.05175,85626
12.06108,68730
12.07042,62599
12.07977,57087
12.08910,55777
12.09843,61680
12.10778,64241
12.11712,64566
12.12645,58737
12.13580,58958
12.14513,62530
12.15448,65240
12.16382,70789
12.17315,102372
12.18250,199384
12.19183,269705
12.20117,219326
12.21052,115458
12.21985,72034
12.22918,72907
12.23853,91022
12.24787,101112
12.25720,88170
12.26655,89848
12.27588,159529
12.28522,347492
12.29457,434931
12.30390,315052
12.31323,154234
12.32258,85156
12.33192,69562
12.34127,71720
12.35060,84720
12.35993,83316
12.36928,73054
12.37862,63604
12.38795,68101
12.39730,81398
12.40663,100361
12.41597,103918
12.42532,97637
12.43465,86508
12.44398,77380
12.45333,68852
12.46267,71573
12.47200,78746
12.48135,87837
12.49068,88070
12.50003,86933
12.50937,89039
12.51870,89707
12.52805,87381
12.53738,88946
12.54672,84682
12.55607,79078
12.56540,79775
12.57473,93900
12.58408,108650
12.59342,108007
12.60275,96474
12.61210,84640
12.62143,79937
12.63077,82448
12.64012,89466
12.64945,104738
12.65878,112630
12.66813,100125
12.67747,85476
12.68682,73286
12.69615,64943
12.70548,60890
12.71483,61261
12.72417,70736
12.73350,78356
12.74285,75925
12.75218,76462
12.76152,84200
12.77087,86629
12.78020,77167
12.78953,67771
12.79888,59791
12.80822,60232
12.81755,61529
12.82690,63794
12.83623,65661
12.84557,70538
12.85492,65532
12.86425,58722
12.87360,61021
12.88293,59966
12.89227,63197
12.90162,67875
12.91095,69836
12.92028,63296
12.92963,58625
12.93897,58304
12.94830,63356
12.95765,69933
12.96698,67986
12.97632,63381
12.98567,57900
12.99500,53894
13.00433,57753
13.01368,56111
13.02302,58624
13.03235,66768
13.04170,89669
13.05103,92887
13.06038,83171
13.06972,73664
13.07905,85684
13.08840,92548
13.09773,82920
13.10707,75946
13.11642,71251
13.12575,67569
13.13508,70417
13.14443,79373
13.15377,86194
13.16310,78038
13.17245,70337
13.18178,71378
13.19112,99017
13.20047,283393
13.20980,986840
13.21913,2196204
13.22848,2656643
13.23782,1743807
13.24717,688512
13.25650,294262
13.26583,221608
13.27518,161298
13.28452,123209
13.29385,116785
13.30320,123708
13.31253,125668
13.32187,122473
13.33122,125593
13.34055,119933
13.34988,108623
13.35923,106757
13.36857,102185
13.37790,89990
13.38725,79061
13.39658,86948
13.40593,108298
13.41527,122284
13.42460,101767
13.43395,79228
13.44328,88306
13.45262,101748
13.46197,101910
13.47130,89580
13.48063,86868
13.48998,83705
13.49932,79181
13.50865,72268
13.51800,77618
13.52733,141844
13.53667,241808
13.54602,267343
13.55535,176067
13.56468,96756
13.57403,69213
13.58337,60984
13.59272,60369
13.60205,57498
13.61138,60131
13.62073,57744
13.63007,56898
13.63940,60639
13.64875,63297
13.65808,64345
13.66742,67926
13.67677,66088
13.68610,59673
13.69543,58758
13.70478,56843
13.71412,56618
13.72345,56698
13.73280,55169
13.74213,52119
13.75147,50983
13.76082,55688
13.77015,58336
13.77950,59733
13.78883,58667
13.79817,58926
13.80752,70490
13.81685,76205
13.82618,79017
13.83553,67746
13.84487,56476
13.85420,54994
13.86355,58186
13.87288,64222
13.88222,68892
13.89157,79642
13.90090,106924
13.91023,178799
13.91958,359911
13.92892,572718
13.93825,555951
13.94760,309676
13.95693,146014
13.96628,104828
13.97562,94336
13.98495,79162
13.99430,70278
14.00363,66083
14.01297,66766
14.02232,66702
14.03165,62475
14.04098,64903
14.05033,145723
14.05967,836711
14.06900,3670894
14.07835,9129052
14.08768,1.370096E+07
14.09702,1.131827E+07
14.10637,4135120
14.11570,686077
14.12505,126994
14.13438,83987
14.14372,74697
14.15307,78678
14.16240,84561
14.17173,95968
14.18108,105351
14.19042,126227
14.19975,196714
14.20910,257547
14.21843,213774
14.22777,119045
14.23712,70164
14.24645,54606
14.25578,49403
14.26513,55794
14.27447,64598
14.28380,74296
14.29315,70039
14.30248,60244
14.31183,59356
14.32117,72588
14.33050,104075
14.33985,144595
14.34918,140597
14.35852,109805
14.36787,80320
14.37720,69132
14.38653,62061
14.39588,62111
14.40522,63393
14.41455,60753
14.42390,58131
14.43323,54144
14.44257,61402
14.45192,85927
14.46125,142107
14.47058,215350
14.47993,243048
14.48927,191264
14.49862,125793
14.50795,77092
14.51728,61423
14.52663,53038
14.53597,49806
14.54530,54227
14.55465,61395
14.56398,65133
14.57332,71040
14.58267,69528
14.59200,65869
14.60133,59916
14.61068,58715
14.62002,56149
14.62935,57111
14.63870,63860
14.64803,88963
14.65737,131200
14.66672,156664
14.67605,137517
14.68540,103396
14.69473,73019
14.70407,63150
14.71342,57888
14.72275,53860
14.73208,56179
14.74143,61489
14.75077,60016
14.76010,63172
14.76945,63484
14.77878,71059
14.78812,85515
14.79747,107219
14.80680,137608
14.81613,143858
14.82548,116740
14.83482,85273
14.84415,67380
14.85350,59125
14.86283,57539
14.87218,74942
14.88152,106207
14.89085,120017
14.90020,101388
14.90953,76680
14.91887,62102
14.92822,59683
14.93755,61484
14.94688,63016
14.95623,63077
14.96557,69102
14.97490,85231
14.98425,97980
14.99358,91408
15.00292,83274
15.01227,84152
15.02160,97206
15.03093,93906
15.04028,83990
15.04962,84786
15.05897,94943
15.06830,100808
15.07763,105946
15.08698,108685
15.09632,86686
15.10565,66255
15.11500,63684
15.12433,67477
15.13367,86799
15.14302,118235
15.15235,114568
15.16168,88777
15.17103,68077
15.18037,61075
15.18970,65591
15.19905,81703
15.20838,113245
15.21773,170292
15.22707,243405
15.23640,270797
15.24575,229585
15.25508,157697
15.26442,105564
15.27377,77228
15.28310,70567
15.29243,69857
15.30178,70290
15.31112,68327
15.32045,64269
15.32980,67474
15.33913,74228
15.34847,83504
15.35782,78899
15.36715,75066
15.37648,90023
15.38583,105227
15.39517,99107
15.40452,69747
15.41385,59234
15.42318,59830
15.43253,70931
15.44187,74415
15.45120,68843
15.46055,62306
15.46988,60545
15.47922,60117
15.48857,61998
15.49790,65971
15.50723,78932
15.51658,117169
15.52592,187533
15.53525,219913
15.54460,171816
15.55393,107264
15.56327,73598
15.57262,56027
15.58195,57864
15.59130,57277
15.60063,56125
15.60997,63081
15.61932,66695
15.62865,72727
15.63798,86973
15.64733,95663
15.65667,101027
15.66600,111975
15.67535,119707
15.68468,109153
15.69402,82979
15.70337,82305
15.71270,107574
15.72203,116201
15.73138,98017
15.74072,76136
15.75005,77216
15.75940,103283
15.76873,125420
15.77808,118479
15.78742,101939
15.79675,83126
15.80610,76346
15.81543,112133
15.82477,210406
15.83412,385228
15.84345,565033
15.85278,644678
15.86213,539261
15.87147,295552
15.88080,149125
15.89015,127357
15.89948,140741
15.90882,158801
15.91817,147971
15.92750,121484
15.93685,91679
15.94618,72995
15.95552,64470
15.96487,64219
15.97420,71903
15.98353,98229
15.99288,143216
16.00222,190669
16.01155,185248
16.02090,129353
16.03023,84919
16.03957,66166
16.04892,64247
16.05825,69039
16.06758,69795
16.07693,73276
16.08627,72280
16.09560,65932
16.10495,63671
16.11428,71319
16.12363,82463
16.13297,93909
16.14230,90073
16.15165,76385
16.16098,67921
16.17032,69925
16.17967,67445
16.18900,63874
16.19833,63117
16.20768,73298
16.21702,90128
16.22635,107540
16.23570,112415
16.24503,105783
16.25437,87701
16.26372,77790
16.27305,90320
16.28238,157162
16.29173,427819
16.30107,1034573
16.31042,1524494
16.31975,1263223
16.32908,603056
16.33843,203553
16.34777,87199
16.35710,63801
16.36645,56799
16.37578,53695
16.38512,50469
16.39447,51459
16.40380,55472
16.41313,59443
16.42248,63613
16.43182,63979
16.44115,63209
16.45050,65791
16.45983,79643
16.46917,98786
16.47852,101894
16.48785,86162
16.49720,80767
16.50653,72576
16.51587,74023
16.52522,75071
16.53455,82088
16.54388,75008
16.55323,68306
16.56257,66140
16.57190,59806
16.58125,63615
16.59058,72852
16.59992,79255
16.60927,68911
16.61860,63788
16.62793,72522
16.63728,90804
16.64662,97879
16.65595,93065
16.66530,86049
16.67463,70765
16.68398,65012
16.69332,71402
16.70265,86012
16.71200,98489
16.72133,91161
16.73067,75982
16.74002,70162
16.74935,106328
16.75868,184195
16.76803,216607
16.77737,159703
16.78670,94693
16.79605,67234
16.80538,64295
16.81472,73859
16.82407,79375
16.83340,89330
16.84275,98636
16.85208,109977
16.86142,99482
16.87077,79817
16.88010,68370
16.88943,64035
16.89878,64479
16.90812,70836
16.91745,94268
16.92680,123451
16.93613,126175
16.94547,97460
16.95482,88682
16.96415,97955
16.97348,106267
16.98283,102739
16.99217,89931
17.00150,79701
17.01085,71123
17.02018,67483
17.02953,81397
17.03887,123074
17.04820,166406
17.05755,144286
17.06688,106495
17.07622,91304
17.08557,85669
17.09490,81219
17.10423,79928
17.11358,73741
17.12292,65134
17.13225,64196
17.14160,68783
17.15093,79805
17.16027,74369
17.16962,64099
17.17895,61735
17.18828,64190
17.19763,64280
17.20697,62019
17.21632,59417
17.22565,55085
17.23498,55265
17.24433,57458
17.25367,58206
17.26300,61702
17.27235,64694
17.28168,73339
17.29102,82718
17.30037,91437
17.30970,85919
17.31903,85124
17.32838,88520
17.33772,89463
17.34705,87156
17.35640,73919
17.36573,67557
17.37507,78449
17.38442,147812
17.39375,302648
17.40310,372862
17.41243,288096
17.42177,166852
17.43112,115931
17.44045,92203
17.44978,83226
17.45913,80072
17.46847,81325
17.47780,76448
17.48715,80221
17.49648,161267
17.50582,701527
17.51517,2441004
17.52450,4758714
17.53383,4904500
17.54318,2464722
17.55252,619138
17.56187,137262
17.57120,83238
17.58053,87468
17.58988,98684
17.59922,103147
17.60855,95048
17.61790,82484
17.62723,74091
17.63657,75533
17.64592,76478
17.65525,81300
17.66458,92042
17.67393,110659
17.68327,126525
17.69260,137392
17.70195,141838
17.71128,136930
17.72062,121408
17.72997,107414
17.73930,90638
17.74865,88092
17.75798,96947
17.76732,105955
17.77667,112234
17.78600,113230
17.79533,96767
17.80468,89714
17.81402,82129
17.82335,73033
17.83270,67654
17.84203,69562
17.85137,74661
17.86072,91632
17.87005,115556
17.87938,124439
17.88873,110446
17.89807,100868
17.90740,97131
17.91675,83158
17.92608,79630
17.93543,79888
17.94477,86207
17.95410,85271
17.96345,76001
17.97278,68104
17.98212,62759
17.99147,65161
18.00080,64909
18.01013,67944
18.01948,73744
18.02882,75629
18.03815,76042
18.04750,82537
18.05683,92108
18.06617,103533
18.07552,98572
18.08485,86774
18.09418,73860
18.10353,73161
18.11287,86247
18.12222,103334
18.13155,108911
18.14088,98980
18.15023,98909
18.15957,95365
18.16890,91857
18.17825,85400
18.18758,83388
18.19692,78784
18.20627,74697
18.21560,71437
18.22493,74780
18.23428,75219
18.24362,80694
18.25295,73670
18.26230,69594
18.27163,65771
18.28097,69204
18.29032,85823
18.29965,100488
18.30900,111251
18.31833,118935
18.32767,107466
18.33702,101080
18.34635,104461
18.35568,123178
18.36503,142354
18.37437,150715
18.38370,134069
18.39305,130233
18.40238,154025
18.41172,202116
18.42107,228870
18.43040,177701
18.43973,120143
18.44908,106574
18.45842,116020
18.46775,110826
18.47710,100188
18.48643,91479
18.49578,100024
18.50512,135128
18.51445,186215
18.52380,206627
18.53313,180311
18.54247,139678
18.55182,113843
18.56115,119556
18.57048,125587
18.57983,108105
18.58917,92927
18.59850,78937
18.60785,83175
18.61718,101321
18.62652,124393
18.63587,128212
18.64520,120451
18.65455,108632
18.66388,109303
18.67322,117105
18.68257,133983
18.69190,132908
18.70123,116889
18.71058,120841
18.71992,132510
18.72925,140040
18.73860,129147
18.74793,114687
18.75727,105019
18.76662,93419
18.77595,84240
18.78528,74596
18.79463,72459
18.80397,73903
18.81330,79837
18.82265,85348
18.83198,84945
18.84133,82536
18.85067,82009
18.86000,80982
18.86935,77929
18.87868,81086
18.88802,79078
18.89737,78763
18.90670,77552
18.91603,98364
18.92538,124508
18.93472,127196
18.94405,116923
18.95340,113747
18.96273,129646
18.97207,149842
18.98142,151479
18.99075,131184
19.00008,106360
19.00943,92781
19.01877,85126
19.02812,85993
19.03745,87441
19.04678,103032
19.05613,149676
19.06547,217162
19.07480,263042
19.08415,329489
19.09348,408037
19.10282,389562
19.11217,274285
19.12150,165715
19.13083,109999
19.14018,86345
19.14952,76230
19.15885,74212
19.16820,70095
19.17753,67565
19.18687,69770
19.19622,80360
19.20555,91462
19.21490,96282
19.22423,102368
19.23357,106800
19.24292,102629
19.25225,97130
19.26158,87064
19.27093,79728
19.28027,84063
19.28960,98166
19.29895,113580
19.30828,133578
19.31762,187037
19.32697,227062
19.33630,204702
19.34563,149456
19.35498,109230
19.36432,86952
19.37367,77396
19.38300,71612
19.39233,72918
19.40168,74808
19.41102,79544
19.42035,83332
19.42970,81681
19.43903,74067
19.44837,74293
19.45772,72053
19.46705,73485
19.47638,75452
19.48573,86004
19.49507,94297
19.50440,100689
19.51375,94579
19.52308,82150
19.53242,78874
19.54177,81608
19.55110,81565
19.56045,73858
19.56978,76199
19.57912,85642
19.58847,95551
19.59780,100146
19.60713,97148
19.61648,87790
19.62582,79944
19.63515,84470
19.64450,102892
19.65383,105810
19.66317,97597
19.67252,82909
19.68185,78843
19.69118,93183
19.70053,113553
19.70987,123765
19.71920,125402
19.72855,131051
19.73788,158424
19.74723,176685
19.75657,152910
19.76590,115059
19.77525,97575
19.78458,100132
19.79392,103516
19.80327,100466
19.81260,92065
19.82193,86885
19.83128,83570
19.84062,87584
19.84995,83667
19.85930,78081
19.86863,82460
19.87797,101010
19.88732,137970
19.89665,155069
19.90598,121216
19.91533,97679
19.92467,91394
19.93402,87536
19.94335,86453
19.95268,88139
19.96203,92748
19.97137,95607
19.98070,95077
19.99005,88558
19.99938,81281
20.00872,75081
20.01807,80135
20.02740,82940
20.03673,88939
20.04608,95406
20.05542,99357
20.06475,95336
20.07410,86307
20.08343,83823
20.09277,89199
20.10212,89017
20.11145,81969
20.12080,74212
20.13013,73344
20.13947,70357
20.14882,78529
20.15815,97616
20.16748,111346
20.17683,113352
20.18617,99483
20.19550,88367
20.20485,79523
20.21418,77997
20.22352,85757
20.23287,87375
20.24220,88556
20.25153,86952
20.26088,84173
20.27022,78900
20.27955,72831
20.28890,78487
20.29823,83146
20.30758,91268
20.31692,88514
20.32625,77411
20.33560,70717
20.34493,68091
20.35427,69593
20.36362,76731
20.37295,80588
20.38228,81210
20.39163,79643
20.40097,75945
20.41030,70778
20.41965,66255
20.42898,67371
20.43832,72675
20.44767,73146
20.45700,74350
20.46635,79734
20.47568,96332
20.48502,116625
20.49437,113320
20.50370,91493
20.51303,77592
20.52238,75122
20.53172,75922
20.54105,75601
20.55040,80485
20.55973,88531
20.56907,134415
20.57842,273656
20.58775,499811
20.59708,537037
20.60643,336969
20.61577,159598
20.62510,103759
20.63445,113966
20.64378,176968
20.65313,276713
20.66247,296735
20.67180,210025
20.68115,134476
20.69048,106710
20.69982,97552
20.70917,90963
20.71850,88937
20.72783,91509
20.73718,91554
20.74652,87262
20.75585,85317
20.76520,86814
20.77453,81864
20.78387,81379
20.79322,82801
20.80255,94121
20.81188,101655
20.82123,95048
20.83057,92217
20.83992,80362
20.84925,75225
20.85858,74962
20.86793,71751
20.87727,74874
20.88660,71578
20.89595,78589
20.90528,81404
20.91462,84189
20.92397,82605
20.93330,79404
20.94263,76768
20.95198,72475
20.96132,68619
20.97065,67235
20.98000,68084
20.98933,71713
20.99867,68536
21.00802,71176
21.01735,74004
21.02670,74734
21.03603,71666
21.04537,70258
21.05472,73061
21.06405,75940
21.07338,76744
21.08273,77194
21.09207,73408
21.10140,75362
21.11075,79526
21.12008,82589
21.12942,83588
21.13877,87768
21.14810,89160
21.15743,89819
21.16678,84082
21.17612,84080
21.18547,95044
21.19480,107727
21.20413,103242
21.21348,90652
21.22282,81182
21.23215,79252
21.24150,79020
21.25083,78376
21.26017,75902
21.26952,82378
21.27885,103289
21.28818,139008
21.29753,175360
21.30687,172089
21.31620,139418
21.32555,101899
21.33488,86544
21.34422,79524
21.35357,79434
21.36290,79526
21.37225,79626
21.38158,81472
21.39092,82855
21.40027,84853
21.40960,87362
21.41893,91709
21.42828,92406
21.43762,89298
21.44695,87960
21.45630,83481
21.46563,81356
21.47497,78667
21.48432,82583
21.49365,88039
21.50298,92488
21.51233,87296
21.52167,87836
21.53100,83123
21.54035,79157
21.54968,81782
21.55903,87351
21.56837,108965
21.57770,140919
21.58705,166171
21.59638,150993
21.60572,114479
21.61507,93207
21.62440,88708
21.63373,85604
21.64308,89676
21.65242,87086
21.66175,82671
21.67110,84117
21.68043,91261
21.68977,108045
21.69912,123367
21.70845,129746
21.71778,120959
21.72713,110580
21.73647,103512
21.74582,95909
21.75515,85311
21.76448,81404
21.77383,77959
21.78317,79316
21.79250,77484
21.80185,84792
21.81118,88804
21.82052,96981
21.82987,103984
21.83920,103046
21.84853,94101
21.85788,88124
21.86722,83197
21.87655,84245
21.88590,93939
21.89523,104893
21.90457,113027
21.91392,106749
21.92325,94054
21.93260,86395
21.94193,81523
21.95127,81521
21.96062,81751
21.96995,92616
21.97928,102180
21.98863,116962
21.99797,132919
22.00730,133585
22.01665,124069
22.02598,98208
22.03532,88821
22.04467,90390
22.05400,106379
22.06333,110328
22.07268,102597
22.08202,102250
22.09137,99944
22.10070,91997
22.11003,90439
22.11938,87692
22.12872,84166
22.13805,83561
22.14740,81580
22.15673,89609
22.16607,107030
22.17542,137080
22.18475,151007
22.19408,134970
22.20343,113358
22.21277,100319
22.22210,96126
22.23145,105339
22.24078,112462
22.25012,105827
22.25947,100151
22.26880,94673
22.27815,110424
22.28748,133165
22.29682,156028
22.30617,156396
22.31550,141423
22.32483,112203
22.33418,95749
22.34352,88963
22.35285,102403
22.36220,115273
22.37153,128508
22.38087,135026
22.39022,140544
22.39955,131155
22.40888,113673
22.41823,99333
22.42757,98625
22.43690,107521
22.44625,116698
22.45558,119389
22.46493,110992
22.47427,104078
22.48360,99339
22.49295,96118
22.50228,88776
22.51162,89344
22.52097,91570
22.53030,89179
22.53963,89449
22.54898,89337
22.55832,88104
22.56765,95003
22.57700,105292
22.58633,121315
22.59567,126708
22.60502,124731
22.61435,123500
22.62368,126648
22.63303,120411
22.64237,110408
22.65172,105632
22.66105,95522
22.67038,88996
22.67973,87837
22.68907,99158
22.69840,120801
22.70775,128967
22.71708,114480
22.72642,108439
22.73577,107916
22.74510,120180
22.75443,127434
22.76378,126049
22.77312,122155
22.78245,112475
22.79180,105537
22.80113,114633
22.81048,131051
22.81982,133842
22.82915,127562
22.83850,113277
22.84783,111891
22.85717,105423
22.86652,103985
22.87585,103098
22.88518,109013
22.89453,106477
22.90387,107038
22.91320,102383
22.92255,106560
22.93188,114527
22.94122,118084
22.95057,112932
22.95990,108049
22.96923,102552
22.97858,100291
22.98792,93286
22.99727,87591
23.00660,90685
23.01593,91810
23.02528,84788
23.03462,87126
23.04395,86654
23.05330,91876
23.06263,90350
23.07197,89997
23.08132,89455
23.09065,90552
23.09998,84046
23.10933,85304
23.11867,82520
23.12800,82567
23.13735,84349
23.14668,88439
23.15602,85319
23.16537,87399
23.17470,90584
23.18405,91360
23.19338,90198
23.20272,88101
23.21207,82562
23.22140,83000
23.23073,83845
23.24008,85702
23.24942,95707
23.25875,102242
23.26810,104673
23.27743,106381
23.28677,98050
23.29612,89328
23.30545,90353
23.31478,88092
23.32413,88494
23.33347,101803
23.34280,129774
23.35215,140016
23.36148,122908
23.37083,100907
23.38017,91357
23.38950,92060
23.39885,92125
23.40818,89925
23.41752,93918
23.42687,91337
23.43620,90119
23.44553,85687
23.45488,87367
23.46422,90489
23.47355,88830
23.48290,90638
23.49223,87583
23.50157,81948
23.51092,83829
23.52025,85250
23.52958,86145
23.53893,87881
23.54827,86908
23.55762,86480
23.56695,82569
23.57628,88458
23.58563,89974
23.59497,92271
23.60430,93592
23.61365,93341
23.62298,86488
23.63232,87570
23.64167,85014
23.65100,84055
23.66033,81811
23.66968,85101
23.67902,83648
23.68835,89034
23.69770,95681
23.70703,100766
23.71637,103890
23.72572,106516
23.73505,111364
23.74440,122067
23.75373,117206
23.76307,101805
23.77242,91419
23.78175,87370
23.79108,86003
23.80043,84145
23.80977,84227
23.81910,84143
23.82845,85524
23.83778,85418
23.84712,81165
23.85647,80751
23.86580,83927
23.87513,82900
23.88448,84039
23.89382,86509
23.90317,88398
23.91250,87967
23.92183,88792
23.93118,89643
23.94052,89297
23.94985,89102
23.95920,88924
23.96853,85757
23.97787,84464
23.98722,85553
23.99655,82163
24.00588,86025
24.01523,86324
24.02457,87495
24.03390,89117
24.04325,84313
24.05258,84009
24.06192,83035
24.07127,82416
24.08060,85291
24.08995,86738
24.09928,86920
24.10862,88669
24.11797,86205
24.12730,84604
24.13663,84462
24.14598,89262
24.15532,87098
24.16465,86639
24.17400,85938
24.18333,86581
24.19267,86581
24.20202,89817
24.21135,87010
24.22068,85666
24.23003,85444
24.23937,88246
24.24870,89263
24.25805,91406
24.26738,89526
24.27673,88673
24.28607,88428
24.29540,91759
24.30475,88257
24.31408,85962
24.32342,94391
24.33277,103175
24.34210,102038
24.35143,98585
24.36078,91477
24.37012,91428
24.37945,88492
24.38880,90040
24.39813,93981
24.40747,96113
24.41682,99374
24.42615,92278
24.43548,92859
24.44483,92565
24.45417,88221
24.46352,89393
24.47285,89938
24.48218,89765
24.49153,89022
24.50087,95798
24.51020,90901
24.51955,91016
24.52888,92382
24.53822,93917
24.54757,93402
24.55690,96206
24.56623,97063
24.57558,98320
24.58492,93464
24.59425,93439
24.60360,91579
24.61293,93991
24.62228,102370
24.63162,105634
24.64095,100498
24.65030,96035
24.65963,95155
24.66897,104050
24.67832,107149
24.68765,109193
24.69698,107428
24.70633,104255
24.71567,99730
24.72500,100371
24.73435,101049
24.74368,96697
24.75302,91806
24.76237,92802
24.77170,93221
24.78103,94762
24.79038,90907
24.79972,90064
24.80907,94353
24.81840,93710
24.82773,95849
24.83708,95177
24.84642,94132
24.85575,94099
24.86510,93039
24.87443,96134
24.88377,95572
24.89312,101502
24.90245,97277
24.91178,102954
24.92113,100496
24.93047,99355
24.93980,98611
24.94915,98590
24.95848,103684
24.96782,106207
24.97717,108354
24.98650,110526
24.99585,106723
25.00518,103550
25.01452,107614
25.02387,104600
25.03320,102178
25.04253,100853
25.05188,101455
25.06122,99195
25.07055,100864
25.07990,101840
25.08923,101313
25.09857,102650
25.10792,102147
25.11725,102679
25.12658,100682
25.13593,103468
25.14527,105282
25.15460,115159
25.16395,111672
25.17328,113377
25.18263,106026
25.19197,107195
25.20130,103124
25.21065,108007
25.21998,107144
25.22932,104967
25.23867,105119
25.24800,103518
25.25733,103372
25.26668,105785
25.27602,106873
25.28535,103816
25.29470,107052
25.30403,100700
25.31337,101248
25.32272,116926
25.33205,116767
25.34138,126739
25.35073,128803
25.36007,127073
25.36942,121641
25.37875,116106
25.38808,114041
25.39743,111618
25.40677,112770
25.41610,113899
25.42545,109891
25.43478,107187
25.44412,108422
25.45347,111403
25.46280,109530
25.47213,111816
25.48148,121487
25.49082,135049
25.50015,140037
25.50950,139339
25.51883,133403
25.52818,131425
25.53752,127502
25.54685,124829
25.55620,126663
25.56553,127016
25.57487,124099
25.58422,123534
25.59355,120977
25.60288,123538
25.61223,122015
25.62157,118487
25.63090,118884
25.64025,121017
25.64958,122445
25.65892,127885
25.66827,133421
25.67760,135142
25.68693,130587
25.69628,127643
25.70562,122748
25.71497,125520
25.72430,123593
25.73363,123330
25.74298,125480
25.75232,126923
25.76165,127720
25.77100,125090
25.78033,125334
25.78967,124842
25.79902,124209
25.80835,126478
25.81768,130043
25.82703,136511
25.83637,136860
25.84570,141745
25.85505,142414
25.86438,139915
25.87372,130473
25.88307,128185
25.89240,129304
25.90175,129911
25.91108,132250
25.92042,130694
25.92977,133382
25.93910,133294
25.94843,139604
25.95778,144081
25.96712,150811
25.97645,148060
25.98580,142976
25.99513,137474
26.00447,136731
26.01382,135716
26.02315,136048
26.03248,139655
26.04183,147749
26.05117,151209
26.06050,153693
26.06985,150668
26.07918,152622
26.08853,152167
26.09787,147461
26.10720,144452
26.11655,142916
26.12588,141423
26.13522,149952
26.14457,154464
26.15390,161924
26.16323,169003
26.17258,165659
26.18192,167981
26.19125,158030
26.20060,149585
26.20993,143405
26.21927,138882
26.22862,141481
26.23795,138810
26.24730,139104
26.25663,139758
26.26597,140578
26.27532,141541
26.28465,144945
26.29398,149070
26.30333,145736
26.31267,148724
26.32200,151326
26.33135,151336
26.34068,153319
26.35002,152287
26.35937,151761
26.36870,152623
26.37803,150307
26.38738,150472
26.39672,152356
26.40605,148014
26.41540,147304
26.42473,146561
26.43408,148464
26.44342,150958
26.45275,157661
26.46210,162680
26.47143,172276
26.48077,171167
26.49012,170441
26.49945,167722
26.50878,175451
26.51813,179178
26.52747,181193
26.53680,190636
26.54615,199227
26.55548,202516
26.56482,202865
26.57417,195652
26.58350,194180
26.59283,192577
26.60218,196810
26.61152,200397
26.62087,208651
26.63020,200188
26.63953,187562
26.64888,182539
26.65822,176068
26.66755,177922
26.67690,184118
26.68623,182830
26.69557,180645
26.70492,171569
26.71425,175700
26.72358,173336
26.73293,170142
26.74227,171167
26.75160,175684
26.76095,176204
26.77028,176759
26.77962,177273
26.78897,182194
26.79830,182119
26.80765,184206
26.81698,181672
26.82632,183295
26.83567,181314
26.84500,183324
26.85433,184170
26.86368,187365
26.87302,184943
26.88235,192748
26.89170,188283
26.90103,184506
26.91037,185939
26.91972,182824
26.92905,181883
26.93838,183357
26.94773,184417
26.95707,186678
26.96640,183070
26.97575,185111
26.98508,186700
26.99443,190330
27.00377,188162
27.01310,189729
27.02245,191610
27.03178,190621
27.04112,189131
27.05047,192888
27.05980,199365
27.06913,196292
27.07848,199352
27.08782,199983
27.09715,201472
27.10650,198445
27.11583,194563
27.12517,197438
27.13452,199051
27.14385,204945
27.15318,201394
27.16253,206225
27.17187,204415
27.18122,201255
27.19055,198542
27.19988,196231
27.20923,195351
27.21857,194106
27.22790,194350
27.23725,200139
27.24658,201877
27.25592,215782
27.26527,219521
27.27460,227284
27.28393,222474
27.29328,207476
27.30262,206269
27.31195,203882
27.32130,204173
27.33063,198975
27.33998,200993
27.34932,204966
27.35865,200523
27.36800,205813
27.37733,206410
27.38667,205226
27.39602,204297
27.40535,208598
27.41468,208045
27.42403,211021
27.43337,217039
27.44270,224895
27.45205,223245
27.46138,224886
27.47072,222395
27.48007,224538
27.48940,220459
27.49873,222756
27.50808,224402
27.51742,230181
27.52677,230142
27.53610,228927
27.54543,229774
27.55478,233727
27.56412,231022
27.57345,227988
27.58280,229686
27.59213,228118
27.60147,227114
27.61082,227460
27.62015,224399
27.62948,222463
27.63883,222765
27.64817,221823
27.65750,226975
27.66685,230164
27.67618,239675
27.68552,238379
27.69487,238851
27.70420,238177
27.71355,239756
27.72288,235362
27.73222,236808
27.74157,238051
27.75090,236395
27.76023,236207
27.76958,238846
27.77892,239303
27.78825,238513
27.79760,240514
27.80693,245406
27.81627,237270
27.82562,239596
27.83495,238133
27.84428,239886
27.85363,245787
27.86297,246355
27.87230,246835
27.88165,241394
27.89098,244497
27.90033,242507
27.90967,247258
27.91900,243474
27.92835,243755
27.93768,248371
27.94702,250024
27.95637,248257
27.96570,251588
27.97503,252235
27.98438,249128
27.99372,252595
28.00305,257469
28.01240,252354
28.02173,247795
28.03107,251435
28.04042,258269
28.04975,253947
28.05910,253439
28.06843,253694
28.07777,257273
28.08712,259484
28.09645,258451
28.10578,262372
28.11513,271433
28.12447,276152
28.13380,278061
28.14315,281284
28.15248,277149
28.16182,280991
28.17117,277211
28.18050,277150
28.18983,277997
28.19918,282550
28.20852,274853
28.21785,279885
28.22720,282221
28.23653,289636
28.24588,288392
28.25522,288095
28.26455,286337
28.27390,289168
28.28323,287616
28.29257,283517
28.30192,284334
28.31125,287626
28.32058,286201
28.32993,291387
28.33927,290953
28.34860,288953
28.35795,287412
28.36728,293120
28.37662,290462
28.38597,300337
28.39530,296784
28.40463,298523
28.41398,297182
28.42332,297470
28.43267,299682
28.44200,299365
28.45133,301602
28.46068,306341
28.47002,309929
28.47935,306266
28.48870,307796
28.49803,303390
28.50737,307564
28.51672,312929
28.52605,313230
28.53538,324658
28.54473,322801
28.55407,325951
28.56340,322756
28.57275,320332
28.58208,335137
28.59142,336132
28.60077,349207
28.61010,353928
28.61945,358828
28.62878,362314
28.63812,360438
28.64747,355630
28.65680,354880
28.66613,364048
28.67548,400515
28.68482,479583
28.69415,533860
28.70350,514869
28.71283,433794
28.72217,375374
28.73152,349156
28.74085,348575
28.75018,350446
28.75953,348537
28.76887,346482
28.77820,344584
28.78755,344414
28.79688,342644
28.80623,346037
28.81557,350927
28.82490,355330
28.83425,351332
28.84358,351881
28.85292,356115
28.86227,354023
28.87160,355100
28.88093,359005
28.89028,364306
28.89962,362490
28.90895,363049
28.91830,365451
28.92763,371871
28.93697,368774
28.94632,371628
28.95565,373398
28.96498,386858
28.97433,388670
28.98367,399886
28.99302,406906
29.00235,391512
29.01168,384422
29.02103,388571
29.03037,388281
29.03970,395283
29.04905,391259
29.05838,387222
29.06772,381921
29.07707,383809
29.08640,378376
29.09573,386158
29.10508,384287
29.11442,379799
29.12375,375147
29.13310,382127
29.14243,379086
29.15178,386872
29.16112,388011
29.17045,383931
29.17980,381016
29.18913,385850
29.19847,389201
29.20782,394010
29.21715,403753
29.22648,403801
29.23583,395571
29.24517,391345
29.25450,394548
29.26385,395311
29.27318,393991
29.28252,392615
29.29187,392872
29.30120,396704
29.31053,398587
29.31988,394836
29.32922,402008
29.33857,392397
29.34790,397066
29.35723,400331
29.36658,394767
29.37592,395215
29.38525,399382
29.39460,389332
29.40393,399656
29.41327,392543
29.42262,397639
29.43195,397116
29.44128,399134
29.45063,404274
29.45997,404435
29.46930,412119
29.47865,411638
29.48798,416476
29.49732,405319
29.50667,401038
29.51600,394963
29.52535,399897
29.53468,393287
29.54402,395696
29.55337,396929
29.56270,392171
29.57203,392267
29.58138,392353
29.59072,397440
29.60005,399302
29.60940,399887
29.61873,398659
29.62807,400787
29.63742,401799
29.64675,396535
29.65608,400454
29.66543,393153
29.67477,397427
29.68410,402256
29.69345,397951
29.70278,403565
29.71213,399174
29.72147,397905
29.73080,407694
29.74015,409248
29.74948,408262
29.75882,409240
29.76817,406357
29.77750,404231
29.78683,405528
29.79618,404295
29.80552,397683
29.81485,396509
29.82420,400796
29.83353,401392
29.84287,397303
29.85222,399293
29.86155,393195
29.87090,401970
29.88023,395567
29.88957,399211
29.89892,405699
29.90825,403320
29.91758,391993
29.92693,398771
29.93627,405498
29.94560,404259
29.95495,405764
29.96428,404994
29.97362,409491
29.98297,405893
29.99230,411501
30.00163,415737
30.01098,418793
30.02032,416172
30.02965,413339
30.03900,404683
30.04833,407905
30.05768,400280
30.06702,400646
30.07635,404380
30.08570,401182
30.09503,393678
30.10437,397275
30.11372,396370
30.12305,400427
30.13238,401426
30.14173,407095
30.15107,401841
30.16040,409207
30.16975,412952
30.17908,417526
30.18842,415250
30.19777,412762
30.20710,418715
30.21643,409634
30.22578,408034
30.23512,411264
30.24447,411232
30.25380,410505
30.26313,404440
30.27248,406221
30.28182,402824
30.29115,403368
30.30050,397932
30.30983,402733
30.31917,405462
30.32852,403514
30.33785,408627
30.34718,407334
30.35653,403511
30.36587,402962
30.37520,404746
30.38455,404793
30.39388,407429
30.40322,421004
30.41257,429053
30.42190,435114
30.43125,424634
30.44058,411857
30.44992,410364
30.45927,407285
30.46860,408264
30.47793,410065
30.48728,413343
30.49662,416917
30.50595,419340
30.51530,419064
30.52463,414588
30.53397,413239
30.54332,407165
30.55265,398513
30.56198,406920
30.57133,406432
30.58067,405727
30.59000,410610
30.59935,411644
30.60868,413499
30.61803,412377
30.62737,413902
30.63670,423152
30.64605,426653
30.65538,438199
30.66472,456678
30.67407,457651
30.68340,449082
30.69273,438876
30.70208,426891
30.71142,421707
30.72075,416488
30.73010,414047
30.73943,417359
30.74877,414812
30.75812,410884
30.76745,410064
30.77680,414736
30.78613,411193
30.79547,422611
30.80482,421960
30.81415,429239
30.82348,421974
30.83283,428575
30.84217,426157
30.85150,424031
30.86085,417071
30.87018,416928
30.87952,414385
30.88887,419088
30.89820,417315
30.90753,414132
30.91688,417074
30.92622,413946
30.93555,414854
30.94490,420395
30.95423,426827
30.96358,418751
30.97292,421467
30.98225,422611
30.99160,420627
31.00093,425709
31.01027,424589
31.01962,421659
31.02895,418517
31.03828,416992
31.04763,413953
31.05697,418712
31.06630,412364
31.07565,418665
31.08498,412691
31.09432,413203
31.10367,410973
31.11300,412832
31.12233,409914
31.13168,410156
31.14102,411886
31.15037,409558
31.15970,416109
31.16903,411379
31.17838,418056
31.18772,410312
31.19705,418641
31.20640,421909
31.21573,413315
31.22507,414162
31.23442,409120
31.24375,416054
31.25308,412127
31.26243,416972
31.27177,410161
31.28110,414598
31.29045,408655
31.29978,412589
31.30912,405749
31.31847,408210
31.32780,411065
31.33715,415166
31.34648,417229
31.35582,416602
31.36517,414567
