D:\数据\20211204\ZS1E-Z-000081.D Sat Dec 04 14:23:39 2021
Start of data points
0.09738,56547
0.10672,62466
0.11607,72388
0.12540,76278
0.13473,79889
0.14408,80714
0.15342,78347
0.16277,75651
0.17210,72227
0.18143,69901
0.19078,72030
0.20012,68109
0.20945,67251
0.21880,65563
0.22813,62890
0.23747,61036
0.24682,60453
0.25615,57900
0.26548,55064
0.27483,54458
0.28417,50960
0.29350,51080
0.30285,51275
0.31218,49245
0.32152,48958
0.33087,48050
0.34020,47222
0.34955,48210
0.35888,45323
0.36822,45966
0.37757,45563
0.38690,45115
0.39623,44642
0.40558,43098
0.41492,42153
0.42425,42689
0.43360,40436
0.44293,37803
0.45227,32674
0.46162,28942
0.47095,22725
0.48028,18859
0.48963,16644
0.49897,17015
0.50832,16760
0.51765,16710
0.52698,16515
0.53633,16103
0.54567,16163
0.55500,14768
0.56435,14199
0.57368,15888
0.58302,14089
0.59237,13140
0.60170,13487
0.61103,12823
0.62038,13086
0.62972,12403
0.63905,13000
0.64840,13299
0.65773,12860
0.66707,12207
0.67642,12221
0.68575,12656
0.69510,13001
0.70443,11636
0.71377,11548
0.72312,12049
0.73245,12032
0.74178,11419
0.75113,12003
0.76047,11229
0.76980,11150
0.77915,11947
0.78848,11541
0.79782,10689
0.80717,11091
0.81650,11592
0.82583,11955
0.83518,11737
0.84452,11220
0.85385,10821
0.86320,11431
0.87253,10533
0.88188,10515
0.89122,10295
0.90055,10841
0.90990,10268
0.91923,10005
0.92857,10110
0.93792,10140
0.94725,10563
0.95658,9990
0.96593,10279
0.97527,10623
0.98460,10028
0.99395,10159
1.00328,10027
1.01262,10141
1.02197,10483
1.03130,10611
1.04063,10275
1.04998,9704
1.05932,9278
1.06867,9983
1.07800,9490
1.08733,9776
1.09668,10106
1.10602,9328
1.11535,9374
1.12470,9885
1.13403,9577
1.14337,9755
1.15272,9527
1.16205,10001
1.17138,10691
1.18073,9866
1.19007,10084
1.19940,9287
1.20875,9591
1.21808,9295
1.22742,9154
1.23677,8676
1.24610,10113
1.25545,9943
1.26478,9252
1.27412,9245
1.28347,9454
1.29280,9993
1.30213,10019
1.31148,10127
1.32082,10368
1.33015,9658
1.33950,8960
1.34883,9298
1.35817,9234
1.36752,9679
1.37685,8817
1.38618,9462
1.39553,9084
1.40487,9014
1.41420,9480
1.42355,8985
1.43288,8916
1.44223,9467
1.45157,9630
1.46090,8807
1.47025,9060
1.47958,9657
1.48892,9597
1.49827,9705
1.50760,8556
1.51693,9678
1.52628,9130
1.53562,9276
1.54495,9385
1.55430,9313
1.56363,9346
1.57297,9113
1.58232,9805
1.59165,8947
1.60100,11059
1.61033,17049
1.61967,25085
1.62902,33133
1.63835,48492
1.64768,98243
1.65703,163133
1.66637,202285
1.67570,195649
1.68505,156407
1.69438,109762
1.70372,69467
1.71307,40570
1.72240,32851
1.73173,34442
1.74108,34443
1.75042,37482
1.75975,41961
1.76910,44585
1.77843,45618
1.78778,46812
1.79712,46983
1.80645,46206
1.81580,46415
1.82513,46847
1.83447,44546
1.84382,44620
1.85315,45033
1.86248,45656
1.87183,59031
1.88117,110727
1.89050,255395
1.89985,442439
1.90918,567739
1.91852,609838
1.92787,652728
1.93720,786578
1.94653,1001515
1.95588,1140239
1.96522,1115184
1.97457,935117
1.98390,740623
1.99323,565509
2.00258,483580
2.01192,478881
2.02125,515236
2.03060,498940
2.03993,392139
2.04927,284952
2.05862,217708
2.06795,172723
2.07728,144269
2.08663,123522
2.09597,107201
2.10530,106160
2.11465,115064
2.12398,134198
2.13332,212683
2.14267,352881
2.15200,345678
2.16135,275097
2.17068,213299
2.18002,193963
2.18937,232797
2.19870,250789
2.20803,190156
2.21738,137685
2.22672,140292
2.23605,195441
2.24540,260850
2.25473,567289
2.26407,1540185
2.27342,1737725
2.28275,1293553
2.29208,803145
2.30143,506434
2.31077,469863
2.32012,625883
2.32945,592814
2.33878,388034
2.34813,235579
2.35747,163707
2.36680,139388
2.37615,131635
2.38548,150217
2.39482,156911
2.40417,149878
2.41350,143975
2.42283,124488
2.43218,114448
2.44152,104066
2.45085,94695
2.46020,93036
2.46953,102944
2.47887,116224
2.48822,114514
2.49755,105843
2.50690,98082
2.51623,95057
2.52557,96530
2.53492,93471
2.54425,91341
2.55358,93642
2.56293,104766
2.57227,139952
2.58160,208078
2.59095,200255
2.60028,172742
2.60962,175320
2.61897,230043
2.62830,269333
2.63763,237434
2.64698,190004
2.65632,157021
2.66565,134981
2.67500,119830
2.68433,102127
2.69368,89594
2.70302,86161
2.71235,111683
2.72170,200066
2.73103,272741
2.74037,276830
2.74972,260046
2.75905,271420
2.76838,318003
2.77773,382268
2.78707,380359
2.79640,335052
2.80575,264502
2.81508,215810
2.82442,190303
2.83377,168361
2.84310,175688
2.85243,289990
2.86178,455441
2.87112,487173
2.88047,375972
2.88980,251014
2.89913,179027
2.90848,145260
2.91782,132066
2.92715,116195
2.93650,100158
2.94583,87474
2.95517,80328
2.96452,73372
2.97385,77724
2.98318,73939
2.99253,71839
3.00187,75903
3.01120,83503
3.02055,92518
3.02988,108746
3.03922,137071
3.04857,157136
3.05790,182481
3.06725,299355
3.07658,582996
3.08592,928418
3.09527,1055637
3.10460,827788
3.11393,469452
3.12328,237830
3.13262,141968
3.14195,104428
3.15130,106924
3.16063,130030
3.16997,140083
3.17932,119121
3.18865,94218
3.19798,83662
3.20733,76180
3.21667,75854
3.22602,71117
3.23535,71507
3.24468,70342
3.25403,84031
3.26337,104433
3.27270,128827
3.28205,141318
3.29138,125222
3.30072,102284
3.31007,83989
3.31940,78309
3.32873,80752
3.33808,87654
3.34742,85516
3.35675,79808
3.36610,69392
3.37543,61190
3.38477,60877
3.39412,58136
3.40345,60829
3.41280,66407
3.42213,72891
3.43147,73662
3.44082,82646
3.45015,95655
3.45948,95893
3.46883,89055
3.47817,81918
3.48750,79845
3.49685,80106
3.50618,80935
3.51552,82975
3.52487,79516
3.53420,73671
3.54353,80317
3.55288,142634
3.56222,317942
3.57155,520562
3.58090,548209
3.59023,420038
3.59958,276823
3.60892,178751
3.61825,133599
3.62760,121135
3.63693,101662
3.64627,91094
3.65562,82662
3.66495,84729
3.67428,103524
3.68363,134246
3.69297,159254
3.70230,150407
3.71165,117120
3.72098,97023
3.73032,84704
3.73967,81728
3.74900,79344
3.75833,80337
3.76768,73998
3.77702,64680
3.78637,60580
3.79570,60500
3.80503,72288
3.81438,98927
3.82372,125134
3.83305,117807
3.84240,93236
3.85173,79473
3.86107,76231
3.87042,71442
3.87975,72501
3.88908,90610
3.89843,151336
3.90777,241725
3.91710,287303
3.92645,251141
3.93578,177592
3.94513,148315
3.95447,152116
3.96380,138224
3.97315,119101
3.98248,104459
3.99182,92147
4.00117,82431
4.01050,93954
4.01983,100564
4.02918,102132
4.03852,94464
4.04785,89505
4.05720,84718
4.06653,92011
4.07587,113035
4.08522,134672
4.09455,137786
4.10388,121326
4.11323,96380
4.12257,77605
4.13192,68544
4.14125,66496
4.15058,65278
4.15993,63935
4.16927,60077
4.17860,59931
4.18795,59085
4.19728,62504
4.20662,67854
4.21597,63372
4.22530,60168
4.23463,58956
4.24398,57199
4.25332,62020
4.26265,66276
4.27200,72585
4.28133,87157
4.29067,91968
4.30002,87748
4.30935,81377
4.31870,79136
4.32803,82598
4.33737,83557
4.34672,83358
4.35605,80247
4.36538,73078
4.37473,68802
4.38407,68484
4.39340,72136
4.40275,64529
4.41208,59162
4.42142,56057
4.43077,51072
4.44010,51815
4.44943,54082
4.45878,54315
4.46812,56727
4.47745,61160
4.48680,68820
4.49613,68831
4.50548,67305
4.51482,62676
4.52415,62025
4.53350,63866
4.54283,66216
4.55217,67931
4.56152,64920
4.57085,61358
4.58018,61749
4.58953,60009
4.59887,59498
4.60820,57441
4.61755,55854
4.62688,54299
4.63622,59065
4.64557,70104
4.65490,78149
4.66423,76901
4.67358,70758
4.68292,62878
4.69227,58216
4.70160,57846
4.71093,59938
4.72028,59548
4.72962,57342
4.73895,60665
4.74830,63819
4.75763,62451
4.76697,59720
4.77632,58075
4.78565,58989
4.79498,57297
4.80433,59548
4.81367,63502
4.82300,64537
4.83235,69001
4.84168,73785
4.85102,71474
4.86037,69230
4.86970,68250
4.87905,69566
4.88838,66652
4.89772,61197
4.90707,59161
4.91640,59199
4.92573,60125
4.93508,60616
4.94442,62041
4.95375,63553
4.96310,60544
4.97243,59456
4.98177,57374
4.99112,59685
5.00045,61108
5.00978,63775
5.01913,64575
5.02847,68372
5.03782,67209
5.04715,66531
5.05648,63382
5.06583,63456
5.07517,65639
5.08450,69216
5.09385,76957
5.10318,85282
5.11252,81933
5.12187,71485
5.13120,63200
5.14053,64042
5.14988,65515
5.15922,69633
5.16855,67907
5.17790,67089
5.18723,71322
5.19657,72759
5.20592,70436
5.21525,66660
5.22460,62274
5.23393,62178
5.24327,66210
5.25262,66133
5.26195,67606
5.27128,100219
5.28063,211435
5.28997,396000
5.29930,514984
5.30865,448056
5.31798,279736
5.32732,154511
5.33667,95972
5.34600,77605
5.35533,70680
5.36468,67189
5.37402,67240
5.38335,66029
5.39270,67656
5.40203,70199
5.41138,62627
5.42072,62231
5.43005,60531
5.43940,58363
5.44873,59478
5.45807,55613
5.46742,57956
5.47675,57087
5.48608,59057
5.49543,62660
5.50477,64515
5.51410,64374
5.52345,71444
5.53278,82009
5.54212,82835
5.55147,79213
5.56080,73778
5.57013,67771
5.57948,62935
5.58882,65118
5.59817,64851
5.60750,61209
5.61683,58770
5.62618,57185
5.63552,57355
5.64485,58823
5.65420,61583
5.66353,63663
5.67287,64939
5.68222,67804
5.69155,68549
5.70088,66060
5.71023,66260
5.71957,66208
5.72890,66131
5.73825,67617
5.74758,83957
5.75693,103252
5.76627,115640
5.77560,111769
5.78495,94523
5.79428,74291
5.80362,66988
5.81297,61536
5.82230,64039
5.83163,73185
5.84098,75473
5.85032,69165
5.85965,57617
5.86900,49203
5.87833,46324
5.88767,45338
5.89702,45947
5.90635,57907
5.91568,85393
5.92503,121134
5.93437,138652
5.94372,172136
5.95305,198860
5.96238,168719
5.97173,118678
5.98107,87753
5.99040,65250
5.99975,57443
6.00908,50154
6.01842,48652
6.02777,43167
6.03710,38510
6.04643,37005
6.05578,39636
6.06512,43350
6.07445,44581
6.08380,40695
6.09313,32738
6.10247,33173
6.11182,34002
6.12115,38035
6.13050,41025
6.13983,43966
6.14917,39062
6.15852,34925
6.16785,34128
6.17718,35521
6.18653,34036
6.19587,34125
6.20520,32864
6.21455,33603
6.22388,38852
6.23322,49421
6.24257,60668
6.25190,72614
6.26123,70061
6.27058,61547
6.27992,64556
6.28925,59927
6.29860,51157
6.30793,45763
6.31728,48333
6.32662,49367
6.33595,52936
6.34530,54264
6.35463,53696
6.36397,53747
6.37332,57251
6.38265,65165
6.39198,103837
6.40133,284223
6.41067,687176
6.42000,980418
6.42935,768322
6.43868,395860
6.44802,177425
6.45737,102818
6.46670,82880
6.47603,76017
6.48538,75128
6.49472,78481
6.50407,75712
6.51340,71340
6.52273,65363
6.53208,65213
6.54142,60378
6.55075,59810
6.56010,58640
6.56943,57632
6.57877,59020
6.58812,59378
6.59745,58122
6.60678,60976
6.61613,63883
6.62547,68962
6.63480,72137
6.64415,73128
6.65348,81138
6.66283,78447
6.67217,71007
6.68150,70396
6.69085,84336
6.70018,88889
6.70952,84823
6.71887,74508
6.72820,63708
6.73753,57763
6.74688,53159
6.75622,52668
6.76555,52616
6.77490,54451
6.78423,60316
6.79357,65927
6.80292,69830
6.81225,68583
6.82158,58345
6.83093,53352
6.84027,51643
6.84962,53721
6.85895,55265
6.86828,51403
6.87763,50845
6.88697,50937
6.89630,55360
6.90565,65165
6.91498,79278
6.92432,79174
6.93367,65439
6.94300,52674
6.95233,52195
6.96168,50881
6.97102,50883
6.98035,49419
6.98970,48951
6.99903,47869
7.00837,45713
7.01772,48348
7.02705,48110
7.03640,45703
7.04573,43055
7.05507,40205
7.06442,38912
7.07375,40389
7.08308,45035
7.09243,47489
7.10177,48961
7.11110,49887
7.12045,49635
7.12978,45972
7.13912,44607
7.14847,41786
7.15780,38679
7.16713,39484
7.17648,37873
7.18582,38775
7.19515,39872
7.20450,41763
7.21383,45281
7.22318,58473
7.23252,82593
7.24185,116005
7.25120,115285
7.26053,82158
7.26987,56785
7.27922,46155
7.28855,44931
7.29788,44050
7.30723,43080
7.31657,36530
7.32590,33151
7.33525,31311
7.34458,33961
7.35392,34594
7.36327,34657
7.37260,35531
7.38195,39858
7.39128,64430
7.40062,127107
7.40997,192399
7.41930,203004
7.42863,153718
7.43798,90273
7.44732,58264
7.45665,42811
7.46600,40935
7.47533,55641
7.48467,62644
7.49402,55895
7.50335,45056
7.51268,38214
7.52203,32028
7.53137,32389
7.54070,32811
7.55005,36408
7.55938,44138
7.56873,52245
7.57807,51290
7.58740,46666
7.59675,44552
7.60608,45652
7.61542,48965
7.62477,48577
7.63410,46126
7.64343,41301
7.65278,35848
7.66212,37201
7.67145,42538
7.68080,47896
7.69013,49067
7.69947,44259
7.70882,42185
7.71815,40036
7.72748,41461
7.73683,46293
7.74617,51585
7.75552,55743
7.76485,53379
7.77418,47580
7.78353,46717
7.79287,47591
7.80220,46393
7.81155,38849
7.82088,35475
7.83022,35169
7.83957,38144
7.84890,48388
7.85823,79916
7.86758,125661
7.87692,148999
7.88625,120698
7.89560,80801
7.90493,64288
7.91427,83984
7.92362,103616
7.93295,94638
7.94230,70049
7.95163,66329
7.96097,80941
7.97032,77228
7.97965,64950
7.98898,58151
7.99833,50431
8.00767,46788
8.01700,57821
8.02635,90888
8.03568,109226
8.04502,100514
8.05437,75998
8.06370,51420
8.07303,40673
8.08238,44467
8.09172,78434
8.10105,107767
8.11040,96116
8.11973,67629
8.12908,48684
8.13842,39997
8.14775,38475
8.15710,34131
8.16643,35231
8.17577,34747
8.18512,33953
8.19445,35444
8.20378,34625
8.21313,36510
8.22247,41273
8.23180,46191
8.24115,50593
8.25048,50649
8.25982,43757
8.26917,39820
8.27850,36690
8.28785,34899
8.29718,38547
8.30652,38348
8.31587,36750
8.32520,37100
8.33453,35294
8.34388,33876
8.35322,39474
8.36255,79442
8.37190,100863
8.38123,92421
8.39057,75424
8.39992,64334
8.40925,55901
8.41858,53483
8.42793,48333
8.43727,44965
8.44660,43073
8.45595,42985
8.46528,45414
8.47463,44655
8.48397,42992
8.49330,42933
8.50265,42107
8.51198,40659
8.52132,40518
8.53067,41450
8.54000,43667
8.54933,42739
8.55868,41075
8.56802,39346
8.57735,38229
8.58670,41616
8.59603,44306
8.60537,48130
8.61472,44827
8.62405,39274
8.63338,36484
8.64273,41076
8.65207,44174
8.66142,47455
8.67075,46058
8.68008,40919
8.68943,37650
8.69877,37105
8.70810,37748
8.71745,36727
8.72678,36998
8.73612,37837
8.74547,43907
8.75480,49691
8.76413,50839
8.77348,45929
8.78282,52904
8.79215,82966
8.80150,176957
8.81083,299083
8.82017,308102
8.82952,194285
8.83885,86762
8.84820,46624
8.85753,37581
8.86687,40503
8.87622,41599
8.88555,41703
8.89488,40003
8.90423,42665
8.91357,41319
8.92290,40143
8.93225,39774
8.94158,39908
8.95092,38819
8.96027,36439
8.96960,36003
8.97893,37821
8.98828,37336
8.99762,39575
9.00697,43467
9.01630,42450
9.02563,42046
9.03498,41256
9.04432,39957
9.05365,37917
9.06300,41965
9.07233,44050
9.08167,48569
9.09102,52551
9.10035,54230
9.10968,49433
9.11903,53193
9.12837,76122
9.13770,129781
9.14705,150056
9.15638,107098
9.16572,65758
9.17507,47781
9.18440,42854
9.19375,39615
9.20308,39382
9.21242,47046
9.22177,68934
9.23110,96396
9.24043,113050
9.24978,103808
9.25912,82736
9.26845,65026
9.27780,55515
9.28713,49543
9.29647,43993
9.30582,41944
9.31515,46513
9.32448,59761
9.33383,79426
9.34317,79925
9.35250,96501
9.36185,215305
9.37118,403607
9.38053,481993
9.38987,369318
9.39920,208207
9.40855,116211
9.41788,80460
9.42722,74454
9.43657,72009
9.44590,61172
9.45523,48806
9.46458,45125
9.47392,42414
9.48325,39642
9.49260,45120
9.50193,49050
9.51127,49116
9.52062,48243
9.52995,47441
9.53928,54420
9.54863,60230
9.55797,76169
9.56732,90491
9.57665,82631
9.58598,58562
9.59533,55130
9.60467,65978
9.61400,65070
9.62335,52375
9.63268,48793
9.64202,49530
9.65137,55108
9.66070,66898
9.67003,63661
9.67938,54145
9.68872,45831
9.69805,40385
9.70740,42664
9.71673,72358
9.72607,195259
9.73542,493736
9.74475,809651
9.75410,810920
9.76343,502620
9.77277,240972
9.78212,129110
9.79145,96207
9.80078,83935
9.81013,71598
9.81947,73908
9.82880,90367
9.83815,112986
9.84748,123042
9.85682,110065
9.86617,89150
9.87550,86420
9.88483,116167
9.89418,141834
9.90352,158939
9.91285,202689
9.92220,257511
9.93153,231203
9.94088,142739
9.95022,83723
9.95955,61469
9.96890,68510
9.97823,104115
9.98757,183681
9.99692,245746
10.00625,215081
10.01558,139729
10.02493,79891
10.03427,57984
10.04360,52225
10.05295,54266
10.06228,62624
10.07162,73098
10.08097,78047
10.09030,71387
10.09965,68020
10.10898,119989
10.11832,370556
10.12767,880854
10.13700,1169418
10.14633,1117194
10.15568,2017057
10.16502,4351566
10.17435,5395512
10.18370,3186420
10.19303,946754
10.20237,185445
10.21172,71227
10.22105,62324
10.23038,83120
10.23973,137016
10.24907,171375
10.25840,140810
10.26775,85848
10.27708,58625
10.28643,55715
10.29577,60374
10.30510,68630
10.31445,70562
10.32378,65739
10.33312,54419
10.34247,49446
10.35180,45317
10.36113,44044
10.37048,44116
10.37982,41953
10.38915,40573
10.39850,40030
10.40783,41704
10.41717,45364
10.42652,48554
10.43585,47965
10.44518,47858
10.45453,49865
10.46387,56438
10.47322,54100
10.48255,48644
10.49188,43137
10.50123,39412
10.51057,38566
10.51990,41851
10.52925,45834
10.53858,46952
10.54792,47305
10.55727,47339
10.56660,47922
10.57593,45360
10.58528,45090
10.59462,47640
10.60395,47634
10.61330,44723
10.62263,44205
10.63197,49593
10.64132,52855
10.65065,49219
10.66000,44715
10.66933,44534
10.67867,48462
10.68802,51040
10.69735,53775
10.70668,72705
10.71603,114173
10.72537,134968
10.73470,111276
10.74405,79685
10.75338,114112
10.76272,190886
10.77207,222409
10.78140,338391
10.79073,1154538
10.80008,3293997
10.80942,5098141
10.81877,4176556
10.82810,1885134
10.83743,506598
10.84678,132613
10.85612,77825
10.86545,76753
10.87480,88609
10.88413,94978
10.89347,85781
10.90282,70722
10.91215,61325
10.92148,56620
10.93083,63619
10.94017,61056
10.94950,53342
10.95885,50075
10.96818,53251
10.97752,50682
10.98687,49153
10.99620,52775
11.00555,58044
11.01488,55684
11.02422,50760
11.03357,43418
11.04290,45066
11.05223,43917
11.06158,42113
11.07092,40501
11.08025,42397
11.08960,42696
11.09893,48834
11.10827,64325
11.11762,76766
11.12695,70027
11.13628,59313
11.14563,51677
11.15497,50372
11.16430,56515
11.17365,64049
11.18298,62692
11.19233,52558
11.20167,42880
11.21100,40971
11.22035,40733
11.22968,42086
11.23902,42837
11.24837,42141
11.25770,47596
11.26703,50478
11.27638,51447
11.28572,46826
11.29505,45743
11.30440,42602
11.31373,43762
11.32307,46033
11.33242,51637
11.34175,66656
11.35108,76046
11.36043,83873
11.36977,83057
11.37912,74091
11.38845,64357
11.39778,86380
11.40713,179492
11.41647,316936
11.42580,334105
11.43515,208270
11.44448,99071
11.45382,60163
11.46317,60707
11.47250,71964
11.48183,74983
11.49118,62331
11.50052,51365
11.50985,45193
11.51920,41505
11.52853,41040
11.53787,40459
11.54722,46817
11.55655,66864
11.56590,124715
11.57523,222262
11.58457,268524
11.59392,244730
11.60325,205357
11.61258,166291
11.62193,118851
11.63127,89478
11.64060,77418
11.64995,75015
11.65928,72727
11.66862,69768
11.67797,66910
11.68730,58647
11.69663,58934
11.70598,66854
11.71532,74231
11.72465,66694
11.73400,53657
11.74333,48648
11.75268,45582
11.76202,46804
11.77135,49159
11.78070,55318
11.79003,59940
11.79937,61787
11.80872,54841
11.81805,49978
11.82738,49507
11.83673,48982
11.84607,51687
11.85540,51868
11.86475,51269
11.87408,55517
11.88342,56181
11.89277,53456
11.90210,48988
11.91145,46482
11.92078,45583
11.93012,48191
11.93947,51923
11.94880,60468
11.95813,58653
11.96748,52316
11.97682,46721
11.98615,45032
11.99550,51394
12.00483,74364
12.01417,106023
12.02352,127843
12.03285,106825
12.04218,81964
12.05153,65735
12.06087,54723
12.07020,48325
12.07955,48552
12.08888,50447
12.09823,51532
12.10757,49293
12.11690,48586
12.12625,45063
12.13558,51052
12.14492,54921
12.15427,55634
12.16360,68413
12.17293,110069
12.18228,151014
12.19162,143642
12.20095,103245
12.21030,76542
12.21963,66554
12.22897,68300
12.23832,64877
12.24765,59332
12.25698,61573
12.26633,116146
12.27567,274680
12.28502,409285
12.29435,341748
12.30368,172971
12.31303,81528
12.32237,60217
12.33170,59600
12.34105,56721
12.35038,58310
12.35972,54074
12.36907,57737
12.37840,64373
12.38773,61308
12.39708,66870
12.40642,66084
12.41575,59447
12.42510,54428
12.43443,53493
12.44377,47654
12.45312,48430
12.46245,49027
12.47180,53304
12.48113,54605
12.49047,54911
12.49982,54443
12.50915,53554
12.51848,55848
12.52783,54941
12.53717,53862
12.54650,54707
12.55585,53465
12.56518,63256
12.57452,66618
12.58387,66091
12.59320,59476
12.60253,53697
12.61188,53441
12.62122,57410
12.63057,62038
12.63990,69961
12.64923,73846
12.65858,71476
12.66792,67912
12.67725,62237
12.68660,55086
12.69593,48592
12.70527,48991
12.71462,49351
12.72395,49315
12.73328,51421
12.74263,51720
12.75197,56774
12.76130,56478
12.77065,55515
12.77998,52145
12.78932,54036
12.79867,54079
12.80800,57400
12.81735,57530
12.82668,54231
12.83602,56319
12.84537,49929
12.85470,50417
12.86403,49426
12.87338,49752
12.88272,52904
12.89205,52831
12.90140,54884
12.91073,53427
12.92007,50688
12.92942,48270
12.93875,47836
12.94808,46597
12.95743,48524
12.96677,49376
12.97610,46990
12.98545,46943
12.99478,49830
13.00413,53187
13.01347,54764
13.02280,59720
13.03215,72259
13.04148,80869
13.05082,91151
13.06017,91417
13.06950,85191
13.07883,73419
13.08818,61396
13.09752,59035
13.10685,56104
13.11620,53031
13.12553,56808
13.13487,63799
13.14422,64959
13.15355,59882
13.16288,56780
13.17223,56841
13.18157,63355
13.19092,102490
13.20025,260997
13.20958,614274
13.21893,865337
13.22827,663176
13.23760,326013
13.24695,190782
13.25628,177032
13.26562,152877
13.27497,116198
13.28430,88387
13.29363,74749
13.30298,67146
13.31232,65178
13.32165,68985
13.33100,69666
13.34033,72567
13.34967,81017
13.35902,81981
13.36835,66908
13.37770,57311
13.38703,56273
13.39637,60518
13.40572,66428
13.41505,62201
13.42438,60068
13.43373,61814
13.44307,68080
13.45240,67389
13.46175,65282
13.47108,62396
13.48042,68794
13.48977,65019
13.49910,61237
13.50843,67331
13.51778,99002
13.52712,168098
13.53645,206910
13.54580,158332
13.55513,90904
13.56448,65064
13.57382,53296
13.58315,50613
13.59250,50249
13.60183,48574
13.61117,49813
13.62052,51647
13.62985,66043
13.63918,108926
13.64853,165175
13.65787,175533
13.66720,130847
13.67655,83092
13.68588,62031
13.69522,55286
13.70457,52728
13.71390,49544
13.72325,47873
13.73258,46744
13.74192,46332
13.75127,46516
13.76060,46988
13.76993,47010
13.77928,49569
13.78862,50651
13.79795,53651
13.80730,62804
13.81663,68081
13.82597,59339
13.83532,50617
13.84465,47747
13.85398,47038
13.86333,51361
13.87267,56056
13.88200,61936
13.89135,80909
13.90068,133667
13.91003,280876
13.91937,509009
13.92870,562890
13.93805,347631
13.94738,141294
13.95672,85986
13.96607,78439
13.97540,68239
13.98473,62827
13.99408,65987
14.00342,72039
14.01275,68632
14.02210,61573
14.03143,57259
14.04077,93149
14.05012,501296
14.05945,2544020
14.06878,7296107
14.07813,1.159418E+07
14.08747,1.013334E+07
14.09682,3932430
14.10615,737055
14.11548,134672
14.12483,76577
14.13417,69368
14.14350,67647
14.15285,73423
14.16218,78437
14.17152,90537
14.18087,112617
14.19020,185063
14.19953,268507
14.20888,248591
14.21822,140594
14.22755,71683
14.23690,52031
14.24623,47277
14.25557,50689
14.26492,52679
14.27425,51518
14.28360,53778
14.29293,49024
14.30227,47561
14.31162,50575
14.32095,56630
14.33028,73205
14.33963,94036
14.34897,110745
14.35830,97430
14.36765,73407
14.37698,62191
14.38632,53283
14.39567,47843
14.40500,47486
14.41433,45801
14.42368,45830
14.43302,45514
14.44237,47335
14.45170,51557
14.46103,57323
14.47038,63500
14.47972,64400
14.48905,62273
14.49840,58272
14.50773,53386
14.51707,51051
14.52642,47927
14.53575,47186
14.54508,49242
14.55443,50611
14.56377,56164
14.57310,55423
14.58245,52534
14.59178,51245
14.60112,49804
14.61047,47911
14.61980,47022
14.62915,54306
14.63848,80671
14.64782,132442
14.65717,181478
14.66650,174597
14.67583,123559
14.68518,81078
14.69452,62559
14.70385,56788
14.71320,55742
14.72253,54822
14.73187,60106
14.74122,73635
14.75055,104859
14.75988,125060
14.76923,110598
14.77857,83699
14.78790,64958
14.79725,58122
14.80658,54269
14.81593,50590
14.82527,52410
14.83460,51860
14.84395,45696
14.85328,48173
14.86262,54690
14.87197,65414
14.88130,75731
14.89063,73853
14.89998,65962
14.90932,58780
14.91865,52646
14.92800,50868
14.93733,51371
14.94667,51580
14.95602,52727
14.96535,54245
14.97468,58004
14.98403,57346
14.99337,56100
15.00272,55575
15.01205,58824
15.02138,61353
15.03073,57043
15.04007,50067
15.04940,53564
15.05875,56008
15.06808,55989
15.07742,55989
15.08677,55115
15.09610,51026
15.10543,49143
15.11478,52421
15.12412,57218
15.13345,63963
15.14280,64323
15.15213,59158
15.16147,56620
15.17082,55479
15.18015,56868
15.18950,59393
15.19883,68939
15.20817,93016
15.21752,116785
15.22685,121947
15.23618,99428
15.24553,74563
15.25487,62297
15.26420,56687
15.27355,57984
15.28288,58459
15.29222,53683
15.30157,51873
15.31090,52775
15.32023,53820
15.32958,55246
15.33892,59150
15.34827,58798
15.35760,56954
15.36693,60782
15.37628,65640
15.38562,62761
15.39495,60095
15.40430,55090
15.41363,50558
15.42297,57998
15.43232,63241
15.44165,62008
15.45098,57958
15.46033,52886
15.46967,49606
15.47900,52865
15.48835,57060
15.49768,64673
15.50702,82324
15.51637,124429
15.52570,150008
15.53505,135295
15.54438,90971
15.55372,64888
15.56307,54346
15.57240,50550
15.58173,54789
15.59108,54541
15.60042,54565
15.60975,57067
15.61910,53879
15.62843,58541
15.63777,61781
15.64712,65309
15.65645,67394
15.66578,76457
15.67513,85389
15.68447,89576
15.69380,97441
15.70315,110650
15.71248,112469
15.72183,96300
15.73117,73709
15.74050,62489
15.74985,67803
15.75918,78781
15.76852,87500
15.77787,85411
15.78720,71839
15.79653,60896
15.80588,58046
15.81522,63294
15.82455,72806
15.83390,99934
15.84323,152532
15.85257,173135
15.86192,133317
15.87125,90008
15.88058,78040
15.88993,93441
15.89927,117314
15.90862,124482
15.91795,99964
15.92728,76424
15.93663,63353
15.94597,57511
15.95530,58361
15.96465,65274
15.97398,88531
15.98332,112961
15.99267,133299
16.00200,129084
16.01133,100385
16.02068,73798
16.03002,61146
16.03935,56741
16.04870,61979
16.05803,61531
16.06738,62141
16.07672,59595
16.08605,59746
16.09540,58532
16.10473,64935
16.11407,82929
16.12342,104676
16.13275,108616
16.14208,96144
16.15143,77632
16.16077,68606
16.17010,63834
16.17945,61874
16.18878,60533
16.19812,66067
16.20747,76593
16.21680,85684
16.22613,88530
16.23548,83513
16.24482,79184
16.25417,77975
16.26350,89418
16.27283,111805
16.28218,167551
16.29152,320472
16.30085,529567
16.31020,563230
16.31953,368330
16.32887,169628
16.33822,87120
16.34755,65677
16.35688,57411
16.36623,55747
16.37557,55627
16.38490,53674
16.39425,56765
16.40358,55253
16.41292,57780
16.42227,58189
16.43160,58367
16.44095,59868
16.45028,65190
16.45962,80786
16.46897,91476
16.47830,84144
16.48763,84217
16.49698,86569
16.50632,79128
16.51565,76725
16.52500,74324
16.53433,76516
16.54367,75407
16.55302,72522
16.56235,64882
16.57168,61227
16.58103,64703
16.59037,74560
16.59970,72396
16.60905,66140
16.61838,68384
16.62773,78951
16.63707,90947
16.64640,87634
16.65575,82274
16.66508,72525
16.67442,67127
16.68377,66283
16.69310,77024
16.70243,87498
16.71178,86398
16.72112,73729
16.73045,63927
16.73980,80136
16.74913,125759
16.75847,172611
16.76782,153533
16.77715,101114
16.78648,70314
16.79583,63793
16.80517,68895
16.81452,81477
16.82385,83560
16.83318,93301
16.84253,93695
16.85187,92281
16.86120,78531
16.87055,69902
16.87988,65354
16.88922,62805
16.89857,65760
16.90790,72351
16.91723,85764
16.92658,91181
16.93592,81196
16.94525,76944
16.95460,86548
16.96393,94679
16.97327,98627
16.98262,90286
16.99195,75696
17.00130,69957
17.01063,66913
17.01997,71028
17.02932,95078
17.03865,131077
17.04798,130870
17.05733,104358
17.06667,75579
17.07600,73656
17.08535,68936
17.09468,70184
17.10402,68677
17.11337,66538
17.12270,65954
17.13203,71799
17.14138,81517
17.15072,82144
17.16007,70283
17.16940,64366
17.17873,67084
17.18808,68804
17.19742,70590
17.20675,64842
17.21610,61989
17.22543,63004
17.23477,63482
17.24412,64960
17.25345,67343
17.26278,70863
17.27213,73431
17.28147,78303
17.29080,86676
17.30015,82042
17.30948,78366
17.31882,80810
17.32817,89515
17.33750,87026
17.34685,77330
17.35618,67943
17.36552,68880
17.37487,96045
17.38420,185935
17.39353,278358
17.40288,257154
17.41222,161936
17.42155,109694
17.43090,84350
17.44023,76717
17.44957,79713
17.45892,83575
17.46825,84163
17.47758,83926
17.48693,99010
17.49627,285198
17.50560,1071382
17.51495,2544828
17.52428,3209059
17.53363,2035393
17.54297,668597
17.55230,170188
17.56165,92840
17.57098,88183
17.58032,95837
17.58967,102020
17.59900,96390
17.60833,81948
17.61768,74984
17.62702,73898
17.63635,74278
17.64570,75744
17.65503,76087
17.66437,83394
17.67372,92450
17.68305,111345
17.69238,132296
17.70173,132338
17.71107,106896
17.72042,95430
17.72975,85362
17.73908,79079
17.74843,78620
17.75777,84812
17.76710,90782
17.77645,99047
17.78578,99467
17.79512,108506
17.80447,117964
17.81380,108656
17.82313,87563
17.83248,74766
17.84182,71706
17.85115,76341
17.86050,92259
17.86983,113980
17.87918,116801
17.88852,102814
17.89785,83723
17.90720,75867
17.91653,71095
17.92587,75726
17.93522,79749
17.94455,77370
17.95388,74534
17.96323,71907
17.97257,73407
17.98190,70813
17.99125,69973
18.00058,73511
18.00992,80086
18.01927,83910
18.02860,85104
18.03793,85920
18.04728,89982
18.05662,105973
18.06597,113867
18.07530,101719
18.08463,83481
18.09398,78768
18.10332,79760
18.11265,88139
18.12200,94981
18.13133,89724
18.14067,84442
18.15002,81933
18.15935,82352
18.16868,83012
18.17803,81894
18.18737,82555
18.19670,81287
18.20605,78654
18.21538,74916
18.22472,75875
18.23407,77674
18.24340,76295
18.25275,72404
18.26208,69642
18.27142,74377
18.28077,79610
18.29010,90838
18.29943,95312
18.30878,102621
18.31812,102580
18.32745,96972
18.33680,96524
18.34613,102734
18.35547,109194
18.36482,116450
18.37415,116430
18.38348,121298
18.39283,128961
18.40217,147663
18.41150,164911
18.42085,154393
18.43018,120125
18.43953,96141
18.44887,96576
18.45820,97035
18.46755,88002
18.47688,81082
18.48622,85775
18.49557,102112
18.50490,125884
18.51423,143447
18.52358,145119
18.53292,132462
18.54225,117642
18.55160,101962
18.56093,95505
18.57027,91075
18.57962,86609
18.58895,80802
18.59828,80160
18.60763,87142
18.61697,93733
18.62632,98005
18.63565,95824
18.64498,102666
18.65433,108918
18.66367,117391
18.67300,140347
18.68235,154718
18.69168,153648
18.70102,137249
18.71037,130221
18.71970,121656
18.72903,115675
18.73838,109077
18.74772,100070
18.75705,92444
18.76640,85397
18.77573,80740
18.78508,76334
18.79442,76029
18.80375,81614
18.81310,89519
18.82243,99555
18.83177,103470
18.84112,92103
18.85045,83930
18.85978,75261
18.86913,72651
18.87847,71499
18.88780,68869
18.89715,71258
18.90648,79437
18.91582,89066
18.92517,90510
18.93450,87868
18.94383,83792
18.95318,90323
18.96252,96145
18.97187,111841
18.98120,114149
18.99053,103872
18.99988,102133
19.00922,98215
19.01855,95502
19.02790,97340
19.03723,95700
19.04657,121077
19.05592,193216
19.06525,256919
19.07458,269165
19.08393,285352
19.09327,295833
19.10260,231526
19.11195,143324
19.12128,94718
19.13062,77709
19.13997,72602
19.14930,71071
19.15865,70279
19.16798,66531
19.17732,67396
19.18667,72838
19.19600,89551
19.20533,102666
19.21468,103708
19.22402,93576
19.23335,83152
19.24270,81668
19.25203,79981
19.26137,77005
19.27072,79766
19.28005,94648
19.28938,106931
19.29873,115398
19.30807,130349
19.31740,165321
19.32675,174703
19.33608,139402
19.34543,104026
19.35477,82552
19.36410,74471
19.37345,71674
19.38278,70966
19.39212,81638
19.40147,108758
19.41080,131283
19.42013,125115
19.42948,95859
19.43882,76220
19.44815,70179
19.45750,66246
19.46683,67654
19.47617,76825
19.48552,88096
19.49485,98341
19.50420,100000
19.51353,88525
19.52287,75794
19.53222,71433
19.54155,75191
19.55088,72769
19.56023,71784
19.56957,78468
19.57890,86432
19.58825,92794
19.59758,89193
19.60692,78537
19.61627,77807
19.62560,85684
19.63493,105590
19.64428,117778
19.65362,112559
19.66295,87846
19.67230,78605
19.68163,78812
19.69098,87525
19.70032,89991
19.70965,86808
19.71900,99134
19.72833,135419
19.73767,182068
19.74702,184646
19.75635,141447
19.76568,106310
19.77503,101224
19.78437,100271
19.79370,91589
19.80305,85374
19.81238,79904
19.82172,77123
19.83107,76023
19.84040,73085
19.84973,71509
19.85908,71720
19.86842,84388
19.87777,109624
19.88710,136084
19.89643,133030
19.90578,116999
19.91512,108512
19.92445,100563
19.93380,88617
19.94313,82717
19.95247,82987
19.96182,82166
19.97115,83643
19.98048,78069
19.98983,73676
19.99917,71284
20.00850,73376
20.01785,80911
20.02718,86644
20.03652,86804
20.04587,86415
20.05520,88279
20.06455,91054
20.07388,92580
20.08322,90424
20.09257,85709
20.10190,81667
20.11123,74748
20.12058,69948
20.12992,68698
20.13925,68083
20.14860,75321
20.15793,86350
20.16727,98649
20.17662,94558
20.18595,89542
20.19528,78389
20.20463,75037
20.21397,77310
20.22330,80516
20.23265,79210
20.24198,81019
20.25133,83366
20.26067,80507
20.27000,76382
20.27935,75062
20.28868,75964
20.29802,76721
20.30737,71017
20.31670,68102
20.32603,66148
20.33538,66956
20.34472,66488
20.35405,72494
20.36340,76546
20.37273,77006
20.38207,77452
20.39142,73746
20.40075,72402
20.41008,70249
20.41943,70819
20.42877,68772
20.43812,74781
20.44745,79545
20.45678,76466
20.46613,78946
20.47547,87285
20.48480,92730
20.49415,86448
20.50348,78842
20.51282,75159
20.52217,72254
20.53150,74119
20.54083,77113
20.55018,82715
20.55952,90566
20.56885,127554
20.57820,216341
20.58753,298535
20.59688,253030
20.60622,152334
20.61555,101459
20.62490,102101
20.63423,164443
20.64357,317068
20.65292,452484
20.66225,398701
20.67158,246915
20.68093,149524
20.69027,114114
20.69960,99367
20.70895,93114
20.71828,90855
20.72762,90214
20.73697,85898
20.74630,84195
20.75563,80827
20.76498,75907
20.77432,78179
20.78367,77806
20.79300,86001
20.80233,93912
20.81168,94013
20.82102,86434
20.83035,84204
20.83970,78275
20.84903,72690
20.85837,65915
20.86772,69034
20.87705,67117
20.88638,68754
20.89573,70827
20.90507,73213
20.91440,78694
20.92375,77136
20.93308,72167
20.94242,66970
20.95177,67913
20.96110,65911
20.97045,64918
20.97978,68497
20.98912,66662
20.99847,66485
21.00780,66756
21.01713,65356
21.02648,65301
21.03582,65450
21.04515,65729
21.05450,64309
21.06383,67230
21.07317,68280
21.08252,66464
21.09185,67524
21.10118,66954
21.11053,69961
21.11987,69088
21.12920,67407
21.13855,68765
21.14788,65625
21.15723,66972
21.16657,72200
21.17590,84907
21.18525,107323
21.19458,115175
21.20392,107469
21.21327,84178
21.22260,70642
21.23193,68376
21.24128,67714
21.25062,64397
21.25995,66675
21.26930,68227
21.27863,71490
21.28797,78170
21.29732,81791
21.30665,75077
21.31600,71371
21.32533,67127
21.33467,65478
21.34402,65626
21.35335,67366
21.36268,67022
21.37203,68364
21.38137,66940
21.39070,69556
21.40005,71384
21.40938,71670
21.41872,75719
21.42807,74824
21.43740,76167
21.44673,77204
21.45608,80763
21.46542,79694
21.47475,79702
21.48410,79486
21.49343,86142
21.50278,87089
21.51212,97014
21.52145,93091
21.53080,81618
21.54013,78823
21.54947,81609
21.55882,91762
21.56815,116127
21.57748,154295
21.58683,160555
21.59617,127647
21.60550,96297
21.61485,77764
21.62418,76532
21.63352,75010
21.64287,77142
21.65220,75971
21.66153,72235
21.67088,77009
21.68022,87499
21.68957,102993
21.69890,108634
21.70823,108699
21.71758,99726
21.72692,90992
21.73625,83040
21.74560,76423
21.75493,75706
21.76427,70172
21.77362,69865
21.78295,68601
21.79228,68089
21.80163,75943
21.81097,82303
21.82030,87789
21.82965,88656
21.83898,86238
21.84832,78152
21.85767,78697
21.86700,76746
21.87635,81700
21.88568,91582
21.89502,94465
21.90437,90727
21.91370,83616
21.92303,83057
21.93238,76954
21.94172,75953
21.95105,75952
21.96040,77163
21.96973,82839
21.97907,85971
21.98842,91169
21.99775,96854
22.00708,94350
22.01643,86107
22.02577,78795
22.03510,77430
22.04445,83043
22.05378,88762
22.06313,87901
22.07247,87273
22.08180,89074
22.09115,86708
22.10048,82423
22.10982,85129
22.11917,81618
22.12850,80669
22.13783,81728
22.14718,83536
22.15652,91145
22.16585,106306
22.17520,116226
22.18453,121993
22.19387,110863
22.20322,94790
22.21255,87617
22.22188,96030
22.23123,100470
22.24057,97395
22.24992,92399
22.25925,84248
22.26858,86263
22.27793,92673
22.28727,100769
22.29660,106953
22.30595,105123
22.31528,95771
22.32462,80697
22.33397,75271
22.34330,75355
22.35263,79794
22.36198,91530
22.37132,94193
22.38065,98706
22.39000,91904
22.39933,85757
22.40868,76432
22.41802,74967
22.42735,77695
22.43670,79502
22.44603,79620
22.45537,78768
22.46472,76958
22.47405,76038
22.48338,73125
22.49273,72021
22.50207,69537
22.51140,70451
22.52075,73937
22.53008,71965
22.53942,71347
22.54877,69736
22.55810,68880
22.56743,70677
22.57678,80990
22.58612,84367
22.59547,90281
22.60480,92842
22.61413,97492
22.62348,96919
22.63282,89316
22.64215,82875
22.65150,78164
22.66083,73283
22.67017,70526
22.67952,73167
22.68885,82705
22.69818,88270
22.70753,86461
22.71687,78626
22.72620,80008
22.73555,86788
22.74488,93933
22.75422,103453
22.76357,105537
22.77290,104845
22.78225,91399
22.79158,79682
22.80092,82981
22.81027,91003
22.81960,86668
22.82893,82992
22.83828,78639
22.84762,80782
22.85695,78686
22.86630,75564
22.87563,75872
22.88497,81380
22.89432,83204
22.90365,83758
22.91298,81661
22.92233,85556
22.93167,87932
22.94100,83342
22.95035,83455
22.95968,84551
22.96903,80297
22.97837,75682
22.98770,76146
22.99705,72662
23.00638,72596
23.01572,69958
23.02507,68815
23.03440,71631
23.04373,71175
23.05308,71382
23.06242,74502
23.07175,77077
23.08110,79143
23.09043,76486
23.09977,69330
23.10912,67467
23.11845,64452
23.12780,61748
23.13713,62568
23.14647,64171
23.15582,65186
23.16515,72980
23.17448,73118
23.18383,78162
23.19317,80975
23.20250,80999
23.21185,78466
23.22118,79567
23.23052,80883
23.23987,86050
23.24920,92041
23.25853,98730
23.26788,102584
23.27722,95052
23.28655,84002
23.29590,79632
23.30523,75045
23.31458,73649
23.32392,74497
23.33325,82366
23.34260,88939
23.35193,84005
23.36127,77265
23.37062,71161
23.37995,70764
23.38928,69553
23.39863,68717
23.40797,66586
23.41730,68104
23.42665,65155
23.43598,66202
23.44532,66894
23.45467,68842
23.46400,69738
23.47333,68953
23.48268,66666
23.49202,64429
23.50137,63979
23.51070,64907
23.52003,61930
23.52938,65202
23.53872,66533
23.54805,66197
23.55740,66520
23.56673,66536
23.57607,71024
23.58542,77595
23.59475,76156
23.60408,74496
23.61343,69482
23.62277,66055
23.63210,66071
23.64145,69560
23.65078,70010
23.66012,72895
23.66947,73989
23.67880,73331
23.68815,76036
23.69748,82239
23.70682,85503
23.71617,91892
23.72550,99063
23.73483,106071
23.74418,103972
23.75352,88901
23.76285,78286
23.77220,67502
23.78153,63749
23.79087,60872
23.80022,61141
23.80955,61188
23.81888,60186
23.82823,61971
23.83757,64764
23.84690,61130
23.85625,63419
23.86558,65053
23.87493,63221
23.88427,60730
23.89360,61455
23.90295,65639
23.91228,64253
23.92162,63097
23.93097,62488
23.94030,62071
23.94963,64917
23.95898,64040
23.96832,62248
23.97765,61262
23.98700,59334
23.99633,60960
24.00567,60573
24.01502,61733
24.02435,63008
24.03370,60005
24.04303,56155
24.05237,58264
24.06172,58655
24.07105,58120
24.08038,61866
24.08973,61588
24.09907,61267
24.10840,59862
24.11775,59186
24.12708,57639
24.13642,57761
24.14577,61731
24.15510,61515
24.16443,61287
24.17378,61395
24.18312,59364
24.19245,64666
24.20180,63577
24.21113,61055
24.22048,62388
24.22982,63810
24.23915,63582
24.24850,63537
24.25783,64186
24.26717,61596
24.27652,62239
24.28585,62425
24.29518,60357
24.30453,60608
24.31387,64425
24.32320,67654
24.33255,70778
24.34188,72249
24.35122,67512
24.36057,67281
24.36990,66876
24.37923,72501
24.38858,75959
24.39792,77158
24.40727,73712
24.41660,72749
24.42593,72474
24.43528,72003
24.44462,68497
24.45395,70197
24.46330,68881
24.47263,68134
24.48197,70390
24.49132,70513
24.50065,68492
24.50998,65574
24.51933,68302
24.52867,68486
24.53800,68746
24.54735,69870
24.55668,71980
24.56602,67995
24.57537,70001
24.58470,68469
24.59405,71315
24.60338,76626
24.61272,82838
24.62207,81618
24.63140,83231
24.64073,77851
24.65008,75921
24.65942,77502
24.66875,78804
24.67810,81758
24.68743,79029
24.69677,75954
24.70612,75595
24.71545,74765
24.72478,80492
24.73413,73821
24.74347,71487
24.75282,71174
24.76215,69957
24.77148,70319
24.78083,70213
24.79017,71743
24.79950,71807
24.80885,69056
24.81818,73244
24.82752,74127
24.83687,75852
24.84620,71302
24.85553,72914
24.86488,74008
24.87422,80227
24.88355,82731
24.89290,83686
24.90223,81113
24.91157,78569
24.92092,76101
24.93025,77324
24.93960,77577
24.94893,79865
24.95827,79538
24.96762,78937
24.97695,79419
24.98628,78456
24.99563,74768
25.00497,76276
25.01430,73394
25.02365,72038
25.03298,74111
25.04232,75696
25.05167,73795
25.06100,76134
25.07033,74751
25.07968,77470
25.08902,84863
25.09835,93483
25.10770,104012
25.11703,110841
25.12638,113107
25.13572,120500
25.14505,127796
25.15440,135891
25.16373,124356
25.17307,110691
25.18242,93971
25.19175,90945
25.20108,86685
25.21043,83328
25.21977,79910
25.22910,79166
25.23845,80058
25.24778,80064
25.25712,81968
25.26647,80289
25.27580,81343
25.28513,78337
25.29448,84041
25.30382,82765
25.31317,88891
25.32250,106291
25.33183,144195
25.34118,170603
25.35052,160032
25.35985,134317
25.36920,114186
25.37853,106580
25.38787,101317
25.39722,106009
25.40655,162304
25.41588,390444
25.42523,869012
25.43457,1176580
25.44390,916846
25.45325,518788
25.46258,299469
25.47192,207612
25.48127,175178
25.49060,166298
25.49995,162724
25.50928,155995
25.51862,146112
25.52797,136623
25.53730,135552
25.54663,126074
25.55598,129830
25.56532,120675
25.57465,118634
25.58400,113548
25.59333,110313
25.60267,111580
25.61202,111426
25.62135,112086
25.63068,118520
25.64003,118618
25.64937,123119
25.65870,128865
25.66805,131445
25.67738,125592
25.68673,117039
25.69607,112628
25.70540,108486
25.71475,108066
25.72408,106334
25.73342,105780
25.74277,107746
25.75210,108122
25.76143,109021
25.77078,108451
25.78012,107972
25.78945,107733
25.79880,108160
25.80813,115994
25.81747,122271
25.82682,129146
25.83615,132470
25.84550,134567
25.85483,127967
25.86417,117261
25.87352,111010
25.88285,112995
25.89218,108333
25.90153,105719
25.91087,104067
25.92020,108739
25.92955,109752
25.93888,110144
25.94822,112554
25.95757,120388
25.96690,120020
25.97623,116323
25.98558,113206
25.99492,106202
26.00425,106907
26.01360,107497
26.02293,103750
26.03228,107047
26.04162,108527
26.05095,112003
26.06030,108945
26.06963,109506
26.07897,109223
26.08832,111766
26.09765,109994
26.10698,115110
26.11633,126597
26.12567,174109
26.13500,288748
26.14435,436193
26.15368,478437
26.16302,380123
26.17237,268210
26.18170,199705
26.19103,162229
26.20038,142262
26.20972,128462
26.21907,118969
26.22840,117159
26.23773,117945
26.24708,115197
26.25642,113204
26.26575,115384
26.27510,114504
26.28443,114530
26.29377,115381
26.30312,121211
26.31245,122811
26.32178,124091
26.33113,115681
26.34047,115612
26.34980,116535
26.35915,114687
26.36848,113133
26.37782,112615
26.38717,112665
26.39650,111879
26.40585,112646
26.41518,105800
26.42452,111274
26.43387,109363
26.44320,112658
26.45253,115054
26.46188,119720
26.47122,116085
26.48055,115569
26.48990,115267
26.49923,116430
26.50857,116788
26.51792,120366
26.52725,121566
26.53658,127699
26.54593,130917
26.55527,131732
26.56462,128843
26.57395,119941
26.58328,124560
26.59263,131411
26.60197,136790
26.61130,140886
26.62065,135709
26.62998,124955
26.63932,118731
26.64867,116838
26.65800,118716
26.66733,117010
26.67668,118112
26.68602,120302
26.69535,118928
26.70470,118619
26.71403,118134
26.72337,117633
26.73272,118379
26.74205,117148
26.75140,118145
26.76073,121713
26.77007,123185
26.77942,125057
26.78875,127657
26.79808,124871
26.80743,124803
26.81677,123485
26.82610,123393
26.83545,123197
26.84478,129393
26.85412,129036
26.86347,131240
26.87280,131251
26.88213,128767
26.89148,129429
26.90082,124295
26.91015,123146
26.91950,121997
26.92883,119587
26.93818,120453
26.94752,121092
26.95685,119076
26.96620,120258
26.97553,117397
26.98487,128046
26.99422,139316
27.00355,172553
27.01288,198139
27.02223,192621
27.03157,164132
27.04090,142911
27.05025,131553
27.05958,129772
27.06892,131310
27.07827,127279
27.08760,126352
27.09693,122298
27.10628,124911
27.11562,125953
27.12497,127800
27.13430,136701
27.14363,142687
27.15298,145001
27.16232,146970
27.17165,141146
27.18100,136309
27.19033,130819
27.19967,129731
27.20902,127555
27.21835,125192
27.22768,126984
27.23703,127756
27.24637,131517
27.25570,132352
27.26505,132803
27.27438,130763
27.28372,129291
27.29307,123909
27.30240,122438
27.31175,124447
27.32108,119894
27.33042,121691
27.33977,123228
27.34910,121552
27.35843,121477
27.36778,124893
27.37712,125626
27.38645,125134
27.39580,125475
27.40513,125719
27.41447,127120
27.42382,132978
27.43315,141136
27.44248,145554
27.45183,149404
27.46117,141680
27.47052,140295
27.47985,135615
27.48918,133981
27.49853,135179
27.50787,133935
27.51720,134893
27.52655,133399
27.53588,134877
27.54522,133423
27.55457,130253
27.56390,128857
27.57323,129350
27.58258,130172
27.59192,129057
27.60125,130035
27.61060,128457
27.61993,127343
27.62927,128641
27.63862,128108
27.64795,128307
27.65730,132416
27.66663,141675
27.67597,163437
27.68532,184612
27.69465,182811
27.70398,167753
27.71333,153604
27.72267,146999
27.73200,143646
27.74135,142133
27.75068,134360
27.76002,140497
27.76937,135303
27.77870,138949
27.78803,136694
27.79738,140684
27.80672,136479
27.81605,139814
27.82540,141157
27.83473,145106
27.84408,146939
27.85342,144048
27.86275,141095
27.87210,142490
27.88143,141736
27.89077,139375
27.90012,146184
27.90945,142826
27.91878,141466
27.92813,140522
27.93747,143586
27.94680,144772
27.95615,141835
27.96548,144178
27.97482,142085
27.98417,142934
27.99350,145524
28.00283,138392
28.01218,139487
28.02152,137296
28.03087,136940
28.04020,135094
28.04953,135765
28.05888,137522
28.06822,140951
28.07755,141393
28.08690,137875
28.09623,142867
28.10557,159286
28.11492,231901
28.12425,394186
28.13358,542997
28.14293,492103
28.15227,340652
28.16160,229924
28.17095,184988
28.18028,170045
28.18962,164944
28.19897,159152
28.20830,156511
28.21765,162188
28.22698,160286
28.23632,163834
28.24567,163998
28.25500,163132
28.26433,158872
28.27368,156248
28.28302,156304
28.29235,155330
28.30170,158023
28.31103,158279
28.32037,153963
28.32972,154019
28.33905,152922
28.34838,153636
28.35773,154230
28.36707,152415
28.37642,155097
28.38575,157529
28.39508,158567
28.40443,155396
28.41377,152298
28.42310,154449
28.43245,157434
28.44178,152517
28.45112,156537
28.46047,161066
28.46980,158186
28.47913,159880
28.48848,154900
28.49782,164396
28.50715,167987
28.51650,175563
28.52583,182897
28.53517,189511
28.54452,189169
28.55385,188296
28.56320,188071
28.57253,185745
28.58187,184607
28.59122,193305
28.60055,195886
28.60988,198485
28.61923,196109
28.62857,194608
28.63790,194421
28.64725,191428
28.65658,189045
28.66592,202119
28.67527,249169
28.68460,310694
28.69393,348592
28.70328,305814
28.71262,244836
28.72195,210850
28.73130,200355
28.74063,194062
28.74998,201213
28.75932,199958
28.76865,194833
28.77800,192494
28.78733,185203
28.79667,188737
28.80602,188932
28.81535,197310
28.82468,194976
28.83403,192696
28.84337,190426
28.85270,192166
28.86205,194771
28.87138,190014
28.88072,194123
28.89007,195082
28.89940,198512
28.90873,204674
28.91808,203302
28.92742,203228
28.93677,203726
28.94610,204066
28.95543,201838
28.96478,200363
28.97412,201366
28.98345,204221
28.99280,203257
29.00213,203705
29.01147,204969
29.02082,202984
29.03015,206333
29.03948,210324
29.04883,211331
29.05817,210657
29.06750,208561
29.07685,208883
29.08618,206379
29.09552,201455
29.10487,205265
29.11420,203573
29.12355,203455
29.13288,204894
29.14222,205277
29.15157,203738
29.16090,206001
29.17023,201856
29.17958,200416
29.18892,220193
29.19825,304447
29.20760,441132
29.21693,539011
29.22627,482849
29.23562,360052
29.24495,277137
29.25428,240489
29.26363,230270
29.27297,222542
29.28232,223229
29.29165,218628
29.30098,219263
29.31033,219653
29.31967,223845
29.32900,223582
29.33835,219271
29.34768,220409
29.35702,218656
29.36637,217444
29.37570,212728
29.38503,211550
29.39438,210706
29.40372,213588
29.41305,218196
29.42240,216016
29.43173,221931
29.44107,217956
29.45042,224039
29.45975,233792
29.46910,246545
29.47843,256132
29.48777,267677
29.49712,248923
29.50645,237415
29.51578,227003
29.52513,217133
29.53447,214312
29.54380,206382
29.55315,207631
29.56248,207019
29.57182,210096
29.58117,209340
29.59050,209366
29.59983,212281
29.60918,212921
29.61852,212063
29.62785,220436
29.63720,221383
29.64653,217840
29.65588,220201
29.66522,220197
29.67455,209545
29.68390,210371
29.69323,211351
29.70257,216702
29.71192,210739
29.72125,210448
29.73058,215333
29.73993,220337
29.74927,221886
29.75860,217288
29.76795,212003
29.77728,208463
29.78662,205960
29.79597,204165
29.80530,201739
29.81463,200924
29.82398,203801
29.83332,199974
29.84267,200847
29.85200,199426
29.86133,197396
29.87068,198645
29.88002,204266
29.88935,206549
29.89870,204630
29.90803,205063
29.91737,204861
29.92672,208356
29.93605,205240
29.94538,210441
29.95473,208860
29.96407,208227
29.97340,208228
29.98275,217573
29.99208,221315
30.00143,217215
30.01077,218671
30.02010,212197
30.02945,207958
30.03878,202673
30.04812,205138
30.05747,205785
30.06680,203046
30.07613,202411
30.08548,199497
30.09482,200374
30.10415,199392
30.11350,198989
30.12283,198921
30.13217,200534
30.14152,201079
30.15085,204815
30.16018,205458
30.16953,201149
30.17887,202495
30.18822,199607
30.19755,200417
30.20688,201883
30.21623,204050
30.22557,196066
30.23490,199706
30.24425,199596
30.25358,199380
30.26292,193462
30.27227,194470
30.28160,193910
30.29093,199929
30.30028,196893
30.30962,195385
30.31895,199934
30.32830,195222
30.33763,204485
30.34697,216885
30.35632,252636
30.36565,314057
30.37500,397360
30.38433,476332
30.39367,517625
30.40302,571044
30.41235,625897
30.42168,615855
30.43103,513248
30.44037,397181
30.44970,320343
30.45905,275574
30.46838,253207
30.47772,248401
30.48707,241821
30.49640,240971
30.50573,235506
30.51508,234815
30.52442,229606
30.53375,221335
30.54310,219026
30.55243,214883
30.56178,216857
30.57112,210468
30.58045,209593
30.58980,211867
30.59913,207390
30.60847,206700
30.61782,212091
30.62715,211460
30.63648,214884
30.64583,217925
30.65517,215859
30.66450,216336
30.67385,220329
30.68318,215286
30.69252,213767
30.70187,209768
30.71120,205617
30.72053,200717
30.72988,201808
30.73922,201379
30.74857,201706
30.75790,197179
30.76723,197735
30.77658,194015
30.78592,200112
30.79525,197115
30.80460,198750
30.81393,201067
30.82327,198029
30.83262,196322
30.84195,200116
30.85128,200879
30.86063,197984
30.86997,198206
30.87930,198431
30.88865,199180
30.89798,199225
30.90732,198332
30.91667,193382
30.92600,197359
30.93535,197100
30.94468,198896
30.95402,201738
30.96337,197863
30.97270,199847
30.98203,194788
30.99138,195476
31.00072,195008
31.01005,199289
31.01940,196562
31.02873,196893
31.03807,192040
31.04742,192910
31.05675,190136
31.06608,189900
31.07543,190385
31.08477,189287
31.09412,187891
31.10345,185239
31.11278,185664
31.12213,183299
31.13147,182304
31.14080,186987
31.15015,182736
31.15948,186314
31.16882,184466
31.17817,183498
31.18750,182730
31.19683,184181
31.20618,186529
31.21552,183113
31.22485,181615
31.23420,180826
31.24353,184886
31.25287,182134
31.26222,183875
31.27155,186468
31.28090,182401
31.29023,184329
31.29957,181454
31.30892,177074
31.31825,183126
31.32758,182724
31.33693,180547
31.34627,180416
31.35560,178549
31.36495,174653
