D:\数据\20211207\ZS1E-Z-000047.D Tue Dec 07 17:12:28 2021
Start of data points
0.09765,30231
0.10698,29156
0.11632,29586
0.12567,30951
0.13500,30709
0.14433,29954
0.15368,28920
0.16302,29711
0.17237,30186
0.18170,30389
0.19103,29603
0.20038,29387
0.20972,29529
0.21905,29798
0.22840,28434
0.23773,28972
0.24707,29870
0.25642,29115
0.26575,28613
0.27508,29385
0.28443,28145
0.29377,30174
0.30310,29294
0.31245,29233
0.32178,29073
0.33112,28694
0.34047,28916
0.34980,29634
0.35915,27225
0.36848,28447
0.37782,28208
0.38717,28105
0.39650,29222
0.40583,28760
0.41518,29049
0.42452,24494
0.43385,22304
0.44320,17041
0.45253,12078
0.46187,7099
0.47122,6903
0.48055,5765
0.48988,6153
0.49923,5847
0.50857,6391
0.51790,5807
0.52725,6228
0.53658,6296
0.54593,6726
0.55527,5894
0.56460,5118
0.57395,5548
0.58328,5807
0.59262,5183
0.60197,5493
0.61130,5604
0.62063,5547
0.62998,5458
0.63932,6178
0.64865,5354
0.65800,5288
0.66733,5203
0.67667,5097
0.68602,5587
0.69535,5712
0.70468,5556
0.71403,5084
0.72337,5079
0.73272,5864
0.74205,5778
0.75138,4847
0.76073,4823
0.77007,6365
0.77940,5511
0.78875,5736
0.79808,4830
0.80742,5598
0.81677,5395
0.82610,4718
0.83543,5850
0.84478,4605
0.85412,5111
0.86345,4748
0.87280,5298
0.88213,4706
0.89147,4581
0.90082,4849
0.91015,5188
0.91950,5068
0.92883,4353
0.93817,4592
0.94752,4462
0.95685,4311
0.96618,4615
0.97553,4814
0.98487,4519
0.99420,5351
1.00355,5450
1.01288,4723
1.02222,4613
1.03157,5189
1.04090,4912
1.05023,4036
1.05958,4643
1.06892,4727
1.07827,4908
1.08760,4383
1.09693,5039
1.10628,4938
1.11562,4920
1.12495,5395
1.13430,4636
1.14363,4084
1.15297,5040
1.16232,4273
1.17165,5218
1.18098,4595
1.19033,4924
1.19967,4684
1.20900,4778
1.21835,4512
1.22768,4681
1.23702,4944
1.24637,4525
1.25570,4656
1.26505,5057
1.27438,3961
1.28372,4834
1.29307,4713
1.30240,4305
1.31173,5188
1.32108,4643
1.33042,5217
1.33975,4958
1.34910,3922
1.35843,5098
1.36777,5646
1.37712,4906
1.38645,4356
1.39578,4070
1.40513,4096
1.41447,4656
1.42380,4924
1.43315,4535
1.44248,4689
1.45183,4415
1.46117,4725
1.47050,4618
1.47985,4258
1.48918,4098
1.49852,3692
1.50787,4975
1.51720,5158
1.52653,3857
1.53588,3953
1.54522,3904
1.55455,4020
1.56390,4730
1.57323,4544
1.58257,5389
1.59192,8381
1.60125,15536
1.61058,22674
1.61993,28710
1.62927,35659
1.63862,52662
1.64795,64868
1.65728,65361
1.66663,57552
1.67597,49876
1.68530,42656
1.69465,35630
1.70398,25559
1.71332,20232
1.72267,21582
1.73200,24197
1.74133,27256
1.75068,29030
1.76002,30849
1.76935,31519
1.77870,33827
1.78803,33126
1.79738,33688
1.80672,34478
1.81605,34495
1.82540,34100
1.83473,34194
1.84407,32577
1.85342,33940
1.86275,33871
1.87208,38262
1.88143,48244
1.89077,66193
1.90010,85629
1.90945,109142
1.91878,137352
1.92812,190389
1.93747,279260
1.94680,385858
1.95613,454351
1.96548,455927
1.97482,398415
1.98417,304803
1.99350,228870
2.00283,172766
2.01218,153637
2.02152,162852
2.03085,184396
2.04020,167083
2.04953,135397
2.05887,114232
2.06822,104446
2.07755,86422
2.08688,78171
2.09623,73001
2.10557,63710
2.11490,66710
2.12425,74277
2.13358,150594
2.14292,349490
2.15227,366318
2.16160,276633
2.17095,187320
2.18028,143638
2.18962,154752
2.19897,188114
2.20830,157482
2.21763,111434
2.22698,103681
2.23632,142656
2.24565,207423
2.25500,713463
2.26433,2373697
2.27367,2754670
2.28302,2075648
2.29235,1304479
2.30168,983650
2.31103,3050893
2.32037,1.012119E+07
2.32970,1.318106E+07
2.33905,8792325
2.34838,4055503
2.35773,1693902
2.36707,764847
2.37640,421133
2.38575,333808
2.39508,282033
2.40442,213439
2.41377,176352
2.42310,153212
2.43243,138842
2.44178,126984
2.45112,112649
2.46045,97222
2.46980,89872
2.47913,86931
2.48847,79148
2.49782,71807
2.50715,65139
2.51648,66727
2.52583,62589
2.53517,62871
2.54452,64414
2.55385,75060
2.56318,83464
2.57253,293073
2.58187,376220
2.59120,308345
2.60055,242455
2.60988,186830
2.61922,188395
2.62857,220994
2.63790,207459
2.64723,168593
2.65658,138387
2.66592,116170
2.67525,92878
2.68460,81345
2.69393,72101
2.70328,67449
2.71262,67396
2.72195,84823
2.73130,121092
2.74063,145473
2.74997,171714
2.75932,189753
2.76865,184595
2.77798,195394
2.78733,230286
2.79667,249931
2.80600,209739
2.81535,161145
2.82468,124624
2.83402,113703
2.84337,103703
2.85270,123064
2.86203,154956
2.87138,159154
2.88072,168286
2.89007,156894
2.89940,127247
2.90873,107025
2.91808,100581
2.92742,93337
2.93675,83199
2.94610,71259
2.95543,64656
2.96477,60947
2.97412,59022
2.98345,56331
2.99278,60834
3.00213,77869
3.01147,98405
3.02080,93567
3.03015,78043
3.03948,91212
3.04882,140470
3.05817,159934
3.06750,159223
3.07685,152456
3.08618,124868
3.09552,93379
3.10487,72103
3.11420,59455
3.12353,53777
3.13288,55422
3.14222,54277
3.15155,58628
3.16090,65740
3.17023,72345
3.17957,68261
3.18892,60610
3.19825,55974
3.20758,55231
3.21693,56067
3.22627,56897
3.23560,56965
3.24495,52306
3.25428,53761
3.26363,51965
3.27297,51041
3.28230,49216
3.29165,49411
3.30098,53651
3.31032,55365
3.31967,54040
3.32900,50166
3.33833,50695
3.34768,50770
3.35702,49545
3.36635,48355
3.37570,46601
3.38503,43646
3.39437,45603
3.40372,47316
3.41305,55796
3.42240,64309
3.43173,67090
3.44107,61747
3.45042,60759
3.45975,62774
3.46908,57924
3.47843,56692
3.48777,53833
3.49710,56323
3.50645,55400
3.51578,50897
3.52512,48891
3.53447,47995
3.54380,53369
3.55313,98181
3.56248,242249
3.57182,419579
3.58115,444277
3.59050,304429
3.59983,166169
3.60918,103479
3.61852,77298
3.62785,82781
3.63720,89911
3.64653,82849
3.65587,71616
3.66522,65789
3.67455,65678
3.68388,67004
3.69323,60109
3.70257,53624
3.71190,51190
3.72125,53644
3.73058,57740
3.73992,57964
3.74927,52905
3.75860,51278
3.76793,47961
3.77728,47462
3.78662,45408
3.79597,47179
3.80530,59460
3.81463,88867
3.82398,128456
3.83332,123217
3.84265,93162
3.85200,64999
3.86133,54550
3.87067,49982
3.88002,50352
3.88935,54507
3.89868,59447
3.90803,62271
3.91737,67421
3.92670,65640
3.93605,72600
3.94538,82120
3.95472,119066
3.96407,151190
3.97340,150603
3.98275,141116
3.99208,127865
4.00142,101272
4.01077,73045
4.02010,63245
4.02943,61682
4.03878,69544
4.04812,86191
4.05745,94972
4.06680,80569
4.07613,71747
4.08547,81633
4.09482,97279
4.10415,99962
4.11348,87494
4.12283,70742
4.13217,59645
4.14150,53198
4.15085,53250
4.16018,54438
4.16953,53385
4.17887,48402
4.18820,47567
4.19755,46205
4.20688,50890
4.21622,57329
4.22557,56213
4.23490,52249
4.24423,48548
4.25358,45840
4.26292,45587
4.27225,47146
4.28160,51767
4.29093,51024
4.30027,52788
4.30962,52751
4.31895,51929
4.32830,56026
4.33763,60221
4.34697,60276
4.35632,58702
4.36565,51318
4.37498,47757
4.38433,54253
4.39367,67040
4.40300,73761
4.41235,66543
4.42168,55594
4.43102,50454
4.44037,46390
4.44970,44162
4.45903,45049
4.46838,49047
4.47772,57340
4.48705,65838
4.49640,63607
4.50573,56163
4.51508,51033
4.52442,46737
4.53375,47083
4.54310,46369
4.55243,50477
4.56177,49170
4.57112,49761
4.58045,48454
4.58978,45115
4.59913,44165
4.60847,44693
4.61780,43293
4.62715,43414
4.63648,42182
4.64582,44949
4.65517,51650
4.66450,56650
4.67383,58397
4.68318,58643
4.69252,60409
4.70187,72005
4.71120,75711
4.72053,65725
4.72988,53398
4.73922,45790
4.74855,46086
4.75790,50669
4.76723,50863
4.77657,50836
4.78592,48264
4.79525,47758
4.80458,46202
4.81393,47208
4.82327,46658
4.83260,45503
4.84195,48023
4.85128,48101
4.86062,49673
4.86997,50074
4.87930,50823
4.88865,52965
4.89798,49754
4.90732,46358
4.91667,45772
4.92600,45315
4.93533,43059
4.94468,45134
4.95402,44258
4.96335,43277
4.97270,44010
4.98203,42287
4.99137,43051
5.00072,43433
5.01005,50552
5.01938,52975
5.02873,54499
5.03807,54402
5.04742,52787
5.05675,50389
5.06608,49540
5.07543,50317
5.08477,51741
5.09410,54924
5.10345,54462
5.11278,49257
5.12212,47050
5.13147,45501
5.14080,44484
5.15013,45678
5.15948,45485
5.16882,44919
5.17815,42511
5.18750,44947
5.19683,56646
5.20617,61419
5.21552,62532
5.22485,52743
5.23420,46549
5.24353,48614
5.25287,50446
5.26222,51901
5.27155,62677
5.28088,110858
5.29023,203654
5.29957,261079
5.30890,208213
5.31825,121620
5.32758,70830
5.33692,53178
5.34627,50157
5.35560,46057
5.36493,47797
5.37428,49859
5.38362,49847
5.39295,52674
5.40230,56445
5.41163,52686
5.42098,47580
5.43032,46707
5.43965,44344
5.44900,44448
5.45833,42420
5.46767,44349
5.47702,44599
5.48635,43258
5.49568,44983
5.50503,43283
5.51437,46090
5.52370,50261
5.53305,61181
5.54238,64719
5.55172,62683
5.56107,65351
5.57040,67745
5.57973,64954
5.58908,58091
5.59842,52325
5.60777,49159
5.61710,48888
5.62643,46065
5.63578,45003
5.64512,44063
5.65445,47110
5.66380,46449
5.67313,46740
5.68247,45484
5.69182,47123
5.70115,49551
5.71048,56214
5.71983,61492
5.72917,63102
5.73850,60403
5.74785,61925
5.75718,71576
5.76652,72162
5.77587,60219
5.78520,49175
5.79455,49941
5.80388,49692
5.81322,49821
5.82257,46916
5.83190,47618
5.84123,51592
5.85058,52857
5.85992,48772
5.86925,46833
5.87860,46205
5.88793,40703
5.89727,36307
5.90662,36414
5.91595,43251
5.92528,65380
5.93463,78161
5.94397,74507
5.95330,66276
5.96265,77528
5.97198,75231
5.98133,61961
5.99067,53130
6.00000,44750
6.00935,40914
6.01868,36939
6.02802,31795
6.03737,26387
6.04670,23130
6.05603,23922
6.06538,23551
6.07472,25104
6.08405,25669
6.09340,21869
6.10273,19974
6.11207,19165
6.12142,24761
6.13075,35292
6.14010,48076
6.14943,52500
6.15877,40079
6.16812,25813
6.17745,20745
6.18678,19127
6.19613,18925
6.20547,19129
6.21480,19092
6.22415,20441
6.23348,24288
6.24282,29476
6.25217,25621
6.26150,21954
6.27083,19361
6.28018,24846
6.28952,36113
6.29885,34604
6.30820,25616
6.31753,19247
6.32688,16792
6.33622,16530
6.34555,15492
6.35490,16220
6.36423,15919
6.37357,20677
6.38292,34143
6.39225,60656
6.40158,103240
6.41093,233904
6.42027,432872
6.42960,444974
6.43895,255638
6.44828,97020
6.45762,37915
6.46697,25440
6.47630,23868
6.48563,22468
6.49498,22432
6.50432,22181
6.51367,20064
6.52300,20223
6.53233,20017
6.54168,17712
6.55102,18409
6.56035,15996
6.56970,16161
6.57903,16612
6.58837,17771
6.59772,19356
6.60705,19161
6.61638,18073
6.62573,19465
6.63507,20974
6.64440,20306
6.65375,19541
6.66308,19448
6.67242,23829
6.68177,20881
6.69110,19881
6.70045,20503
6.70978,23049
6.71912,24880
6.72847,23083
6.73780,22186
6.74713,23403
6.75648,21765
6.76582,19924
6.77515,21317
6.78450,22576
6.79383,33999
6.80317,56720
6.81252,68288
6.82185,51883
6.83118,31230
6.84053,20346
6.84987,19079
6.85922,21390
6.86855,22578
6.87788,22497
6.88723,21918
6.89657,20140
6.90590,24001
6.91525,30564
6.92458,31324
6.93392,25694
6.94327,22464
6.95260,19788
6.96193,20237
6.97128,20990
6.98062,20256
6.98995,20010
6.99930,20861
7.00863,19504
7.01797,20564
7.02732,20373
7.03665,18621
7.04600,16168
7.05533,15200
7.06467,14842
7.07402,14881
7.08335,15276
7.09268,16923
7.10203,20110
7.11137,25085
7.12070,26800
7.13005,25557
7.13938,23001
7.14872,20014
7.15807,17219
7.16740,16191
7.17673,14657
7.18608,16025
7.19542,15757
7.20475,17654
7.21410,18891
7.22343,21543
7.23278,41018
7.24212,79928
7.25145,112290
7.26080,98593
7.27013,59429
7.27947,41571
7.28882,34464
7.29815,26532
7.30748,21865
7.31683,20124
7.32617,17063
7.33550,17187
7.34485,16181
7.35418,15036
7.36352,15454
7.37287,15013
7.38220,16937
7.39153,30717
7.40088,75321
7.41022,151843
7.41957,208930
7.42890,179276
7.43823,112224
7.44758,55915
7.45692,29886
7.46625,20498
7.47560,17517
7.48493,18617
7.49427,26299
7.50362,31863
7.51295,29467
7.52228,25281
7.53163,19743
7.54097,16374
7.55030,17523
7.55965,18230
7.56898,20440
7.57832,20782
7.58767,20725
7.59700,20620
7.60635,20270
7.61568,18427
7.62502,19226
7.63437,20989
7.64370,22971
7.65303,21348
7.66238,19185
7.67172,18124
7.68105,17277
7.69040,17001
7.69973,17278
7.70907,19743
7.71842,24413
7.72775,24618
7.73708,23889
7.74643,22742
7.75577,21929
7.76512,21504
7.77445,22533
7.78378,22187
7.79313,22788
7.80247,22801
7.81180,23925
7.82115,20687
7.83048,18671
7.83982,17396
7.84917,20850
7.85850,35410
7.86783,63212
7.87718,89570
7.88652,82414
7.89585,57372
7.90520,44199
7.91453,55666
7.92387,94157
7.93322,108008
7.94255,79997
7.95190,42708
7.96123,31917
7.97057,39824
7.97992,46172
7.98925,44365
7.99858,39027
8.00793,34108
8.01727,30184
8.02660,27780
8.03595,30290
8.04528,37168
8.05462,40263
8.06397,33332
8.07330,25961
8.08263,20391
8.09198,22210
8.10132,31468
8.11065,36426
8.12000,32053
8.12933,25473
8.13868,21584
8.14802,20107
8.15735,19822
8.16670,18716
8.17603,19145
8.18537,20807
8.19472,17387
8.20405,18055
8.21338,19433
8.22273,18650
8.23207,18338
8.24140,18939
8.25075,23333
8.26008,23782
8.26942,23980
8.27877,24036
8.28810,21849
8.29743,19678
8.30678,18665
8.31612,17801
8.32547,18783
8.33480,18100
8.34413,18157
8.35348,18984
8.36282,20014
8.37215,17579
8.38150,16541
8.39083,19366
8.40017,22618
8.40952,28018
8.41885,30741
8.42818,27173
8.43753,24894
8.44687,22647
8.45620,21538
8.46555,21478
8.47488,21952
8.48423,21838
8.49357,23121
8.50290,22297
8.51225,20691
8.52158,20086
8.53092,19944
8.54027,22780
8.54960,29539
8.55893,36495
8.56828,36998
8.57762,30877
8.58695,24146
8.59630,27638
8.60563,33401
8.61497,33399
8.62432,30630
8.63365,27389
8.64298,24515
8.65233,23705
8.66167,25677
8.67102,25656
8.68035,25581
8.68968,22335
8.69903,22398
8.70837,22578
8.71770,22351
8.72705,23187
8.73638,21419
8.74572,21352
8.75507,21647
8.76440,23120
8.77373,24194
8.78308,24961
8.79242,34828
8.80175,75430
8.81110,159700
8.82043,217368
8.82977,168838
8.83912,84869
8.84845,38199
8.85780,25213
8.86713,23800
8.87647,22958
8.88582,21782
8.89515,20975
8.90448,22110
8.91383,23198
8.92317,22450
8.93250,23772
8.94185,23430
8.95118,21303
8.96052,21097
8.96987,21390
8.97920,23848
8.98853,24126
8.99788,23416
9.00722,23671
9.01655,24587
9.02590,22599
9.03523,24025
9.04458,23304
9.05392,23676
9.06325,23764
9.07260,24607
9.08193,24260
9.09127,28769
9.10062,29412
9.10995,31311
9.11928,46923
9.12863,115686
9.13797,234284
9.14730,283312
9.15665,201705
9.16598,94288
9.17532,39106
9.18467,25374
9.19400,24149
9.20333,23198
9.21268,23278
9.22202,29853
9.23137,46003
9.24070,59427
9.25003,58772
9.25938,40189
9.26872,30334
9.27805,25766
9.28740,23413
9.29673,22891
9.30607,21825
9.31542,22578
9.32475,26017
9.33408,27465
9.34343,31489
9.35277,33043
9.36210,52457
9.37145,121462
9.38078,208041
9.39013,225717
9.39947,165988
9.40880,103089
9.41815,66126
9.42748,49686
9.43682,44601
9.44617,37686
9.45550,28626
9.46483,23739
9.47418,22250
9.48352,23296
9.49285,23741
9.50220,25471
9.51153,26113
9.52087,25825
9.53022,23530
9.53955,26265
9.54888,33458
9.55823,40574
9.56757,50481
9.57692,50995
9.58625,39592
9.59558,28543
9.60493,26881
9.61427,27036
9.62360,25565
9.63295,23574
9.64228,24626
9.65162,23870
9.66097,27583
9.67030,29367
9.67963,27984
9.68898,25227
9.69832,24201
9.70765,23004
9.71700,25963
9.72633,54513
9.73567,164255
9.74502,383002
9.75435,546907
9.76370,463248
9.77303,269903
9.78237,140776
9.79172,92405
9.80105,75132
9.81038,59221
9.81973,52865
9.82907,55453
9.83840,60367
9.84775,62285
9.85708,55270
9.86642,48155
9.87577,48611
9.88510,60052
9.89443,79612
9.90378,85854
9.91312,82732
9.92245,89444
9.93180,101055
9.94113,89265
9.95048,62462
9.95982,45637
9.96915,40024
9.97850,53906
9.98783,104381
9.99717,160138
10.00652,159443
10.01585,107744
10.02518,57730
10.03453,40669
10.04387,35693
10.05320,34654
10.06255,40225
10.07188,48436
10.08122,58060
10.09057,61903
10.09990,54539
10.10925,79569
10.11858,275229
10.12792,820373
10.13727,1379820
10.14660,1160860
10.15593,782191
10.16528,1021666
10.17462,1399795
10.18395,1032425
10.19330,395625
10.20263,98834
10.21197,38180
10.22132,31685
10.23065,36219
10.23998,49279
10.24933,71804
10.25867,76733
10.26800,55641
10.27735,37025
10.28668,30389
10.29603,32369
10.30537,32792
10.31470,31112
10.32405,31293
10.33338,28264
10.34272,26624
10.35207,30415
10.36140,41028
10.37073,53326
10.38008,50515
10.38942,36921
10.39875,27536
10.40810,25368
10.41743,28386
10.42677,35912
10.43612,41471
10.44545,51244
10.45478,61210
10.46413,60170
10.47347,47220
10.48282,31725
10.49215,26421
10.50148,24184
10.51083,21974
10.52017,21786
10.52950,21760
10.53885,23306
10.54818,23969
10.55752,26354
10.56687,28635
10.57620,27778
10.58553,26221
10.59488,23978
10.60422,23692
10.61355,24192
10.62290,28976
10.63223,33944
10.64157,36082
10.65092,30854
10.66025,28370
10.66960,28981
10.67893,32266
10.68827,37438
10.69762,35621
10.70695,33567
10.71628,39780
10.72563,51806
10.73497,52572
10.74430,40499
10.75365,47474
10.76298,88043
10.77232,136991
10.78167,146421
10.79100,208606
10.80033,528977
10.80968,1016574
10.81902,1037692
10.82835,585535
10.83770,209301
10.84703,69010
10.85638,40867
10.86572,34391
10.87505,42252
10.88440,61328
10.89373,78704
10.90307,67876
10.91242,46007
10.92175,35865
10.93108,32763
10.94043,31730
10.94977,29506
10.95910,28190
10.96845,29991
10.97778,29588
10.98712,27471
10.99647,26506
11.00580,25137
11.01513,26656
11.02448,26917
11.03382,25359
11.04317,24983
11.05250,24391
11.06183,23449
11.07118,26770
11.08052,29916
11.08985,28171
11.09920,25058
11.10853,28415
11.11787,28876
11.12722,31406
11.13655,29843
11.14588,27806
11.15523,25018
11.16457,26436
11.17390,27668
11.18325,27221
11.19258,26342
11.20193,26565
11.21127,26565
11.22060,29543
11.22995,29592
11.23928,27927
11.24862,25620
11.25797,25317
11.26730,28015
11.27663,29468
11.28598,27852
11.29532,26315
11.30465,28460
11.31400,27573
11.32333,24800
11.33267,28441
11.34202,38916
11.35135,63471
11.36068,89341
11.37003,88661
11.37937,58873
11.38872,39650
11.39805,32472
11.40738,37742
11.41673,41434
11.42607,41339
11.43540,35091
11.44475,29450
11.45408,29721
11.46342,40325
11.47277,56447
11.48210,57952
11.49143,44143
11.50078,30696
11.51012,25942
11.51945,24675
11.52880,22911
11.53813,22217
11.54747,23572
11.55682,26841
11.56615,35116
11.57550,62266
11.58483,93191
11.59417,102742
11.60352,82260
11.61285,62620
11.62218,50531
11.63153,42287
11.64087,38752
11.65020,44279
11.65955,53861
11.66888,57955
11.67822,51995
11.68757,41664
11.69690,32721
11.70623,32759
11.71558,30926
11.72492,31312
11.73425,29911
11.74360,29334
11.75293,29532
11.76228,29882
11.77162,29634
11.78095,36691
11.79030,50007
11.79963,65852
11.80897,60072
11.81832,44827
11.82765,34561
11.83698,33531
11.84633,32423
11.85567,35736
11.86500,39142
11.87435,48094
11.88368,63362
11.89302,57891
11.90237,44244
11.91170,33672
11.92105,28799
11.93038,27807
11.93972,33441
11.94907,41333
11.95840,47098
11.96773,40976
11.97708,33511
11.98642,29436
11.99575,29081
12.00510,32580
12.01443,43837
12.02377,52157
12.03312,51493
12.04245,41457
12.05178,34150
12.06113,31773
12.07047,29383
12.07980,27367
12.08915,26601
12.09848,30875
12.10783,33972
12.11717,35363
12.12650,29009
12.13585,25603
12.14518,26124
12.15452,32047
12.16387,35013
12.17320,56301
12.18253,86379
12.19188,91159
12.20122,65935
12.21055,46772
12.21990,43672
12.22923,55493
12.23857,73918
12.24792,68527
12.25725,48593
12.26658,47787
12.27593,96487
12.28527,182851
12.29462,198669
12.30395,126675
12.31328,65167
12.32263,44297
12.33197,45141
12.34130,50795
12.35065,53345
12.35998,46977
12.36932,33596
12.37867,30952
12.38800,29970
12.39733,31157
12.40668,32803
12.41602,30003
12.42535,30685
12.43470,31720
12.44403,28876
12.45337,28231
12.46272,33540
12.47205,39308
12.48140,46042
12.49073,43191
12.50007,41450
12.50942,42785
12.51875,42916
12.52808,39641
12.53743,37910
12.54677,37960
12.55610,38250
12.56545,40702
12.57478,41851
12.58412,40015
12.59347,37941
12.60280,32048
12.61213,30665
12.62148,29800
12.63082,33952
12.64015,41709
12.64950,49518
12.65883,49522
12.66818,47487
12.67752,37862
12.68685,31338
12.69620,28907
12.70553,27382
12.71487,29354
12.72422,32176
12.73355,31575
12.74288,32851
12.75223,31547
12.76157,32892
12.77090,32054
12.78025,31159
12.78958,28478
12.79892,27711
12.80827,29227
12.81760,30082
12.82695,30588
12.83628,32263
12.84562,32269
12.85497,29628
12.86430,27504
12.87363,27460
12.88298,26767
12.89232,29698
12.90165,33687
12.91100,31448
12.92033,29195
12.92967,26708
12.93902,27686
12.94835,30286
12.95768,31861
12.96703,33379
12.97637,30319
12.98570,26362
12.99505,25945
13.00438,26082
13.01373,28609
13.02307,29836
13.03240,37825
13.04175,44320
13.05108,42796
13.06042,34396
13.06977,29171
13.07910,32214
13.08843,32852
13.09778,33455
13.10712,32639
13.11645,32049
13.12580,31521
13.13513,35764
13.14447,40945
13.15382,42429
13.16315,43054
13.17248,46636
13.18183,57049
13.19117,76441
13.20052,226261
13.20985,651621
13.21918,1114359
13.22853,1037076
13.23787,523436
13.24720,191948
13.25655,111397
13.26588,90571
13.27522,62800
13.28457,51052
13.29390,46515
13.30323,47358
13.31258,62203
13.32192,77749
13.33125,74076
13.34060,59947
13.34993,48133
13.35927,44842
13.36862,40078
13.37795,36332
13.38730,35931
13.39663,41486
13.40597,49172
13.41532,46593
13.42465,38479
13.43398,34506
13.44333,41585
13.45267,44700
13.46200,41053
13.47135,38145
13.48068,39273
13.49002,39329
13.49937,43419
13.50870,49818
13.51803,73439
13.52738,121778
13.53672,162909
13.54607,135092
13.55540,79591
13.56473,47508
13.57408,34977
13.58342,32339
13.59275,30305
13.60210,26503
13.61143,28302
13.62077,33976
13.63012,72156
13.63945,210924
13.64878,441276
13.65813,503510
13.66747,339929
13.67680,163380
13.68615,78599
13.69548,55639
13.70482,43603
13.71417,40155
13.72350,34025
13.73285,32832
13.74218,31939
13.75152,33608
13.76087,36617
13.77020,38387
13.77953,34966
13.78888,33068
13.79822,39166
13.80755,45359
13.81690,50890
13.82623,46832
13.83557,37964
13.84492,32544
13.85425,31844
13.86358,36342
13.87293,38724
13.88227,46878
13.89160,78443
13.90095,142874
13.91028,229669
13.91963,326398
13.92897,356253
13.93830,232725
13.94765,111855
13.95698,58247
13.96632,46118
13.97567,42343
13.98500,35766
13.99433,37855
14.00368,37443
14.01302,38960
14.02235,35457
14.03170,33910
14.04103,46562
14.05037,209059
14.05972,1232636
14.06905,4144021
14.07838,7661081
14.08773,7105693
14.09707,2924196
14.10642,606685
14.11575,118463
14.12508,70883
14.13443,68824
14.14377,60339
14.15310,52740
14.16245,52760
14.17178,52567
14.18112,54097
14.19047,70387
14.19980,102573
14.20913,115660
14.21848,83687
14.22782,48605
14.23715,33675
14.24650,30716
14.25583,29513
14.26517,30398
14.27452,34760
14.28385,35086
14.29320,34568
14.30253,32277
14.31187,31838
14.32122,37117
14.33055,48143
14.33988,54886
14.34923,52779
14.35857,44027
14.36790,33986
14.37725,30459
14.38658,30774
14.39592,30494
14.40527,30679
14.41460,28189
14.42393,27711
14.43328,29118
14.44262,28498
14.45195,32172
14.46130,37604
14.47063,45919
14.47998,48778
14.48932,42767
14.49865,35198
14.50800,30633
14.51733,29031
14.52667,27148
14.53602,26107
14.54535,29134
14.55468,29750
14.56403,31941
14.57337,31218
14.58270,31333
14.59205,30898
14.60138,28235
14.61072,27889
14.62007,27629
14.62940,26947
14.63875,30121
14.64808,37140
14.65742,50995
14.66677,59558
14.67610,54013
14.68543,41686
14.69478,36957
14.70412,33593
14.71345,31577
14.72280,30511
14.73213,35689
14.74147,43545
14.75082,47158
14.76015,38927
14.76948,32760
14.77883,32049
14.78817,33948
14.79750,32025
14.80685,32123
14.81618,30571
14.82553,34097
14.83487,33558
14.84420,32528
14.85355,28034
14.86288,32977
14.87222,44049
14.88157,61997
14.89090,71580
14.90023,67820
14.90958,48897
14.91892,36480
14.92825,33755
14.93760,34394
14.94693,33949
14.95627,34835
14.96562,47404
14.97495,70281
14.98428,86691
14.99363,77419
15.00297,61372
15.01232,57436
15.02165,63240
15.03098,56797
15.04033,42567
15.04967,39159
15.05900,40165
15.06835,41437
15.07768,38294
15.08702,35287
15.09637,31821
15.10570,27824
15.11503,29413
15.12438,35532
15.13372,42109
15.14305,47404
15.15240,42463
15.16173,34645
15.17107,31221
15.18042,30407
15.18975,31807
15.19910,37931
15.20843,53631
15.21777,80078
15.22712,89143
15.23645,73549
15.24578,54083
15.25513,40931
15.26447,37488
15.27380,34643
15.28315,34849
15.29248,34758
15.30182,31884
15.31117,32064
15.32050,33071
15.32983,38153
15.33918,45179
15.34852,44702
15.35787,39499
15.36720,40727
15.37653,46967
15.38588,53565
15.39522,45516
15.40455,34340
15.41390,32150
15.42323,37626
15.43257,44515
15.44192,42824
15.45125,36756
15.46058,31103
15.46993,30953
15.47927,32624
15.48860,34054
15.49795,38919
15.50728,56162
15.51662,107858
15.52597,150766
15.53530,140646
15.54465,83527
15.55398,48451
15.56332,33750
15.57267,31294
15.58200,32526
15.59133,31835
15.60068,33238
15.61002,33391
15.61935,32770
15.62870,36818
15.63803,40085
15.64737,41970
15.65672,47663
15.66605,58894
15.67538,66923
15.68473,75777
15.69407,89248
15.70340,101576
15.71275,95869
15.72208,74136
15.73143,50962
15.74077,41260
15.75010,42502
15.75945,50330
15.76878,65798
15.77812,67923
15.78747,54423
15.79680,46152
15.80613,43958
15.81548,68052
15.82482,124525
15.83415,216972
15.84350,302689
15.85283,312900
15.86217,219435
15.87152,120529
15.88085,70118
15.89018,71046
15.89953,86605
15.90887,96509
15.91822,89095
15.92755,65422
15.93688,49051
15.94623,40779
15.95557,41116
15.96490,45753
15.97425,72877
15.98358,108345
15.99292,112302
16.00227,93585
16.01160,66613
16.02093,48436
16.03028,40738
16.03962,38087
16.04895,40308
16.05830,40876
16.06763,43947
16.07697,42403
16.08632,39619
16.09565,39673
16.10500,47777
16.11433,71056
16.12367,108463
16.13302,126995
16.14235,104506
16.15168,73506
16.16103,52198
16.17037,46753
16.17970,42045
16.18905,39071
16.19838,40201
16.20772,49918
16.21707,59425
16.22640,63157
16.23573,59920
16.24508,56658
16.25442,59041
16.26377,74161
16.27310,110261
16.28243,172428
16.29178,364981
16.30112,684441
16.31045,799336
16.31980,537385
16.32913,219317
16.33847,83620
16.34782,49531
16.35715,37814
16.36648,32671
16.37583,31327
16.38517,31081
16.39450,32282
16.40385,35226
16.41318,37659
16.42252,38532
16.43187,39650
16.44120,40838
16.45055,45901
16.45988,61961
16.46922,72876
16.47857,67462
16.48790,65170
16.49723,64006
16.50658,59953
16.51592,58076
16.52525,56418
16.53460,51454
16.54393,43704
16.55327,38177
16.56262,35205
16.57195,36761
16.58128,44857
16.59063,55995
16.59997,55577
16.60930,46141
16.61865,43799
16.62798,56328
16.63733,66999
16.64667,72302
16.65600,65087
16.66535,53289
16.67468,45084
16.68402,43845
16.69337,50973
16.70270,61556
16.71203,62735
16.72138,52715
16.73072,44111
16.74005,51441
16.74940,89808
16.75873,136386
16.76807,132548
16.77742,79437
16.78675,46572
16.79608,37285
16.80543,35501
16.81477,37473
16.82412,44728
16.83345,51040
16.84278,58312
16.85213,52023
16.86147,42316
16.87080,36679
16.88015,34618
16.88948,34878
16.89882,36625
16.90817,44419
16.91750,59459
16.92683,66730
16.93618,62792
16.94552,54920
16.95485,57953
16.96420,62895
16.97353,63117
16.98288,58073
16.99222,47951
17.00155,41039
17.01090,40662
17.02023,45892
17.02957,69658
17.03892,113833
17.04825,126607
17.05758,88884
17.06693,55420
17.07627,44642
17.08560,43308
17.09495,41225
17.10428,41802
17.11362,40428
17.12297,40655
17.13230,48706
17.14163,61172
17.15098,64988
17.16032,52678
17.16967,39126
17.17900,35747
17.18833,35885
17.19768,37398
17.20702,35426
17.21635,34298
17.22570,34168
17.23503,33602
17.24437,34413
17.25372,34999
17.26305,37058
17.27238,40453
17.28173,49082
17.29107,55359
17.30040,55137
17.30975,49400
17.31908,51200
17.32842,52717
17.33777,51168
17.34710,43863
17.35645,39264
17.36578,39101
17.37512,58056
17.38447,125999
17.39380,217339
17.40313,220725
17.41248,134517
17.42182,75583
17.43115,56626
17.44050,48669
17.44983,47299
17.45917,48679
17.46852,47753
17.47785,50257
17.48718,65742
17.49653,214940
17.50587,934250
17.51520,2510261
17.52455,3633608
17.53388,2566193
17.54323,922210
17.55257,200250
17.56190,67790
17.57125,54299
17.58058,55809
17.58992,58778
17.59927,56837
17.60860,49066
17.61793,43627
17.62728,40991
17.63662,42875
17.64595,44576
17.65530,45951
17.66463,52371
17.67397,58890
17.68332,66442
17.69265,72771
17.70198,72754
17.71133,67694
17.72067,60203
17.73002,53826
17.73935,49382
17.74868,46531
17.75803,50704
17.76737,58827
17.77670,63080
17.78605,58899
17.79538,51601
17.80472,46520
17.81407,41918
17.82340,39985
17.83273,39256
17.84208,39351
17.85142,43098
17.86075,52553
17.87010,64555
17.87943,64753
17.88877,57033
17.89812,49860
17.90745,45501
17.91680,41027
17.92613,39081
17.93547,37790
17.94482,38482
17.95415,39360
17.96348,38292
17.97283,39909
17.98217,39934
17.99150,37830
18.00085,37240
18.01018,38080
18.01952,39216
18.02887,40931
18.03820,41480
18.04753,51732
18.05688,66394
18.06622,81774
18.07557,75429
18.08490,54647
18.09423,41674
18.10358,40186
18.11292,39682
18.12225,41298
18.13160,45285
18.14093,44560
18.15027,44242
18.15962,41730
18.16895,42899
18.17828,44292
18.18763,42390
18.19697,41780
18.20630,38383
18.21565,36889
18.22498,37786
18.23432,38209
18.24367,38811
18.25300,37848
18.26235,34259
18.27168,36731
18.28102,42554
18.29037,47837
18.29970,50842
18.30903,53722
18.31838,56289
18.32772,55138
18.33705,56177
18.34640,60278
18.35573,67328
18.36507,72036
18.37442,67600
18.38375,63263
18.39308,61345
18.40243,66763
18.41177,69223
18.42110,68657
18.43045,56673
18.43978,53078
18.44913,59647
18.45847,61511
18.46780,53914
18.47715,45185
18.48648,47440
18.49582,56799
18.50517,74904
18.51450,94466
18.52383,102134
18.53318,97231
18.54252,81290
18.55185,66266
18.56120,60491
18.57053,56528
18.57987,54807
18.58922,50477
18.59855,47967
18.60788,51779
18.61723,56160
18.62657,59854
18.63592,60979
18.64525,63612
18.65458,65456
18.66393,72486
18.67327,84101
18.68260,94179
18.69195,81404
18.70128,70146
18.71062,70376
18.71997,70528
18.72930,66994
18.73863,65536
18.74798,62380
18.75732,61987
18.76665,55627
18.77600,46700
18.78533,41612
18.79468,41344
18.80402,43643
18.81335,52715
18.82270,61556
18.83203,63061
18.84137,55684
18.85072,47726
18.86005,41859
18.86938,40102
18.87873,38310
18.88807,39190
18.89740,37664
18.90675,44266
18.91608,52137
18.92542,57951
18.93477,54677
18.94410,52346
18.95343,54748
18.96278,63727
18.97212,69587
18.98147,65736
18.99080,56993
19.00013,51647
19.00948,50079
19.01882,47717
19.02815,43661
19.03750,47304
19.04683,64858
19.05617,104266
19.06552,141230
19.07485,172595
19.08418,229278
19.09353,272039
19.10287,212967
19.11220,121285
19.12155,70136
19.13088,47801
19.14022,40348
19.14957,37135
19.15890,36358
19.16825,35445
19.17758,37808
19.18692,41625
19.19627,48258
19.20560,54508
19.21493,57167
19.22428,54871
19.23362,55194
19.24295,49019
19.25230,46951
19.26163,42800
19.27097,40283
19.28032,46750
19.28965,54816
19.29898,56964
19.30833,63894
19.31767,77686
19.32700,79862
19.33635,70491
19.34568,55134
19.35503,43665
19.36437,37144
19.37370,35840
19.38305,37339
19.39238,38555
19.40172,42200
19.41107,43966
19.42040,44745
19.42973,41621
19.43908,39006
19.44842,34269
19.45775,35815
19.46710,35841
19.47643,41799
19.48577,48023
19.49512,53212
19.50445,56523
19.51378,51132
19.52313,43863
19.53247,44319
19.54182,43615
19.55115,40846
19.56048,38745
19.56983,40469
19.57917,46475
19.58850,51644
19.59785,49591
19.60718,46532
19.61652,43223
19.62587,48465
19.63520,58068
19.64453,66875
19.65388,63231
19.66322,54761
19.67255,45709
19.68190,44840
19.69123,45168
19.70058,44948
19.70992,46728
19.71925,51961
19.72860,73305
19.73793,105054
19.74727,101770
19.75662,80166
19.76595,60802
19.77528,57504
19.78463,57881
19.79397,55765
19.80330,50394
19.81265,46804
19.82198,41541
19.83132,38771
19.84067,40946
19.85000,38448
19.85933,38358
19.86868,46693
19.87802,65179
19.88737,86356
19.89670,81636
19.90603,64608
19.91538,57171
19.92472,54925
19.93405,48431
19.94340,43417
19.95273,40671
19.96207,41667
19.97142,42457
19.98075,41081
19.99008,40471
19.99943,36236
20.00877,38548
20.01810,42165
20.02745,48512
20.03678,47940
20.04612,46855
20.05547,49366
20.06480,47654
20.07415,50276
20.08348,49429
20.09282,49749
20.10217,46602
20.11150,39200
20.12083,37307
20.13018,33810
20.13952,36056
20.14885,41911
20.15820,50051
20.16753,57947
20.17687,54832
20.18622,44102
20.19555,40032
20.20488,37700
20.21423,38015
20.22357,41625
20.23290,42325
20.24225,42217
20.25158,39813
20.26093,38777
20.27027,38387
20.27960,36229
20.28895,37488
20.29828,38062
20.30762,37293
20.31697,35429
20.32630,33964
20.33563,32021
20.34498,33145
20.35432,34161
20.36365,36087
20.37300,38869
20.38233,38673
20.39167,35609
20.40102,35300
20.41035,33763
20.41970,33072
20.42903,35188
20.43837,35219
20.44772,35732
20.45705,36111
20.46638,41639
20.47573,48530
20.48507,55637
20.49440,50405
20.50375,39370
20.51308,36079
20.52242,34928
20.53177,33932
20.54110,36144
20.55043,40039
20.55978,49705
20.56912,98993
20.57845,236404
20.58780,346570
20.59713,288144
20.60648,147030
20.61582,68086
20.62515,50662
20.63450,51889
20.64383,64425
20.65317,79590
20.66252,79466
20.67185,63633
20.68118,52695
20.69053,47972
20.69987,45430
20.70920,44493
20.71855,47332
20.72788,45920
20.73722,43537
20.74657,44815
20.75590,41251
20.76523,40090
20.77458,38928
20.78392,39351
20.79327,41785
20.80260,45942
20.81193,49159
20.82128,43174
20.83062,40486
20.83995,37618
20.84930,36124
20.85863,32700
20.86797,34752
20.87732,32930
20.88665,33949
20.89598,35382
20.90533,37949
20.91467,40460
20.92400,40560
20.93335,36375
20.94268,38453
20.95202,34880
20.96137,33319
20.97070,35003
20.98005,34666
20.98938,32907
20.99872,34175
21.00807,35452
21.01740,35797
21.02673,35751
21.03608,33218
21.04542,33552
21.05475,35454
21.06410,33923
21.07343,34596
21.08277,35363
21.09212,35600
21.10145,35720
21.11078,37374
21.12013,39170
21.12947,39672
21.13880,36760
21.14815,37426
21.15748,37003
21.16683,39107
21.17617,43924
21.18550,54168
21.19485,62790
21.20418,59933
21.21352,46853
21.22287,40734
21.23220,41891
21.24153,37410
21.25088,36680
21.26022,38136
21.26955,40344
21.27890,46334
21.28823,50918
21.29757,55321
21.30692,53231
21.31625,44776
21.32560,39424
21.33493,39058
21.34427,36818
21.35362,37043
21.36295,38642
21.37228,36950
21.38163,34007
21.39097,35814
21.40030,36681
21.40965,37632
21.41898,41751
21.42832,40853
21.43767,40157
21.44700,41599
21.45633,37754
21.46568,37065
21.47502,38075
21.48435,39714
21.49370,42793
21.50303,42840
21.51238,42644
21.52172,42175
21.53105,39506
21.54040,38308
21.54973,37224
21.55907,44392
21.56842,60827
21.57775,88053
21.58708,94557
21.59643,76807
21.60577,54010
21.61510,45583
21.62445,42094
21.63378,40150
21.64312,40937
21.65247,38288
21.66180,37155
21.67113,39321
21.68048,43492
21.68982,51056
21.69917,59755
21.70850,56890
21.71783,51172
21.72718,48044
21.73652,46060
21.74585,45320
21.75520,42601
21.76453,37979
21.77387,36178
21.78322,37437
21.79255,38819
21.80188,38621
21.81123,41634
21.82057,45037
21.82990,46295
21.83925,44365
21.84858,42179
21.85792,41171
21.86727,38772
21.87660,38416
21.88595,43362
21.89528,46607
21.90462,47865
21.91397,44481
21.92330,41299
21.93263,38630
21.94198,38437
21.95132,37147
21.96065,40231
21.97000,42877
21.97933,48577
21.98867,54775
21.99802,58075
22.00735,58887
22.01668,50733
22.02603,45274
22.03537,43507
22.04470,44251
22.05405,47333
22.06338,45721
22.07273,45029
22.08207,44163
22.09140,46107
22.10075,43550
22.11008,41837
22.11942,39433
22.12877,41137
22.13810,37985
22.14743,37847
22.15678,46090
22.16612,52194
22.17545,60794
22.18480,62069
22.19413,55055
22.20347,45137
22.21282,41826
22.22215,43191
22.23150,46627
22.24083,48163
22.25017,49004
22.25952,44721
22.26885,43533
22.27818,43897
22.28753,47683
22.29687,53055
22.30620,54445
22.31555,48138
22.32488,42889
22.33422,41343
22.34357,40062
22.35290,41171
22.36223,42608
22.37158,42896
22.38092,44466
22.39025,43743
22.39960,40031
22.40893,37705
22.41828,37107
22.42762,37689
22.43695,40003
22.44630,39206
22.45563,41095
22.46497,42224
22.47432,40767
22.48365,41038
22.49298,37882
22.50233,38993
22.51167,38027
22.52100,38942
22.53035,41134
22.53968,38866
22.54902,39392
22.55837,39914
22.56770,39626
22.57703,41478
22.58638,45018
22.59572,46864
22.60507,46418
22.61440,47128
22.62373,49202
22.63308,47109
22.64242,44735
22.65175,43193
22.66110,38084
22.67043,36886
22.67977,37884
22.68912,42227
22.69845,46529
22.70778,47793
22.71713,43458
22.72647,40215
22.73580,46588
22.74515,51306
22.75448,58745
22.76382,65543
22.77317,68410
22.78250,60179
22.79185,53037
22.80118,45988
22.81052,45606
22.81987,46927
22.82920,45345
22.83853,44801
22.84788,43387
22.85722,43860
22.86655,43979
22.87590,43888
22.88523,43494
22.89457,44485
22.90392,44569
22.91325,41630
22.92258,43154
22.93193,42610
22.94127,41460
22.95060,42109
22.95995,42508
22.96928,41816
22.97863,40065
22.98797,40977
22.99730,38793
23.00665,39662
23.01598,38043
23.02532,35897
23.03467,39636
23.04400,39009
23.05333,39928
23.06268,38427
23.07202,40635
23.08135,41114
23.09070,39032
23.10003,40220
23.10937,37747
23.11872,37054
23.12805,36960
23.13740,38619
23.14673,38716
23.15607,37959
23.16542,36190
23.17475,38541
23.18408,37256
23.19343,36863
23.20277,37930
23.21210,37496
23.22145,35266
23.23078,38601
23.24012,39026
23.24947,43942
23.25880,45109
23.26813,47970
23.27748,46584
23.28682,45699
23.29615,41812
23.30550,39512
23.31483,41124
23.32418,41307
23.33352,50347
23.34285,59610
23.35220,58167
23.36153,49997
23.37087,42018
23.38022,39163
23.38955,39703
23.39888,39278
23.40823,43441
23.41757,41165
23.42690,41542
23.43625,40818
23.44558,41244
23.45492,41758
23.46427,41428
23.47360,42067
23.48293,40235
23.49228,41880
23.50162,38117
23.51097,37335
23.52030,40335
23.52963,41243
23.53898,42498
23.54832,39144
23.55765,40664
23.56700,35793
23.57633,37918
23.58567,38871
23.59502,38602
23.60435,39745
23.61368,39045
23.62303,38450
23.63237,35817
23.64170,38315
23.65105,36192
23.66038,37060
23.66972,37662
23.67907,37729
23.68840,39416
23.69775,40992
23.70708,44205
23.71642,45718
23.72577,48314
23.73510,51375
23.74443,52667
23.75378,48784
23.76312,44778
23.77245,41447
23.78180,40012
23.79113,37956
23.80047,37229
23.80982,36592
23.81915,36932
23.82848,38852
23.83783,36004
23.84717,36921
23.85652,39273
23.86585,39212
23.87518,39589
23.88453,38379
23.89387,38554
23.90320,38755
23.91255,37045
23.92188,38315
23.93122,38553
23.94057,39416
23.94990,38121
23.95923,39388
23.96858,37814
23.97792,36939
23.98725,38840
23.99660,37343
24.00593,38422
24.01527,39227
24.02462,38660
24.03395,39400
24.04330,38185
24.05263,36964
24.06197,36908
24.07132,40567
24.08065,44826
24.08998,46262
24.09933,44267
24.10867,41947
24.11800,42671
24.12735,38429
24.13668,38801
24.14602,37984
24.15537,37756
24.16470,38601
24.17403,38307
24.18338,37347
24.19272,39561
24.20205,38168
24.21140,37914
24.22073,36758
24.23008,37621
24.23942,38895
24.24875,39778
24.25810,37305
24.26743,39184
24.27677,39076
24.28612,37765
24.29545,37282
24.30478,38528
24.31413,40555
24.32347,46160
24.33280,46772
24.34215,47678
24.35148,43646
24.36082,40538
24.37017,40909
24.37950,38608
24.38883,39871
24.39818,43581
24.40752,41383
24.41687,41782
24.42620,41192
24.43553,38814
24.44488,39955
24.45422,40863
24.46355,39168
24.47290,38940
24.48223,39369
24.49157,41931
24.50092,43005
24.51025,40545
24.51958,40677
24.52893,41840
24.53827,41948
24.54760,42296
24.55695,41604
24.56628,41471
24.57562,41235
24.58497,41829
24.59430,40759
24.60365,41076
24.61298,41544
24.62232,44244
24.63167,42634
24.64100,42762
24.65033,40701
24.65968,42475
24.66902,43999
24.67835,45764
24.68770,44706
24.69703,43082
24.70637,43576
24.71572,44482
24.72505,43906
24.73438,44981
24.74373,44236
24.75307,41889
24.76242,41124
24.77175,41957
24.78108,41384
24.79043,39870
24.79977,41641
24.80910,42293
24.81845,42000
24.82778,43439
24.83712,44740
24.84647,42199
24.85580,43292
24.86513,45045
24.87448,46064
24.88382,46364
24.89315,46431
24.90250,45868
24.91183,45620
24.92117,46367
24.93052,47574
24.93985,43806
24.94920,45834
24.95853,46401
24.96787,47739
24.97722,49357
24.98655,49759
24.99588,45950
25.00523,44832
25.01457,45383
25.02390,41410
25.03325,43852
25.04258,44465
25.05192,43628
25.06127,46538
25.07060,44063
25.07993,45658
25.08928,48494
25.09862,53516
25.10795,53629
25.11730,53788
25.12663,51454
25.13598,52437
25.14532,52378
25.15465,53958
25.16400,54276
25.17333,52872
25.18267,49943
25.19202,49824
25.20135,49187
25.21068,47324
25.22003,48273
25.22937,48036
25.23870,47372
25.24805,48529
25.25738,46947
25.26672,49809
25.27607,49002
25.28540,50527
25.29473,51821
25.30408,50297
25.31342,54828
25.32277,71781
25.33210,106235
25.34143,132487
25.35078,121832
25.36012,93050
25.36945,77031
25.37880,68282
25.38813,65688
25.39747,64330
25.40682,63152
25.41615,59691
25.42548,62051
25.43483,62984
25.44417,61387
25.45350,61407
25.46285,64342
25.47218,64716
25.48153,70770
25.49087,75828
25.50020,76768
25.50955,75654
25.51888,77184
25.52822,75637
25.53757,75033
25.54690,69471
25.55623,69038
25.56558,66512
25.57492,68112
25.58425,64935
25.59360,61860
25.60293,61788
25.61227,63307
25.62162,59426
25.63095,60517
25.64028,65675
25.64963,65498
25.65897,67083
25.66832,68727
25.67765,65694
25.68698,63424
25.69633,60791
25.70567,60176
25.71500,62703
25.72435,59841
25.73368,59013
25.74302,60676
25.75237,65091
25.76170,64188
25.77103,63723
25.78038,62018
25.78972,61429
25.79905,67519
25.80840,69905
25.81773,73507
25.82707,73967
25.83642,67918
25.84575,64842
25.85510,66988
25.86443,64538
25.87377,62610
25.88312,62637
25.89245,62599
25.90178,59640
25.91113,59801
25.92047,58989
25.92980,63328
25.93915,62143
25.94848,60849
25.95782,64046
25.96717,65228
25.97650,61721
25.98583,58183
25.99518,62236
26.00452,59923
26.01385,60534
26.02320,59891
26.03253,62157
26.04188,61239
26.05122,60614
26.06055,60862
26.06990,61729
26.07923,60976
26.08857,61634
26.09792,62270
26.10725,62160
26.11658,59681
26.12593,62033
26.13527,66744
26.14460,67738
26.15395,67453
26.16328,65888
26.17262,65211
26.18197,63578
26.19130,62787
26.20063,61000
26.20998,61043
26.21932,61626
26.22867,60085
26.23800,58212
26.24733,60762
26.25668,58449
26.26602,59273
26.27535,61076
26.28470,62425
26.29403,61213
26.30337,63442
26.31272,62753
26.32205,61499
26.33138,63186
26.34073,62632
26.35007,60372
26.35940,64085
26.36875,64354
26.37808,61891
26.38742,62272
26.39677,62221
26.40610,60101
26.41545,59459
26.42478,61269
26.43412,63818
26.44347,61514
26.45280,64549
26.46213,65183
26.47148,66695
26.48082,67325
26.49015,66937
26.49950,69049
26.50883,66763
26.51817,68659
26.52752,69686
26.53685,71303
26.54618,73889
26.55553,75752
26.56487,72828
26.57422,71436
26.58355,72881
26.59288,73335
26.60223,73350
26.61157,74624
26.62090,71017
26.63025,67335
26.63958,70114
26.64892,71531
26.65827,67554
26.66760,68897
26.67693,69501
26.68628,69384
26.69562,67633
26.70495,68159
26.71430,68067
26.72363,68525
26.73297,69074
26.74232,69758
26.75165,71207
26.76100,72248
26.77033,71909
26.77967,71177
26.78902,72634
26.79835,73026
26.80768,71709
26.81703,73564
26.82637,72781
26.83570,73780
26.84505,76307
26.85438,78044
26.86372,78577
26.87307,79330
26.88240,76721
26.89173,75287
26.90108,74355
26.91042,74814
26.91975,71587
26.92910,71335
26.93843,70566
26.94778,70304
26.95712,73038
26.96645,71622
26.97580,70819
26.98513,71502
26.99447,73930
27.00382,71747
27.01315,72319
27.02248,74571
27.03183,73993
27.04117,71237
27.05050,72738
27.05985,71900
27.06918,71277
27.07852,74220
27.08787,73607
27.09720,75330
27.10653,71782
27.11588,73883
27.12522,74027
27.13457,73393
27.14390,75257
27.15323,74934
27.16258,74685
27.17192,76680
27.18125,73370
27.19060,69512
27.19993,72367
27.20927,70538
27.21862,72801
27.22795,75136
27.23728,74601
27.24663,78167
27.25597,81646
27.26530,84063
27.27465,81129
27.28398,78876
27.29333,74954
27.30267,76007
27.31200,70993
27.32135,74785
27.33068,74039
27.34002,73103
27.34937,73639
27.35870,72160
27.36803,70555
27.37738,72657
27.38672,74841
27.39605,74289
27.40540,77489
27.41473,76527
27.42407,77851
27.43342,82631
27.44275,83770
27.45208,81393
27.46143,80763
27.47077,79476
27.48012,77782
27.48945,79870
27.49878,80577
27.50813,78673
27.51747,80329
27.52680,80901
27.53615,79305
27.54548,81040
27.55482,80473
27.56417,77963
27.57350,76885
27.58283,78436
27.59218,77977
27.60152,76060
27.61085,74851
27.62020,78161
27.62953,77846
27.63887,78387
27.64822,78434
27.65755,79634
27.66690,84882
27.67623,92633
27.68557,101925
27.69492,101468
27.70425,94134
27.71358,89853
27.72293,86965
27.73227,84251
27.74160,83257
27.75095,84768
27.76028,83186
27.76962,83829
27.77897,84146
27.78830,84478
27.79763,85109
27.80698,83927
27.81632,83031
27.82565,84433
27.83500,85157
27.84433,81721
27.85368,83446
27.86302,82076
27.87235,82529
27.88170,81901
27.89103,81076
27.90037,83799
27.90972,82827
27.91905,84237
27.92838,86542
27.93773,88658
27.94707,89133
27.95640,86633
27.96575,88127
27.97508,85848
27.98442,83511
27.99377,84974
28.00310,86624
28.01243,85015
28.02178,84786
28.03112,86946
28.04047,84800
28.04980,86216
28.05913,87390
28.06848,84571
28.07782,87229
28.08715,83225
28.09650,86562
28.10583,84752
28.11517,88871
28.12452,88797
28.13385,96218
28.14318,92835
28.15253,94253
28.16187,93964
28.17120,87108
28.18055,92272
28.18988,90826
28.19922,89630
28.20857,87901
28.21790,91240
28.22725,92021
28.23658,91231
28.24592,88491
28.25527,87481
28.26460,91499
28.27393,89951
28.28328,90337
28.29262,91235
28.30195,86562
28.31130,90186
28.32063,90661
28.32997,91197
28.33932,90659
28.34865,89475
28.35798,93115
28.36733,92000
28.37667,92255
28.38602,93850
28.39535,92413
28.40468,90195
28.41403,91230
28.42337,88801
28.43270,94427
28.44205,91286
28.45138,93859
28.46072,93932
28.47007,96416
28.47940,95178
28.48873,93705
28.49808,94981
28.50742,97036
28.51675,100198
28.52610,101672
28.53543,103275
28.54477,101622
28.55412,103797
28.56345,102327
28.57280,102808
28.58213,105541
28.59147,105132
28.60082,107713
28.61015,109653
28.61948,109658
28.62883,106632
28.63817,105267
28.64750,105850
28.65685,110602
28.66618,119156
28.67552,146668
28.68487,188455
28.69420,195285
28.70353,173460
28.71288,140511
28.72222,122239
28.73155,116419
28.74090,110116
28.75023,108887
28.75958,108876
28.76892,106513
28.77825,108016
28.78760,106815
28.79693,107321
28.80627,108470
28.81562,106703
28.82495,107295
28.83428,106426
28.84363,110176
28.85297,108801
28.86230,108942
28.87165,109976
28.88098,110942
28.89032,109330
28.89967,106737
28.90900,107599
28.91833,108513
28.92768,108970
28.93702,110472
28.94637,108343
28.95570,108782
28.96503,110591
28.97438,111232
28.98372,111948
28.99305,111811
29.00240,109943
29.01173,109856
29.02107,113968
29.03042,113975
29.03975,114476
29.04908,117328
29.05843,116489
29.06777,112138
29.07710,114192
29.08645,112302
29.09578,114191
29.10513,112400
29.11447,112706
29.12380,111165
29.13315,110938
29.14248,115815
29.15182,115146
29.16117,111549
29.17050,114271
29.17983,108147
29.18918,113803
29.19852,112863
29.20785,115895
29.21720,122397
29.22653,117600
29.23587,116332
29.24522,115851
29.25455,112509
29.26388,113292
29.27323,115558
29.28257,113938
29.29192,113746
29.30125,114600
29.31058,116682
29.31993,119406
29.32927,113881
29.33860,118234
29.34795,116470
29.35728,115844
29.36662,118783
29.37597,120411
29.38530,118923
29.39463,119458
29.40398,123797
29.41332,122665
29.42265,123778
29.43200,125482
29.44133,124253
29.45067,124047
29.46002,124956
29.46935,134657
29.47870,133974
29.48803,133470
29.49737,135538
29.50672,131200
29.51605,124393
29.52538,120973
29.53473,119452
29.54407,119893
29.55340,117619
29.56275,118284
29.57208,120818
29.58142,117500
29.59077,118102
29.60010,119157
29.60943,119060
29.61878,120241
29.62812,119795
29.63745,119980
29.64680,118464
29.65613,121814
29.66548,118274
29.67482,120790
29.68415,119919
29.69350,118664
29.70283,119956
29.71217,119819
29.72152,118674
29.73085,117602
29.74018,122361
29.74953,121520
29.75887,119944
29.76820,116330
29.77755,111213
29.78688,114934
29.79622,112702
29.80557,114267
29.81490,115050
29.82423,115585
29.83358,115240
29.84292,113948
29.85227,112269
29.86160,113810
29.87093,112493
29.88028,113377
29.88962,115803
29.89895,117550
29.90830,111256
29.91763,114132
29.92697,114436
29.93632,119554
29.94565,121301
29.95498,120362
29.96433,123888
29.97367,131453
29.98300,142399
29.99235,148648
30.00168,153724
30.01102,149418
30.02037,138514
30.02970,131104
30.03905,130122
30.04838,127868
30.05772,128116
30.06707,127830
30.07640,128193
30.08573,126970
30.09508,130258
30.10442,128490
30.11375,123160
30.12310,126640
30.13243,128022
30.14177,127099
30.15112,127191
30.16045,127218
30.16978,127795
30.17913,125406
30.18847,123010
30.19782,122078
30.20715,124361
30.21648,124123
30.22583,123854
30.23517,124604
30.24450,121141
30.25385,123870
30.26318,123916
30.27252,121775
30.28187,122101
30.29120,123631
30.30053,125446
30.30988,124566
30.31922,123986
30.32855,124135
30.33790,122671
30.34723,123716
30.35657,124932
30.36592,128843
30.37525,126976
30.38460,128433
30.39393,126790
30.40327,131645
30.41262,134522
30.42195,136044
30.43128,131403
30.44063,128859
30.44997,127301
30.45930,128156
30.46865,123943
30.47798,125120
30.48732,123483
30.49667,123108
30.50600,125566
30.51533,125236
30.52468,124892
30.53402,125384
30.54335,123487
30.55270,123384
30.56203,125069
30.57138,125400
30.58072,125166
30.59005,127772
30.59940,127249
30.60873,130055
30.61807,128171
30.62742,136056
30.63675,132402
30.64608,133364
30.65543,139052
30.66477,139249
30.67410,139329
30.68345,140009
30.69278,134456
30.70212,131494
30.71147,134612
30.72080,128542
30.73013,127914
30.73948,128907
30.74882,127536
30.75817,127811
30.76750,128147
30.77683,125163
30.78618,127194
30.79552,128586
30.80485,129975
30.81420,131138
30.82353,130264
30.83287,127789
30.84222,130926
30.85155,134337
30.86088,132057
30.87023,129505
30.87957,132038
30.88890,133576
30.89825,132359
30.90758,131890
30.91693,132591
30.92627,135317
30.93560,135345
30.94495,133153
30.95428,133333
30.96362,135711
30.97297,137427
30.98230,135809
30.99163,133691
31.00098,132427
31.01032,128179
31.01965,133389
31.02900,129787
31.03833,131126
31.04767,131450
31.05702,128714
31.06635,131869
31.07568,130902
31.08503,132254
31.09437,130018
31.10372,132673
31.11305,131320
31.12238,130759
31.13173,130074
31.14107,130524
31.15040,131817
31.15975,136167
31.16908,130226
31.17842,131200
31.18777,134085
31.19710,134561
31.20643,133887
31.21578,136445
31.22512,134109
31.23445,132012
31.24380,136107
31.25313,133698
31.26247,131879
31.27182,131424
31.28115,131502
31.29050,133666
31.29983,131387
31.30917,132610
31.31852,132396
31.32785,133922
31.33718,132761
31.34653,131240
31.35587,133388
31.36520,127914
