D:\数据\20211118\ZS1E-Z-0000013.D Fri Nov 19 00:56:29 2021
Start of data points
0.09737,41911
0.10672,41301
0.11605,41790
0.12538,42038
0.13473,41329
0.14407,43052
0.15340,41757
0.16275,39580
0.17208,40436
0.18142,39258
0.19077,38796
0.20010,40944
0.20943,38519
0.21878,39972
0.22812,38114
0.23747,39309
0.24680,39979
0.25613,39069
0.26548,39202
0.27482,37634
0.28415,39538
0.29350,37336
0.30283,36260
0.31217,38285
0.32152,37493
0.33085,39294
0.34018,38342
0.34953,36532
0.35887,39093
0.36820,36499
0.37755,36329
0.38688,38608
0.39622,37513
0.40557,38291
0.41490,37043
0.42425,36084
0.43358,36178
0.44292,33933
0.45227,30371
0.46160,24328
0.47093,20650
0.48028,14840
0.48962,14321
0.49895,13283
0.50830,14255
0.51763,11366
0.52697,12230
0.53632,13097
0.54565,11871
0.55498,12176
0.56433,11740
0.57367,12394
0.58302,12153
0.59235,12224
0.60168,11100
0.61103,12508
0.62037,11151
0.62970,10797
0.63905,13240
0.64838,11517
0.65772,10342
0.66707,10516
0.67640,10826
0.68573,11000
0.69508,11287
0.70442,10415
0.71375,10458
0.72310,10889
0.73243,10496
0.74177,9526
0.75112,11662
0.76045,11472
0.76980,11198
0.77913,11320
0.78847,9684
0.79782,10027
0.80715,11745
0.81648,11170
0.82583,10783
0.83517,9828
0.84450,10574
0.85385,11388
0.86318,10925
0.87252,9394
0.88187,9731
0.89120,10646
0.90053,11200
0.90988,11452
0.91922,10258
0.92855,9155
0.93790,11354
0.94723,10361
0.95658,10716
0.96592,11020
0.97525,9551
0.98460,10085
0.99393,9864
1.00327,10763
1.01262,10716
1.02195,10659
1.03128,10643
1.04063,9597
1.04997,10685
1.05930,9894
1.06865,9570
1.07798,10258
1.08732,9267
1.09667,9627
1.10600,10161
1.11533,9965
1.12468,10638
1.13402,9152
1.14337,9530
1.15270,10168
1.16203,9904
1.17138,10285
1.18072,10094
1.19005,10016
1.19940,9367
1.20873,10650
1.21807,10373
1.22742,10590
1.23675,8762
1.24608,9417
1.25543,9294
1.26477,9617
1.27410,9707
1.28345,8872
1.29278,8990
1.30212,9882
1.31147,8412
1.32080,9073
1.33015,9661
1.33948,10594
1.34882,9709
1.35817,9641
1.36750,9340
1.37683,9375
1.38618,8758
1.39552,10373
1.40485,10382
1.41420,10027
1.42353,8968
1.43287,9764
1.44222,8483
1.45155,9220
1.46088,9554
1.47023,8784
1.47957,8769
1.48890,9829
1.49825,8795
1.50758,8624
1.51693,9114
1.52627,10320
1.53560,9124
1.54495,9206
1.55428,9253
1.56362,9122
1.57297,9194
1.58230,9063
1.59163,8419
1.60098,11315
1.61032,16794
1.61965,25590
1.62900,31808
1.63833,39632
1.64767,50948
1.65702,62606
1.66635,68178
1.67570,63167
1.68503,56412
1.69437,48668
1.70372,39179
1.71305,30373
1.72238,27019
1.73173,29428
1.74107,29706
1.75040,34355
1.75975,38199
1.76908,41693
1.77842,45054
1.78777,44973
1.79710,47269
1.80643,46704
1.81578,46094
1.82512,44839
1.83445,42900
1.84380,43469
1.85313,42663
1.86248,46035
1.87182,54914
1.88115,80716
1.89050,133996
1.89983,201195
1.90917,244769
1.91852,294337
1.92785,459504
1.93718,812540
1.94653,1304044
1.95587,1650952
1.96520,1658079
1.97455,1404805
1.98388,1097013
1.99322,857506
2.00257,726034
2.01190,671838
2.02123,625258
2.03058,539029
2.03992,413552
2.04927,293331
2.05860,220057
2.06793,165741
2.07728,130856
2.08662,115541
2.09595,166229
2.10530,213721
2.11463,170197
2.12397,127287
2.13332,134168
2.14265,179188
2.15198,178884
2.16133,145919
2.17067,119444
2.18000,113830
2.18935,136780
2.19868,177286
2.20802,163517
2.21737,124299
2.22670,114200
2.23605,160452
2.24538,276369
2.25472,859249
2.26407,2150849
2.27340,2322600
2.28273,1708289
2.29208,1078222
2.30142,845581
2.31075,3554647
2.32010,1.333402E+07
2.32943,1.868572E+07
2.33877,1.363808E+07
2.34812,6639260
2.35745,2822406
2.36678,1260887
2.37613,627069
2.38547,395791
2.39482,299901
2.40415,243371
2.41348,214544
2.42283,192440
2.43217,175464
2.44150,161866
2.45085,136206
2.46018,125693
2.46952,130473
2.47887,152675
2.48820,155717
2.49753,135795
2.50688,117312
2.51622,108339
2.52555,101547
2.53490,95962
2.54423,89381
2.55357,94901
2.56292,122207
2.57225,568379
2.58160,612511
2.59093,472945
2.60027,330408
2.60962,244426
2.61895,192630
2.62828,185748
2.63763,201753
2.64697,205778
2.65630,212195
2.66565,204381
2.67498,167063
2.68432,125901
2.69367,103520
2.70300,89950
2.71233,95481
2.72168,120541
2.73102,162897
2.74035,211808
2.74970,264150
2.75903,318640
2.76838,402301
2.77772,599282
2.78705,874266
2.79640,977613
2.80573,916116
2.81507,838351
2.82442,823663
2.83375,729925
2.84308,378358
2.85243,264051
2.86177,223022
2.87110,262348
2.88045,311808
2.88978,273748
2.89912,209950
2.90847,163359
2.91780,144976
2.92713,137782
2.93648,128367
2.94582,115988
2.95517,103132
2.96450,98388
2.97383,95415
2.98318,93101
2.99252,89137
3.00185,111088
3.01120,171711
3.02053,213456
3.02987,185954
3.03922,164903
3.04855,191737
3.05788,186366
3.06723,171168
3.07657,168130
3.08590,155287
3.09525,128943
3.10458,105457
3.11392,90774
3.12327,84021
3.13260,83771
3.14195,83768
3.15128,85052
3.16062,86081
3.16997,85348
3.17930,82905
3.18863,79922
3.19798,73960
3.20732,76933
3.21665,82084
3.22600,78308
3.23533,74709
3.24467,72393
3.25402,71134
3.26335,73094
3.27268,67249
3.28203,65712
3.29137,65644
3.30072,66517
3.31005,75661
3.31938,81669
3.32873,75232
3.33807,72308
3.34740,71801
3.35675,73825
3.36608,71168
3.37542,70860
3.38477,68308
3.39410,65406
3.40343,64972
3.41278,67075
3.42212,74393
3.43145,76761
3.44080,81393
3.45013,97010
3.45947,117050
3.46882,110727
3.47815,99147
3.48750,89233
3.49683,85319
3.50617,79234
3.51552,76654
3.52485,77174
3.53418,71855
3.54353,73249
3.55287,82454
3.56220,158534
3.57155,361156
3.58088,534525
3.59022,473290
3.59957,297002
3.60890,173806
3.61823,128388
3.62758,123749
3.63692,109443
3.64625,103124
3.65560,96914
3.66493,91781
3.67428,100275
3.68362,113097
3.69295,105261
3.70230,90778
3.71163,77403
3.72097,72763
3.73032,79806
3.73965,87322
3.74898,88230
3.75833,87661
3.76767,80969
3.77700,73208
3.78635,70843
3.79568,76420
3.80502,75268
3.81437,81545
3.82370,112660
3.83303,152425
3.84238,149230
3.85172,115586
3.86107,93395
3.87040,84466
3.87973,80293
3.88908,81092
3.89842,83759
3.90775,88087
3.91710,90850
3.92643,97710
3.93577,101691
3.94512,128262
3.95445,178668
3.96378,218341
3.97313,212944
3.98247,181199
3.99180,164191
4.00115,161680
4.01048,166441
4.01983,178473
4.02917,188997
4.03850,202615
4.04785,225638
4.05718,246211
4.06652,277694
4.07587,328209
4.08520,373115
4.09453,390418
4.10388,288073
4.11322,197021
4.12255,143866
4.13190,112824
4.14123,100434
4.15057,94884
4.15992,93446
4.16925,89138
4.17858,83574
4.18793,80432
4.19727,76064
4.20662,77649
4.21595,83221
4.22528,82035
4.23463,79628
4.24397,75606
4.25330,74711
4.26265,73246
4.27198,92504
4.28132,120794
4.29067,204837
4.30000,198404
4.30933,176034
4.31868,157637
4.32802,165357
4.33735,176335
4.34670,168258
4.35603,131697
4.36537,102014
4.37472,83465
4.38405,78800
4.39340,83984
4.40273,89122
4.41207,75419
4.42142,70772
4.43075,67798
4.44008,65784
4.44943,62714
4.45877,63352
4.46810,62779
4.47745,69080
4.48678,78055
4.49612,92095
4.50547,88656
4.51480,79292
4.52413,76421
4.53348,75135
4.54282,79812
4.55215,82319
4.56150,79795
4.57083,78116
4.58018,77091
4.58952,73311
4.59885,70183
4.60820,66125
4.61753,65322
4.62687,62982
4.63622,63880
4.64555,65318
4.65488,72617
4.66423,77050
4.67357,75495
4.68290,69119
4.69225,69946
4.70158,68778
4.71092,67430
4.72027,67266
4.72960,64901
4.73893,66067
4.74828,72376
4.75762,72077
4.76697,68129
4.77630,68772
4.78563,70397
4.79498,69298
4.80432,68463
4.81365,69187
4.82300,68701
4.83233,68923
4.84167,71207
4.85102,72911
4.86035,80259
4.86968,86979
4.87903,94510
4.88837,93105
4.89770,87685
4.90705,75321
4.91638,69231
4.92572,63458
4.93507,63279
4.94440,65976
4.95375,68582
4.96308,68256
4.97242,66358
4.98177,63264
4.99110,59225
5.00043,61502
5.00978,65944
5.01912,78683
5.02845,95627
5.03780,108088
5.04713,118249
5.05647,125509
5.06582,134766
5.07515,136213
5.08448,114281
5.09383,98091
5.10317,88957
5.11252,81747
5.12185,76071
5.13118,72083
5.14053,69848
5.14987,70975
5.15920,76358
5.16855,80415
5.17788,77936
5.18722,76851
5.19657,80308
5.20590,85323
5.21523,84904
5.22458,75467
5.23392,75545
5.24325,77260
5.25260,78677
5.26193,77320
5.27127,86845
5.28062,166086
5.28995,358585
5.29930,540573
5.30863,478773
5.31797,285796
5.32732,147826
5.33665,96437
5.34598,80965
5.35533,80664
5.36467,75123
5.37400,71919
5.38335,69326
5.39268,73647
5.40202,79052
5.41137,77005
5.42070,72947
5.43003,68474
5.43938,62842
5.44872,61190
5.45805,62424
5.46740,60343
5.47673,61194
5.48608,59531
5.49542,61668
5.50475,65393
5.51410,69335
5.52343,75038
5.53277,90628
5.54212,107253
5.55145,109823
5.56078,98444
5.57013,91369
5.57947,92908
5.58880,104676
5.59815,116478
5.60748,129767
5.61682,141977
5.62617,147646
5.63550,158542
5.64483,179571
5.65418,200166
5.66352,212324
5.67287,193027
5.68220,171822
5.69153,138522
5.70088,111232
5.71022,103816
5.71955,108404
5.72890,107077
5.73823,100675
5.74757,99744
5.75692,126928
5.76625,167681
5.77558,188752
5.78493,160978
5.79427,119262
5.80360,92160
5.81295,74321
5.82228,70508
5.83163,72936
5.84097,89283
5.85030,92061
5.85965,84090
5.86898,75175
5.87832,64459
5.88767,58778
5.89700,56077
5.90633,55218
5.91568,71051
5.92502,113635
5.93435,160571
5.94370,194100
5.95303,239184
5.96237,234524
5.97172,175365
5.98105,116470
5.99038,81188
5.99973,66586
6.00907,55905
6.01842,49060
6.02775,41931
6.03708,40138
6.04643,39778
6.05577,39897
6.06510,47084
6.07445,53219
6.08378,49210
6.09312,45907
6.10247,41044
6.11180,41349
6.12113,43117
6.13048,51786
6.13982,61165
6.14915,62724
6.15850,53964
6.16783,48382
6.17717,42782
6.18652,44897
6.19585,44122
6.20520,39819
6.21453,38108
6.22387,42514
6.23322,55278
6.24255,67372
6.25188,63665
6.26123,48383
6.27057,43669
6.27990,52748
6.28925,61814
6.29858,54958
6.30792,44196
6.31727,36608
6.32660,31873
6.33593,29168
6.34528,31415
6.35462,31830
6.36395,33738
6.37330,36656
6.38263,50842
6.39198,101622
6.40132,359837
6.41065,1404668
6.42000,3080470
6.42933,3471419
6.43867,2113468
6.44802,792819
6.45735,232716
6.46668,96281
6.47603,64222
6.48537,53803
6.49470,46671
6.50405,39147
6.51338,37738
6.52272,38671
6.53207,37871
6.54140,36100
6.55073,33589
6.56008,31324
6.56942,32108
6.57877,32288
6.58810,34717
6.59743,38920
6.60678,44463
6.61612,43354
6.62545,41004
6.63480,43178
6.64413,44331
6.65347,42643
6.66282,46573
6.67215,47501
6.68148,44616
6.69083,58907
6.70017,65588
6.70950,63732
6.71885,70583
6.72818,76407
6.73753,80707
6.74687,68963
6.75620,54037
6.76555,43970
6.77488,43853
6.78422,43120
6.79357,51060
6.80290,58871
6.81223,61307
6.82158,58296
6.83092,49025
6.84025,41829
6.84960,45123
6.85893,43613
6.86827,39998
6.87762,36856
6.88695,36651
6.89628,35762
6.90563,33969
6.91497,40097
6.92432,49504
6.93365,58813
6.94298,70877
6.95233,84841
6.96167,86973
6.97100,68453
6.98035,52508
6.98968,48613
6.99902,45454
7.00837,41316
7.01770,36880
7.02703,35794
7.03638,34969
7.04572,32093
7.05505,28700
7.06440,29796
7.07373,30402
7.08307,33247
7.09242,39635
7.10175,46400
7.11110,49995
7.12043,51818
7.12977,47466
7.13912,42740
7.14845,38019
7.15778,32399
7.16713,33731
7.17647,38051
7.18580,37133
7.19515,38158
7.20448,36389
7.21382,41317
7.22317,49172
7.23250,58282
7.24183,80240
7.25118,102812
7.26052,95896
7.26985,72166
7.27920,59190
7.28853,56097
7.29788,50486
7.30722,42990
7.31655,38907
7.32590,34828
7.33523,34558
7.34457,33040
7.35392,33598
7.36325,30924
7.37258,29777
7.38193,30707
7.39127,39422
7.40060,72280
7.40995,141572
7.41928,202434
7.42862,191961
7.43797,130214
7.44730,74911
7.45665,49288
7.46598,37944
7.47532,36350
7.48467,41378
7.49400,46183
7.50333,46557
7.51268,39341
7.52202,32474
7.53135,29923
7.54070,30388
7.55003,31503
7.55937,31866
7.56872,32672
7.57805,39553
7.58738,47568
7.59673,56906
7.60607,61797
7.61540,62055
7.62475,61375
7.63408,53261
7.64343,48272
7.65277,43845
7.66210,41451
7.67145,42013
7.68078,44021
7.69012,45261
7.69947,41045
7.70880,41758
7.71813,46682
7.72748,42431
7.73682,41081
7.74615,47722
7.75550,60657
7.76483,60465
7.77417,55977
7.78352,52593
7.79285,53537
7.80218,51288
7.81153,42932
7.82087,35301
7.83022,33272
7.83955,34803
7.84888,38627
7.85823,54658
7.86757,102505
7.87690,162854
7.88625,164730
7.89558,118707
7.90492,73475
7.91427,59562
7.92360,76146
7.93293,91429
7.94228,87310
7.95162,100162
7.96095,128515
7.97030,121519
7.97963,99542
7.98897,101663
7.99832,109642
8.00765,94010
8.01700,73897
8.02633,58168
8.03567,53025
8.04502,62849
8.05435,75057
8.06368,73370
8.07303,57680
8.08237,49803
8.09170,79161
8.10105,137579
8.11038,163287
8.11972,125660
8.12907,80303
8.13840,57002
8.14773,50433
8.15708,48277
8.16642,45618
8.17575,45246
8.18510,42531
8.19443,43542
8.20378,41655
8.21312,41791
8.22245,41785
8.23180,43672
8.24113,46844
8.25047,51329
8.25982,52229
8.26915,51793
8.27848,45330
8.28783,40844
8.29717,40161
8.30650,43349
8.31585,43265
8.32518,42498
8.33452,42078
8.34387,40121
8.35320,38042
8.36253,37700
8.37188,40535
8.38122,56278
8.39057,63055
8.39990,61716
8.40923,58950
8.41858,55201
8.42792,53684
8.43725,53247
8.44660,48063
8.45593,45300
8.46527,43230
8.47462,43446
8.48395,44573
8.49328,43597
8.50263,40663
8.51197,40256
8.52130,39868
8.53065,38296
8.53998,37699
8.54933,40682
8.55867,49702
8.56800,58545
8.57735,62234
8.58668,56754
8.59602,51960
8.60537,49221
8.61470,51161
8.62403,48782
8.63338,47178
8.64272,43424
8.65205,41291
8.66140,39657
8.67073,42089
8.68007,44494
8.68942,44714
8.69875,38508
8.70808,40313
8.71743,40114
8.72677,38170
8.73612,36405
8.74545,44270
8.75478,58305
8.76413,69521
8.77347,69682
8.78280,56915
8.79215,52609
8.80148,59817
8.81082,81593
8.82017,107363
8.82950,107362
8.83883,75237
8.84818,51382
8.85752,45247
8.86685,44971
8.87620,49391
8.88553,53865
8.89487,53066
8.90422,50564
8.91355,47901
8.92290,44779
8.93223,45625
8.94157,45238
8.95092,44329
8.96025,40908
8.96958,43430
8.97893,52348
8.98827,53859
8.99760,52982
9.00695,57209
9.01628,58833
9.02562,56032
9.03497,52755
9.04430,49789
9.05363,47180
9.06298,49061
9.07232,53056
9.08165,62747
9.09100,72874
9.10033,79057
9.10968,74370
9.11902,63358
9.12835,55661
9.13770,55563
9.14703,59114
9.15637,56033
9.16572,47471
9.17505,43973
9.18438,44720
9.19373,46043
9.20307,43998
9.21240,55269
9.22175,90941
9.23108,175359
9.24042,234545
9.24977,218949
9.25910,157934
9.26845,101794
9.27778,75905
9.28712,68090
9.29647,67997
9.30580,62081
9.31513,59140
9.32448,61328
9.33382,87557
9.34315,112215
9.35250,105738
9.36183,107276
9.37117,204665
9.38052,340884
9.38985,366525
9.39918,265665
9.40853,154374
9.41787,99580
9.42720,80812
9.43655,80511
9.44588,71400
9.45523,59977
9.46457,50980
9.47390,43540
9.48325,41404
9.49258,45774
9.50192,54783
9.51127,65190
9.52060,63049
9.52993,56655
9.53928,59190
9.54862,62897
9.55795,76658
9.56730,105280
9.57663,132078
9.58597,112541
9.59532,79076
9.60465,70047
9.61398,81862
9.62333,89799
9.63267,84916
9.64202,82145
9.65135,70335
9.66068,66684
9.67003,57796
9.67937,56355
9.68870,53000
9.69805,53812
9.70738,50574
9.71672,47106
9.72607,66226
9.73540,181892
9.74473,516456
9.75408,879246
9.76342,882315
9.77275,537922
9.78210,262541
9.79143,156916
9.80077,113325
9.81012,90910
9.81945,80730
9.82880,88625
9.83813,115347
9.84747,146525
9.85682,170133
9.86615,152946
9.87548,116251
9.88483,92726
9.89417,103322
9.90350,143500
9.91285,310408
9.92218,615263
9.93152,689757
9.94087,456649
9.95020,216334
9.95953,103828
9.96888,75499
9.97822,100969
9.98755,231798
9.99690,454407
10.00623,533742
10.01558,352103
10.02492,166325
10.03425,86275
10.04360,64338
10.05293,60749
10.06227,66350
10.07162,74225
10.08095,81874
10.09028,91679
10.09963,93967
10.10897,133832
10.11830,569803
10.12765,2311245
10.13698,4999222
10.14632,5513257
10.15567,3571658
10.16500,3119711
10.17433,5143787
10.18368,5721303
10.19302,3143098
10.20237,854504
10.21170,169054
10.22103,81895
10.23038,85089
10.23972,128764
10.24905,209212
10.25840,233119
10.26773,176323
10.27707,114731
10.28642,78550
10.29575,64557
10.30508,62269
10.31443,58157
10.32377,56570
10.33310,55292
10.34245,55718
10.35178,51386
10.36113,55259
10.37047,56601
10.37980,56249
10.38915,52373
10.39848,48059
10.40782,44009
10.41717,45201
10.42650,46788
10.43583,48862
10.44518,49128
10.45452,56132
10.46385,69693
10.47320,92383
10.48253,98716
10.49187,81129
10.50122,56112
10.51055,47701
10.51988,48078
10.52923,44958
10.53857,45089
10.54792,52287
10.55725,53797
10.56658,56974
10.57593,58539
10.58527,56893
10.59460,57664
10.60395,50317
10.61328,44358
10.62262,47819
10.63197,54558
10.64130,72345
10.65063,81648
10.65998,69856
10.66932,56049
10.67865,55487
10.68800,61503
10.69733,64420
10.70667,62995
10.71602,66081
10.72535,80007
10.73470,88587
10.74403,78606
10.75337,75396
10.76272,122443
10.77205,197629
10.78138,201318
10.79073,154714
10.80007,146857
10.80940,210369
10.81875,267090
10.82808,216705
10.83742,127611
10.84677,76405
10.85610,58704
10.86543,54836
10.87478,60762
10.88412,77969
10.89345,95739
10.90280,91010
10.91213,75810
10.92148,60788
10.93082,62582
10.94015,66179
10.94950,66126
10.95883,59749
10.96817,55180
10.97752,54553
10.98685,51779
10.99618,51874
11.00553,51347
11.01487,53645
11.02420,52561
11.03355,48455
11.04288,47405
11.05222,46283
11.06157,43128
11.07090,44729
11.08025,44534
11.08958,44977
11.09892,50544
11.10827,63711
11.11760,86788
11.12693,100400
11.13628,84774
11.14562,71217
11.15495,65485
11.16430,59217
11.17363,54845
11.18297,48930
11.19232,49425
11.20165,47599
11.21098,48048
11.22033,52983
11.22967,51544
11.23900,51616
11.24835,49836
11.25768,50499
11.26703,56180
11.27637,65410
11.28570,62142
11.29505,55122
11.30438,53752
11.31372,51889
11.32307,51720
11.33240,60886
11.34173,83314
11.35108,111394
11.36042,140049
11.36975,151754
11.37910,134703
11.38843,100462
11.39777,77027
11.40712,77310
11.41645,83975
11.42578,80960
11.43513,68604
11.44447,58862
11.45382,57022
11.46315,60947
11.47248,83135
11.48183,103526
11.49117,103467
11.50050,75679
11.50985,60671
11.51918,49529
11.52852,49892
11.53787,48821
11.54720,51041
11.55653,54673
11.56588,76742
11.57522,139157
11.58455,219246
11.59390,241992
11.60323,188855
11.61257,136648
11.62192,106317
11.63125,103645
11.64060,104518
11.64993,116051
11.65927,142582
11.66862,163711
11.67795,149403
11.68728,116298
11.69663,87941
11.70597,73675
11.71530,68915
11.72465,64343
11.73398,63217
11.74332,60719
11.75267,63798
11.76200,65688
11.77133,68010
11.78068,68188
11.79002,77702
11.79935,86066
11.80870,84878
11.81803,69708
11.82738,62231
11.83672,62788
11.84605,65876
11.85540,68463
11.86473,66259
11.87407,68972
11.88342,74126
11.89275,80395
11.90208,75662
11.91143,69139
11.92077,64966
11.93010,61608
11.93945,66353
11.94878,85998
11.95812,100053
11.96747,95669
11.97680,72930
11.98615,63810
11.99548,59046
12.00482,63567
12.01417,86151
12.02350,119730
12.03283,128527
12.04218,108851
12.05152,88248
12.06085,73465
12.07020,64168
12.07953,59534
12.08887,60711
12.09822,67276
12.10755,71007
12.11688,70921
12.12623,66191
12.13557,65250
12.14490,68893
12.15425,72688
12.16358,74987
12.17293,108649
12.18227,219482
12.19160,304043
12.20095,259246
12.21028,137169
12.21962,82423
12.22897,82244
12.23830,109023
12.24763,126236
12.25698,106400
12.26632,106032
12.27565,221931
12.28500,495043
12.29433,665252
12.30367,480214
12.31302,215969
12.32235,102253
12.33168,74227
12.34103,86525
12.35037,106968
12.35972,104875
12.36905,82906
12.37838,70809
12.38773,80684
12.39707,123375
12.40640,178342
12.41575,183362
12.42508,140403
12.43442,111339
12.44377,94260
12.45310,83979
12.46243,83613
12.47178,90132
12.48112,93080
12.49045,96127
12.49980,93848
12.50913,96145
12.51847,96258
12.52782,95259
12.53715,98642
12.54650,94100
12.55583,88146
12.56517,84227
12.57452,96459
12.58385,115387
12.59318,126911
12.60253,126563
12.61187,110204
12.62120,90210
12.63055,82367
12.63988,94699
12.64922,112260
12.65857,113802
12.66790,101514
12.67723,93074
12.68658,79934
12.69592,67652
12.70527,62842
12.71460,68336
12.72393,75159
12.73328,85489
12.74262,84289
12.75195,87117
12.76130,99850
12.77063,107763
12.77997,91530
12.78932,71385
12.79865,61212
12.80798,60875
12.81733,63196
12.82667,67614
12.83600,71416
12.84535,75753
12.85468,72197
12.86402,68125
12.87337,69865
12.88270,68596
12.89205,67223
12.90138,72400
12.91072,76918
12.92007,69478
12.92940,63086
12.93873,61024
12.94808,69789
12.95742,76449
12.96675,75022
12.97610,72082
12.98543,60856
12.99477,57266
13.00412,56870
13.01345,58589
13.02278,61277
13.03213,72623
13.04147,88978
13.05080,96890
13.06015,87914
13.06948,92677
13.07883,120828
13.08817,134532
13.09750,112282
13.10685,86444
13.11618,74792
13.12552,71846
13.13487,72552
13.14420,82998
13.15353,92281
13.16288,89377
13.17222,88723
13.18155,96869
13.19090,149456
13.20023,556908
13.20957,2237093
13.21892,5379135
13.22825,6945776
13.23758,4733249
13.24693,1781926
13.25627,529214
13.26562,262007
13.27495,181362
13.28428,133301
13.29363,124245
13.30297,125765
13.31230,135332
13.32165,137684
13.33098,138928
13.34032,136348
13.34967,119816
13.35900,119716
13.36833,112477
13.37768,100411
13.38702,85433
13.39635,89478
13.40570,118049
13.41503,132690
13.42437,113452
13.43372,88889
13.44305,93218
13.45240,115625
13.46173,114148
13.47107,105276
13.48042,93483
13.48975,91697
13.49908,87976
13.50843,81355
13.51777,100152
13.52710,175803
13.53645,299116
13.54578,338509
13.55512,236813
13.56447,123763
13.57380,78817
13.58313,68163
13.59248,64985
13.60182,62985
13.61115,63665
13.62050,63306
13.62983,74096
13.63918,133695
13.64852,276502
13.65785,400404
13.66720,354320
13.67653,225485
13.68587,130253
13.69522,87974
13.70455,71982
13.71388,71647
13.72323,66354
13.73257,64534
13.74190,60060
13.75125,57700
13.76058,61218
13.76992,67527
13.77927,64953
13.78860,60641
13.79795,60893
13.80728,71849
13.81662,82489
13.82597,84001
13.83530,70505
13.84463,63342
13.85398,59762
13.86332,64259
13.87265,72588
13.88200,78232
13.89133,90890
13.90067,126310
13.91002,209641
13.91935,410515
13.92868,669887
13.93803,674493
13.94737,389475
13.95670,175209
13.96605,119294
13.97538,107224
13.98473,88300
13.99407,77629
14.00340,74749
14.01275,77666
14.02208,75811
14.03142,67943
14.04077,70402
14.05010,146657
14.05943,804796
14.06878,3578315
14.07812,9697439
14.08745,1.505163E+07
14.09680,1.351766E+07
14.10613,5537903
14.11547,956679
14.12482,161508
14.13415,93883
14.14348,86101
14.15283,84319
14.16217,92890
14.17152,108074
14.18085,131192
14.19018,193570
14.19953,353823
14.20887,481899
14.21820,398404
14.22755,202001
14.23688,96320
14.24622,64250
14.25557,56547
14.26490,61243
14.27423,73729
14.28358,82545
14.29292,80532
14.30225,70395
14.31160,66540
14.32093,77290
14.33027,121478
14.33962,162907
14.34895,166937
14.35830,130741
14.36763,96291
14.37697,77742
14.38632,67577
14.39565,64709
14.40498,68380
14.41433,67739
14.42367,63421
14.43300,56395
14.44235,62572
14.45168,89286
14.46102,160574
14.47037,252266
14.47970,294958
14.48903,231296
14.49838,143059
14.50772,88459
14.51707,65008
14.52640,57234
14.53573,55630
14.54508,58668
14.55442,62553
14.56375,70570
14.57310,74311
14.58243,75787
14.59177,70870
14.60112,66308
14.61045,63704
14.61978,61492
14.62913,58615
14.63847,64409
14.64780,78702
14.65715,104813
14.66648,127877
14.67582,122068
14.68517,96311
14.69450,78932
14.70385,65635
14.71318,60001
14.72252,56657
14.73187,60702
14.74120,67647
14.75053,71591
14.75988,69968
14.76922,68633
14.77855,71351
14.78790,81329
14.79723,96836
14.80657,116606
14.81592,119634
14.82525,104313
14.83458,85889
14.84393,72340
14.85327,63849
14.86260,66683
14.87195,85811
14.88128,123193
14.89063,138034
14.89997,118362
14.90930,87853
14.91865,68028
14.92798,65953
14.93732,68567
14.94667,71421
14.95600,77313
14.96533,87192
14.97468,106731
14.98402,128675
14.99335,120283
15.00270,104188
15.01203,101530
15.02137,113872
15.03072,113804
15.04005,99977
15.04938,96952
15.05873,110295
15.06807,114228
15.07742,126613
15.08675,130107
15.09608,104065
15.10543,80088
15.11477,68197
15.12410,75176
15.13345,100692
15.14278,132180
15.15212,135600
15.16147,101601
15.17080,77278
15.18013,66985
15.18948,74004
15.19882,94526
15.20815,136899
15.21750,200144
15.22683,292218
15.23617,335807
15.24552,297139
15.25485,212969
15.26420,140826
15.27353,93612
15.28287,78385
15.29222,77313
15.30155,75992
15.31088,75566
15.32023,75617
15.32957,71292
15.33890,79282
15.34825,85316
15.35758,84726
15.36692,87078
15.37627,101273
15.38560,115124
15.39493,105327
15.40428,81183
15.41362,65120
15.42295,69573
15.43230,79903
15.44163,87128
15.45098,81521
15.46032,67984
15.46965,64642
15.47900,68673
15.48833,74369
15.49767,80519
15.50702,100820
15.51635,157918
15.52568,260716
15.53503,309661
15.54437,224426
15.55370,135534
15.56305,87201
15.57238,64840
15.58172,62965
15.59107,59339
15.60040,62842
15.60975,67574
15.61908,71115
15.62842,81791
15.63777,98533
15.64710,111135
15.65643,112127
15.66578,133487
15.67512,166754
15.68445,209338
15.69380,305777
15.70313,385682
15.71247,350736
15.72182,241877
15.73115,150499
15.74048,97341
15.74983,94218
15.75917,125558
15.76850,153463
15.77785,153128
15.78718,126333
15.79653,97983
15.80587,83158
15.81520,91246
15.82455,129287
15.83388,199617
15.84322,339639
15.85257,480452
15.86190,465351
15.87123,281876
15.88058,152224
15.88992,132673
15.89925,152379
15.90860,176505
15.91793,178645
15.92727,139154
15.93662,105176
15.94595,79662
15.95528,71300
15.96463,74390
15.97397,94151
15.98332,133550
15.99265,207796
16.00198,262127
16.01133,244381
16.02067,162196
16.03000,98018
16.03935,74840
16.04868,72698
16.05802,78234
16.06737,83157
16.07670,82651
16.08603,80230
16.09538,73246
16.10472,75299
16.11405,84272
16.12340,113642
16.13273,136923
16.14207,135623
16.15142,105422
16.16075,84842
16.17010,78541
16.17943,75531
16.18877,67548
16.19812,68382
16.20745,81846
16.21678,112933
16.22613,135845
16.23547,138740
16.24480,124140
16.25415,101910
16.26348,94866
16.27282,125451
16.28217,261278
16.29150,788839
16.30083,2011113
16.31018,2997949
16.31952,2500419
16.32887,1200460
16.33820,370830
16.34753,122547
16.35688,78705
16.36622,64653
16.37555,58360
16.38490,56558
16.39423,56331
16.40357,60505
16.41292,65913
16.42225,65061
16.43158,70870
16.44093,68620
16.45027,69958
16.45960,92352
16.46895,122137
16.47828,128347
16.48762,108885
16.49697,94680
16.50630,91992
16.51565,90628
16.52498,86928
16.53432,88279
16.54367,82571
16.55300,78951
16.56233,69662
16.57168,65861
16.58102,73484
16.59035,89899
16.59970,101020
16.60903,90478
16.61837,76385
16.62772,87227
16.63705,111607
16.64638,126387
16.65573,116394
16.66507,95228
16.67440,81444
16.68375,72602
16.69308,81426
16.70243,102474
16.71177,112823
16.72110,105330
16.73045,84127
16.73978,78573
16.74912,116270
16.75847,213914
16.76780,250580
16.77713,194632
16.78648,109776
16.79582,75251
16.80515,73157
16.81450,80877
16.82383,85989
16.83317,96656
16.84252,108364
16.85185,113864
16.86118,105835
16.87053,92970
16.87987,77322
16.88922,73555
16.89855,71930
16.90788,81399
16.91723,106554
16.92657,142777
16.93590,144387
16.94525,112616
16.95458,98541
16.96392,111674
16.97327,122526
16.98260,120135
16.99193,100807
17.00128,89173
17.01062,77713
17.01995,73796
17.02930,88338
17.03863,142420
17.04797,188375
17.05732,172469
17.06665,120516
17.07600,104211
17.08533,97557
17.09467,95045
17.10402,92287
17.11335,87691
17.12268,76653
17.13203,70769
17.14137,81814
17.15070,92022
17.16005,84640
17.16938,68487
17.17872,67537
17.18807,69469
17.19740,72476
17.20673,67410
17.21608,64761
17.22542,61339
17.23477,62459
17.24410,60676
17.25343,61259
17.26278,67002
17.27212,72254
17.28145,76488
17.29080,89976
17.30013,99318
17.30947,95454
17.31882,95063
17.32815,96227
17.33748,94318
17.34683,91589
17.35617,78067
17.36550,71422
17.37485,85363
17.38418,173087
17.39352,355506
17.40287,479712
17.41220,378095
17.42155,221940
17.43088,145727
17.44022,111365
17.44957,92885
17.45890,92859
17.46823,87549
17.47758,86112
17.48692,92728
17.49625,173221
17.50560,745631
17.51493,2766855
17.52427,5553489
17.53362,6212226
17.54295,3477301
17.55228,935347
17.56163,190367
17.57097,93270
17.58030,96225
17.58965,108628
17.59898,118390
17.60833,106611
17.61767,90559
17.62700,82079
17.63635,82385
17.64568,81915
17.65502,83634
17.66437,100281
17.67370,123760
17.68303,149435
17.69238,168027
17.70172,177569
17.71105,162853
17.72040,150042
17.72973,140277
17.73907,120464
17.74842,100417
17.75775,107405
17.76708,120462
17.77643,128157
17.78577,124586
17.79512,113879
17.80445,93715
17.81378,85963
17.82313,77208
17.83247,71416
17.84180,73519
17.85115,81151
17.86048,103709
17.86982,126498
17.87917,137964
17.88850,127349
17.89783,113294
17.90718,112923
17.91652,100889
17.92585,89121
17.93520,85735
17.94453,89887
17.95388,87844
17.96322,81842
17.97255,72505
17.98190,69867
17.99123,66678
18.00057,66409
18.00992,69153
18.01925,77080
18.02858,79482
18.03793,79746
18.04727,84826
18.05660,88701
18.06595,99025
18.07528,99912
18.08462,87663
18.09397,79886
18.10330,89461
18.11263,118413
18.12198,159803
18.13132,164945
18.14067,144537
18.15000,122877
18.15933,118171
18.16868,109033
18.17802,101918
18.18735,94355
18.19670,87566
18.20603,82190
18.21537,80566
18.22472,85987
18.23405,87155
18.24338,89307
18.25273,83466
18.26207,74882
18.27140,71891
18.28075,83918
18.29008,100011
18.29942,116438
18.30877,126678
18.31810,130734
18.32745,124880
18.33678,113518
18.34612,119527
18.35547,139243
18.36480,164230
18.37413,176268
18.38348,154696
18.39282,146385
18.40215,185311
18.41150,276636
18.42083,312435
18.43017,241131
18.43952,148450
18.44885,123319
18.45818,136740
18.46753,133412
18.47687,111181
18.48620,99192
18.49555,115173
18.50488,160419
18.51423,221167
18.52357,253519
18.53290,228968
18.54225,176215
18.55158,144925
18.56092,143265
18.57027,145497
18.57960,123631
18.58893,100962
18.59828,90246
18.60762,95656
18.61695,120244
18.62630,157227
18.63563,158817
18.64497,144269
18.65432,132232
18.66365,139690
18.67298,173475
18.68233,227726
18.69167,247704
18.70102,208631
18.71035,181055
18.71968,183668
18.72903,179837
18.73837,160596
18.74770,139145
18.75705,121384
18.76638,110450
18.77572,98750
18.78507,87083
18.79440,83622
18.80373,86205
18.81308,93358
18.82242,108412
18.83175,119692
18.84110,117747
18.85043,105141
18.85977,97672
18.86912,94415
18.87845,94431
18.88780,91365
18.89713,87791
18.90647,89741
18.91582,113897
18.92515,152439
18.93448,162627
18.94383,135140
18.95317,131927
18.96250,152574
18.97185,178858
18.98118,179622
18.99052,158777
18.99987,128704
19.00920,109427
19.01853,101743
19.02788,97897
19.03722,99668
19.04657,118872
19.05590,187241
19.06523,312367
19.07458,382263
19.08392,446956
19.09325,532861
19.10260,519374
19.11193,343650
19.12127,198209
19.13062,120705
19.13995,88623
19.14928,80355
19.15863,77484
19.16797,76051
19.17730,74724
19.18665,79423
19.19598,93122
19.20532,114175
19.21467,125657
19.22400,126457
19.23335,121040
19.24268,116964
19.25202,106452
19.26137,98743
19.27070,89665
19.28003,98452
19.28938,121240
19.29872,144352
19.30805,180819
19.31740,274978
19.32673,352947
19.33607,310332
19.34542,202871
19.35475,132045
19.36408,98532
19.37343,85505
19.38277,81074
19.39210,83761
19.40145,88030
19.41078,96003
19.42013,99066
19.42947,93665
19.43880,84850
19.44815,79070
19.45748,81753
19.46682,80491
19.47617,87655
19.48550,100169
19.49483,115110
19.50418,127842
19.51352,120037
19.52285,100018
19.53220,82141
19.54153,85421
19.55087,89505
19.56022,84230
19.56955,88693
19.57888,104108
19.58823,121016
19.59757,129764
19.60692,113786
19.61625,104544
19.62558,91484
19.63493,105965
19.64427,128223
19.65360,138738
19.66295,124620
19.67228,96420
19.68162,94881
19.69097,109778
19.70030,133541
19.70963,143512
19.71898,140983
19.72832,164992
19.73765,228607
19.74700,281870
19.75633,241910
19.76568,168073
19.77502,130462
19.78435,128110
19.79370,122467
19.80303,119627
19.81237,109136
19.82172,97140
19.83105,94768
19.84038,95748
19.84973,88557
19.85907,84837
19.86840,90712
19.87775,116189
19.88708,172761
19.89642,201168
19.90577,164961
19.91510,130248
19.92443,118879
19.93378,113311
19.94312,104165
19.95247,105365
19.96180,108620
19.97113,113825
19.98048,115568
19.98982,101393
19.99915,93808
20.00850,86667
20.01783,96264
20.02717,109496
20.03652,118345
20.04585,122224
20.05518,117943
20.06453,111150
20.07387,108833
20.08320,105163
20.09255,105089
20.10188,102349
20.11122,94205
20.12057,81341
20.12990,79249
20.13925,78897
20.14858,85173
20.15792,103690
20.16727,128353
20.17660,132205
20.18593,116623
20.19528,103136
20.20462,89409
20.21395,89848
20.22330,97861
20.23263,100849
20.24197,105032
20.25132,107141
20.26065,107425
20.26998,98740
20.27933,87579
20.28867,93146
20.29800,98450
20.30735,100622
20.31668,97530
20.32603,85147
20.33537,77116
20.34470,75073
20.35405,78385
20.36338,88460
20.37272,96453
20.38207,96536
20.39140,88630
20.40073,85026
20.41008,77933
20.41942,75712
20.42875,75359
20.43810,79158
20.44743,81770
20.45677,80858
20.46612,87233
20.47545,106409
20.48478,131251
20.49413,132832
20.50347,103825
20.51282,84575
20.52215,83628
20.53148,81925
20.54083,80215
20.55017,85149
20.55950,96797
20.56885,151681
20.57818,339880
20.58752,659889
20.59687,716801
20.60620,443137
20.61553,200417
20.62488,118513
20.63422,124896
20.64355,203429
20.65290,308714
20.66223,323375
20.67157,230684
20.68092,152302
20.69025,120366
20.69960,107137
20.70893,104377
20.71827,104613
20.72762,111793
20.73695,106996
20.74628,101213
20.75563,95960
20.76497,97231
20.77430,91000
20.78365,89462
20.79298,94899
20.80232,107544
20.81167,116336
20.82100,109761
20.83033,95520
20.83968,91306
20.84902,82758
20.85837,81185
20.86770,78522
20.87703,79083
20.88638,80682
20.89572,83346
20.90505,88074
20.91440,91223
20.92373,88383
20.93307,85123
20.94242,81265
20.95175,78950
20.96108,76386
20.97043,74362
20.97977,75357
20.98910,75627
20.99845,75564
21.00778,78736
21.01712,79404
21.02647,81207
21.03580,77156
21.04515,76611
21.05448,81720
21.06382,83628
21.07317,87181
21.08250,84631
21.09183,83348
21.10118,84817
21.11052,87104
21.11985,89449
21.12920,93271
21.13853,98951
21.14787,102047
21.15722,100987
21.16655,95163
21.17588,93817
21.18523,101138
21.19457,114419
21.20390,108452
21.21325,99153
21.22258,89894
21.23193,85691
21.24127,86508
21.25060,87179
21.25995,86158
21.26928,88278
21.27862,114789
21.28797,155249
21.29730,194389
21.30663,194069
21.31598,150050
21.32532,112162
21.33465,96214
21.34400,87389
21.35333,87904
21.36267,93319
21.37202,90597
21.38135,85800
21.39068,91050
21.40003,94128
21.40937,97181
21.41872,98024
21.42805,102830
21.43738,101236
21.44673,96345
21.45607,96129
21.46540,88014
21.47475,85635
21.48408,91305
21.49342,100272
21.50277,103711
21.51210,99739
21.52143,96937
21.53078,95503
21.54012,90861
21.54945,89167
21.55880,95949
21.56813,116152
21.57748,153797
21.58682,177270
21.59615,161720
21.60550,127866
21.61483,107407
21.62417,94508
21.63352,94963
21.64285,97374
21.65218,97959
21.66153,91528
21.67087,90019
21.68020,101979
21.68955,130647
21.69888,166471
21.70822,181117
21.71757,160679
21.72690,136618
21.73623,120292
21.74558,110806
21.75492,104445
21.76427,90944
21.77360,84238
21.78293,88080
21.79228,88347
21.80162,92001
21.81095,103250
21.82030,110897
21.82963,119823
21.83897,117737
21.84832,107940
21.85765,97925
21.86698,93045
21.87633,91168
21.88567,100666
21.89500,113495
21.90435,119340
21.91368,114234
21.92302,100980
21.93237,94649
21.94170,90243
21.95105,89873
21.96038,90177
21.96972,98736
21.97907,112082
21.98840,128339
21.99773,142982
22.00708,153189
22.01642,133940
22.02575,113470
22.03510,100214
22.04443,99800
22.05377,115458
22.06312,124456
22.07245,120803
22.08178,114052
22.09113,107183
22.10047,102770
22.10980,98201
22.11915,109664
22.12848,95566
22.13783,88891
22.14717,91225
22.15650,99458
22.16585,127335
22.17518,170006
22.18452,193664
22.19387,179130
22.20320,140489
22.21253,109423
22.22188,110393
22.23122,116860
22.24055,122974
22.24990,119690
22.25923,107991
22.26857,107172
22.27792,126948
22.28725,162663
22.29658,192704
22.30593,189255
22.31527,165664
22.32462,131366
22.33395,107547
22.34328,106510
22.35263,109658
22.36197,129934
22.37130,155943
22.38065,160497
22.38998,164004
22.39932,153311
22.40867,139005
22.41800,115891
22.42733,113397
22.43668,122205
22.44602,135595
22.45535,140076
22.46470,127155
22.47403,119652
22.48337,114361
22.49272,108060
22.50205,98030
22.51140,97191
22.52073,102832
22.53007,100473
22.53942,98648
22.54875,94917
22.55808,95120
22.56743,103112
22.57677,118726
22.58610,136427
22.59545,142792
22.60478,137536
22.61412,130880
22.62347,135551
22.63280,129759
22.64213,127958
22.65148,118877
22.66082,105617
22.67017,96855
22.67950,99222
22.68883,114525
22.69818,139156
22.70752,151610
22.71685,133462
22.72620,121678
22.73553,124477
22.74487,137547
22.75422,151189
22.76355,148585
22.77288,146020
22.78223,133289
22.79157,122190
22.80090,129228
22.81025,153259
22.81958,165811
22.82892,155368
22.83827,136594
22.84760,123968
22.85695,119705
22.86628,117865
22.87562,116047
22.88497,119909
22.89430,120400
22.90363,123168
22.91298,122271
22.92232,126604
22.93165,136354
22.94100,141877
22.95033,133893
22.95967,123751
22.96902,116568
22.97835,116121
22.98768,103560
22.99703,97798
23.00637,100192
23.01570,98603
23.02505,95690
23.03438,94566
23.04373,95824
23.05307,98734
23.06240,101889
23.07175,103259
23.08108,102152
23.09042,98304
23.09977,92538
23.10910,91567
23.11843,91437
23.12778,90802
23.13712,92980
23.14645,92832
23.15580,95633
23.16513,94563
23.17447,92639
23.18382,100733
23.19315,100254
23.20248,96088
23.21183,95701
23.22117,91379
23.23052,92612
23.23985,95283
23.24918,97879
23.25853,108767
23.26787,113925
23.27720,111387
23.28655,103026
23.29588,95685
23.30522,95046
23.31457,94627
23.32390,96484
23.33323,121876
23.34258,163203
23.35192,187583
23.36125,153893
23.37060,115023
23.37993,101543
23.38928,97736
23.39862,100900
23.40795,100506
23.41730,98935
23.42663,99229
23.43597,98047
23.44532,93785
23.45465,97993
23.46398,100724
23.47333,100720
23.48267,102937
23.49200,96639
23.50135,93674
23.51068,91293
23.52002,94206
23.52937,100513
23.53870,99450
23.54803,99794
23.55738,95056
23.56672,93843
23.57607,94065
23.58540,101161
23.59473,102661
23.60408,101775
23.61342,99206
23.62275,93414
23.63210,90254
23.64143,88375
23.65077,87642
23.66012,86208
23.66945,86001
23.67878,87222
23.68813,89414
23.69747,97682
23.70680,102669
23.71615,105799
23.72548,108548
23.73482,119700
23.74417,129000
23.75350,121338
23.76285,107590
23.77218,98568
23.78152,93688
23.79087,91386
23.80020,90886
23.80953,91916
23.81888,89927
23.82822,87905
23.83755,85876
23.84690,90482
23.85623,88654
23.86557,84931
23.87492,89997
23.88425,90807
23.89358,91388
23.90293,92704
23.91227,95719
23.92160,93164
23.93095,93241
23.94028,91722
23.94963,92389
23.95897,92660
23.96830,93529
23.97765,89969
23.98698,90345
23.99632,87497
24.00567,87999
24.01500,92673
24.02433,96598
24.03368,98317
24.04302,94113
24.05235,89215
24.06170,87655
24.07103,87251
24.08037,87236
24.08972,93574
24.09905,95231
24.10838,93872
24.11773,93003
24.12707,90384
24.13642,91742
24.14575,87413
24.15508,90313
24.16443,91534
24.17377,91764
24.18310,92558
24.19245,87875
24.20178,91132
24.21112,86975
24.22047,87496
24.22980,91364
24.23913,92342
24.24848,95615
24.25782,93007
24.26715,94323
24.27650,94045
24.28583,93998
24.29518,95469
24.30452,93310
24.31385,95871
24.32320,102470
24.33253,109304
24.34187,106885
24.35122,104316
24.36055,98338
24.36988,97561
24.37923,95196
24.38857,100689
24.39790,101595
24.40725,107407
24.41658,110444
24.42592,105365
24.43527,104873
24.44460,100809
24.45393,95773
24.46328,96421
24.47262,93647
24.48197,95618
24.49130,96709
24.50063,100332
24.50998,100180
24.51932,98438
24.52865,100689
24.53800,96968
24.54733,103473
24.55667,104493
24.56602,106419
24.57535,101151
24.58468,100414
24.59403,96701
24.60337,96233
24.61270,100125
24.62205,108645
24.63138,113784
24.64072,109758
24.65007,100193
24.65940,101004
24.66875,107587
24.67808,117518
24.68742,123411
24.69677,117098
24.70610,112187
24.71543,107297
24.72478,110749
24.73412,102683
24.74345,100020
24.75280,100637
24.76213,99881
24.77147,96942
24.78082,99281
24.79015,98694
24.79948,98352
24.80883,96868
24.81817,101165
24.82750,101693
24.83685,101736
24.84618,99347
24.85553,97297
24.86487,98067
24.87420,96206
24.88355,103892
24.89288,103317
24.90222,104783
24.91157,104447
24.92090,101788
24.93023,102241
24.93958,99382
24.94892,106271
24.95825,107599
24.96760,108067
24.97693,116310
24.98627,111813
24.99562,110510
25.00495,108227
25.01430,109730
25.02363,107557
25.03297,103364
25.04232,103540
25.05165,103493
25.06098,100383
25.07033,101576
25.07967,103490
25.08900,105324
25.09835,108121
25.10768,105829
25.11702,107427
25.12637,105466
25.13570,109039
25.14503,109468
25.15438,116210
25.16372,118425
25.17305,111880
25.18240,107617
25.19173,106916
25.20108,104938
25.21042,106726
25.21975,104799
25.22910,103102
25.23843,105200
25.24777,103605
25.25712,107911
25.26645,109503
25.27578,106897
25.28513,105844
25.29447,106272
25.30380,106831
25.31315,107367
25.32248,110275
25.33182,123204
25.34117,147342
25.35050,151252
25.35983,144833
25.36918,132269
25.37852,124200
25.38787,122017
25.39720,116163
25.40653,115864
25.41588,117645
25.42522,118552
25.43455,118956
25.44390,116776
25.45323,117964
25.46257,120291
25.47192,118819
25.48125,131690
25.49058,141286
25.49993,154940
25.50927,148872
25.51860,142534
25.52795,139417
25.53728,135115
25.54662,138605
25.55597,133046
25.56530,134484
25.57465,137001
25.58398,129600
25.59332,132568
25.60267,128102
25.61200,129077
25.62133,126561
25.63068,127078
25.64002,126874
25.64935,128247
25.65870,134627
25.66803,142766
25.67737,141482
25.68672,138802
25.69605,133789
25.70538,134094
25.71473,131575
25.72407,134073
25.73340,132839
25.74275,132889
25.75208,132365
25.76143,133810
25.77077,132849
25.78010,137271
25.78945,132046
25.79878,127183
25.80812,133301
25.81747,141160
25.82680,139604
25.83613,139683
25.84548,149142
25.85482,153111
25.86415,144299
25.87350,137869
25.88283,136996
25.89217,135843
25.90152,139383
25.91085,136839
25.92018,139755
25.92953,138994
25.93887,138254
25.94822,146184
25.95755,152398
25.96688,155500
25.97623,153890
25.98557,145508
25.99490,138314
26.00425,138997
26.01358,140583
26.02292,145511
26.03227,145906
26.04160,153838
26.05093,156134
26.06028,164076
26.06962,169373
26.07895,165730
26.08830,157985
26.09763,158820
26.10698,157703
26.11632,150316
26.12565,149756
26.13500,153594
26.14433,157525
26.15367,165266
26.16302,170957
26.17235,176246
26.18168,174735
26.19103,160580
26.20037,153700
26.20970,149991
26.21905,146058
26.22838,147339
26.23772,143533
26.24707,149497
26.25640,145154
26.26573,146917
26.27508,149964
26.28442,151141
26.29377,154539
26.30310,154495
26.31243,153903
26.32178,158290
26.33112,161990
26.34045,160579
26.34980,158530
26.35913,160456
26.36847,160349
26.37782,158131
26.38715,161791
26.39648,157423
26.40583,151087
26.41517,150749
26.42450,152991
26.43385,154019
26.44318,151186
26.45252,158795
26.46187,163652
26.47120,168225
26.48055,168390
26.48988,169458
26.49922,166237
26.50857,167195
26.51790,169964
26.52723,174347
26.53658,181473
26.54592,195689
26.55525,200720
26.56460,186309
26.57393,182384
26.58327,184958
26.59262,185365
26.60195,185317
26.61128,189042
26.62063,196198
26.62997,191905
26.63930,180655
26.64865,174614
26.65798,173050
26.66733,177605
26.67667,182383
26.68600,180809
26.69535,180375
26.70468,174033
26.71402,172845
26.72337,174637
26.73270,170774
26.74203,177330
26.75138,178398
26.76072,171113
26.77005,177802
26.77940,178128
26.78873,180747
26.79807,181815
26.80742,185679
26.81675,181188
26.82610,184629
26.83543,185697
26.84477,182747
26.85412,186093
26.86345,188998
26.87278,192943
26.88213,198002
26.89147,191611
26.90080,189459
26.91015,189662
26.91948,184138
26.92882,187236
26.93817,187786
26.94750,187601
26.95683,184788
26.96618,181577
26.97552,185333
26.98485,186864
26.99420,192139
27.00353,187537
27.01288,196859
27.02222,199036
27.03155,192483
27.04090,191484
27.05023,196509
27.05957,202167
27.06892,205269
27.07825,201409
27.08758,205983
27.09693,203142
27.10627,198979
27.11560,197785
27.12495,197698
27.13428,204254
27.14362,205575
27.15297,208822
27.16230,208665
27.17163,208008
27.18098,198198
27.19032,203354
27.19967,196996
27.20900,196983
27.21833,200167
27.22768,203859
27.23702,201450
27.24635,203670
27.25570,215401
27.26503,225366
27.27437,228666
27.28372,223216
27.29305,210171
27.30238,209799
27.31173,202295
27.32107,202402
27.33040,205485
27.33975,199637
27.34908,203742
27.35842,203345
27.36777,207786
27.37710,210276
27.38645,210119
27.39578,211741
27.40512,211019
27.41447,211044
27.42380,218297
27.43313,217286
27.44248,223541
27.45182,228115
27.46115,223364
27.47050,223560
27.47983,218180
27.48917,223271
27.49852,225588
27.50785,225903
27.51718,221096
27.52653,231931
27.53587,230206
27.54520,227572
27.55455,227598
27.56388,229316
27.57323,226063
27.58257,228693
27.59190,229425
27.60125,230455
27.61058,232636
27.61992,228889
27.62927,226286
27.63860,225053
27.64793,227732
27.65728,235930
27.66662,240028
27.67595,246080
27.68530,252941
27.69463,250010
27.70397,252944
27.71332,246196
27.72265,244058
27.73198,242439
27.74133,243845
27.75067,240707
27.76002,244638
27.76935,246739
27.77868,245062
27.78803,249277
27.79737,248616
27.80670,252810
27.81605,250471
27.82538,246790
27.83472,246191
27.84407,251128
27.85340,251502
27.86273,247949
27.87208,254744
27.88142,249228
27.89075,254251
27.90010,255246
27.90943,253289
27.91878,257557
27.92812,254173
27.93745,258043
27.94680,258711
27.95613,258078
27.96547,255843
27.97482,255108
27.98415,260693
27.99348,256670
28.00283,263426
28.01217,260892
28.02150,264396
28.03085,266837
28.04018,257789
28.04952,263993
28.05887,267559
28.06820,269865
28.07753,269060
28.08688,271750
28.09622,275865
28.10557,279967
28.11490,279117
28.12423,285587
28.13358,296783
28.14292,296945
28.15225,290334
28.16160,288359
28.17093,286717
28.18027,289343
28.18962,286030
28.19895,286216
28.20828,284364
28.21763,294895
28.22697,300322
28.23630,300460
28.24565,301290
28.25498,296972
28.26432,292555
28.27367,294053
28.28300,293105
28.29235,295101
28.30168,292379
28.31102,294951
28.32037,295301
28.32970,300996
28.33903,298329
28.34838,303419
28.35772,298325
28.36705,300274
28.37640,303355
28.38573,300989
28.39507,303536
28.40442,309473
28.41375,312026
28.42308,314366
28.43243,312199
28.44177,310356
28.45110,315501
28.46045,312551
28.46978,313110
28.47913,317292
28.48847,314190
28.49780,316867
28.50715,322159
28.51648,318022
28.52582,321360
28.53517,323857
28.54450,332393
28.55383,335313
28.56318,332533
28.57252,338612
28.58185,341987
28.59120,350130
28.60053,369532
28.60987,384022
28.61922,388337
28.62855,388264
28.63790,388902
28.64723,374668
28.65657,371424
28.66592,382643
28.67525,420581
28.68458,494491
28.69393,545533
28.70327,525285
28.71260,444523
28.72195,385821
28.73128,368026
28.74062,361323
28.74997,361876
28.75930,363815
28.76863,364136
28.77798,354546
28.78732,364886
28.79665,360656
28.80600,366126
28.81533,362861
28.82468,370381
28.83402,371843
28.84335,374546
28.85270,376480
28.86203,368859
28.87137,371880
28.88072,373973
28.89005,376016
28.89938,369738
28.90873,375339
28.91807,372813
28.92740,374908
28.93675,375945
28.94608,383883
28.95542,385089
28.96477,388805
28.97410,398547
28.98343,408449
28.99278,400790
29.00212,403430
29.01147,394376
29.02080,394070
29.03013,392985
29.03948,400843
29.04882,397802
29.05815,399883
29.06750,393259
29.07683,392411
29.08617,389325
29.09552,397295
29.10485,393099
29.11418,392784
29.12353,395773
29.13287,394680
29.14220,394134
29.15155,399093
29.16088,396965
29.17022,396148
29.17957,394308
29.18890,389267
29.19825,399960
29.20758,412231
29.21692,423460
29.22627,416911
29.23560,403820
29.24493,399602
29.25428,403263
29.26362,404506
29.27295,408431
29.28230,409708
29.29163,410245
29.30097,410478
29.31032,408705
29.31965,404860
29.32898,404213
29.33833,412532
29.34767,409739
29.35700,408401
29.36635,405446
29.37568,408571
29.38503,404719
29.39437,410006
29.40370,409050
29.41305,404020
29.42238,405957
29.43172,406371
29.44107,412647
29.45040,416012
29.45973,414895
29.46908,423402
29.47842,429645
29.48775,429669
29.49710,423190
29.50643,419471
29.51577,410771
29.52512,408565
29.53445,409499
29.54380,407437
29.55313,406816
29.56247,406929
29.57182,404625
29.58115,396167
29.59048,404983
29.59983,403440
29.60917,408607
29.61850,401983
29.62785,410773
29.63718,413820
29.64652,403455
29.65587,397954
29.66520,405239
29.67453,403743
29.68388,402346
29.69322,408821
29.70255,406528
29.71190,408248
29.72123,408340
29.73058,409947
29.73992,409685
29.74925,412390
29.75860,416663
29.76793,410862
29.77727,409529
29.78662,408914
29.79595,410496
29.80528,405483
29.81463,408401
29.82397,405568
29.83330,398746
29.84265,402620
29.85198,403325
29.86132,401059
29.87067,399623
29.88000,403066
29.88933,403882
29.89868,405270
29.90802,400991
29.91737,401934
29.92670,400693
29.93603,399605
29.94538,399493
29.95472,405870
29.96405,406781
29.97340,403761
29.98273,403533
29.99207,410006
30.00142,415340
30.01075,414826
30.02008,414921
30.02943,404044
30.03877,402955
30.04810,400009
30.05745,399846
30.06678,405742
30.07612,392626
30.08547,396040
30.09480,398196
30.10415,401300
30.11348,397724
30.12282,397823
30.13217,398809
30.14150,402723
30.15083,411468
30.16018,403152
30.16952,409196
30.17885,403491
30.18820,409388
30.19753,413348
30.20687,407457
30.21622,409089
30.22555,411098
30.23488,417550
30.24423,415429
30.25357,414354
30.26292,412905
30.27225,418498
30.28158,409449
30.29093,407442
30.30027,409024
30.30960,408769
30.31895,409440
30.32828,405441
30.33762,400406
30.34697,408273
30.35630,403973
30.36563,410367
30.37498,408637
30.38432,410010
30.39365,412362
30.40300,418170
30.41233,430140
30.42167,440502
30.43102,432515
30.44035,420122
30.44970,413602
30.45903,416082
30.46837,409455
30.47772,417250
30.48705,425131
30.49638,420711
30.50573,430002
30.51507,426793
30.52440,419731
30.53375,414206
30.54308,410590
30.55242,411860
30.56177,418606
30.57110,412070
30.58043,417855
30.58978,418279
30.59912,420601
30.60845,414904
30.61780,419930
30.62713,422312
30.63648,420805
30.64582,435626
30.65515,449888
30.66450,457134
30.67383,452718
30.68317,447834
30.69252,443524
30.70185,430909
30.71118,421860
30.72053,425014
30.72987,418238
30.73920,412884
30.74855,412758
30.75788,412867
30.76722,407738
30.77657,409364
30.78590,410956
30.79523,418722
30.80458,429432
30.81392,426572
30.82327,428282
30.83260,426998
30.84193,414653
30.85128,422395
30.86062,415492
30.86995,416784
30.87930,409742
30.88863,419577
30.89797,417955
30.90732,419647
30.91665,421008
30.92598,413376
30.93533,416771
30.94467,424657
30.95400,425393
30.96335,427647
30.97268,423689
30.98202,425918
30.99137,429344
31.00070,424998
31.01005,425343
31.01938,418183
31.02872,424765
31.03807,418860
31.04740,419603
31.05673,422485
31.06608,411665
31.07542,418142
31.08475,417227
31.09410,414938
31.10343,412694
31.11277,411197
31.12212,413181
31.13145,413409
31.14078,418469
31.15013,413512
31.15947,411489
31.16880,410562
31.17815,415023
31.18748,413840
31.19683,415049
31.20617,413473
31.21550,414672
31.22485,417290
31.23418,418216
31.24352,416952
31.25287,418017
31.26220,421240
31.27153,419849
31.28088,417919
31.29022,413421
31.29955,419705
31.30890,413356
31.31823,421093
31.32757,422434
31.33692,420127
31.34625,427428
31.35560,420251
31.36493,426458
