D:\数据\20211118\ZS1E-Z-000016.D Fri Nov 19 04:50:21 2021
Start of data points
0.09762,43424
0.10697,43032
0.11630,43513
0.12563,44917
0.13498,45493
0.14432,42816
0.15365,42630
0.16300,42774
0.17233,43631
0.18168,43565
0.19102,42472
0.20035,43635
0.20970,41254
0.21903,41577
0.22837,41205
0.23772,41612
0.24705,41395
0.25638,41101
0.26573,40203
0.27507,41243
0.28440,40859
0.29375,39800
0.30308,39308
0.31242,39725
0.32177,39367
0.33110,38786
0.34043,37812
0.34978,38614
0.35912,38295
0.36847,39178
0.37780,39156
0.38713,40034
0.39648,40555
0.40582,39536
0.41515,38534
0.42450,39132
0.43383,36357
0.44317,30926
0.45252,29030
0.46185,26446
0.47118,20117
0.48053,16162
0.48987,14901
0.49920,13403
0.50855,13183
0.51788,14782
0.52722,14067
0.53657,12566
0.54590,12337
0.55525,13247
0.56458,12297
0.57392,13245
0.58327,11665
0.59260,12915
0.60193,11970
0.61128,12854
0.62062,12099
0.62995,12551
0.63930,11404
0.64863,12576
0.65797,12140
0.66732,11818
0.67665,12553
0.68598,12472
0.69533,12184
0.70467,11849
0.71400,12182
0.72335,11799
0.73268,10893
0.74203,11184
0.75137,10661
0.76070,11359
0.77005,11017
0.77938,11136
0.78872,11449
0.79807,10670
0.80740,11285
0.81673,11325
0.82608,11365
0.83542,9905
0.84475,10609
0.85410,11446
0.86343,10885
0.87277,10249
0.88212,10220
0.89145,10014
0.90080,10082
0.91013,9993
0.91947,10917
0.92882,10385
0.93815,10808
0.94748,10010
0.95683,10919
0.96617,10245
0.97550,10332
0.98485,11695
0.99418,9943
1.00352,10486
1.01287,11913
1.02220,8653
1.03153,11100
1.04088,10742
1.05022,9365
1.05955,9296
1.06890,10688
1.07823,10009
1.08758,10167
1.09692,10286
1.10625,9600
1.11560,10379
1.12493,11456
1.13427,10068
1.14362,10227
1.15295,10779
1.16228,9908
1.17163,10078
1.18097,10365
1.19030,9519
1.19965,10596
1.20898,9077
1.21832,10135
1.22767,10112
1.23700,10101
1.24633,10954
1.25568,9805
1.26502,9168
1.27437,9867
1.28370,10869
1.29303,10365
1.30238,8999
1.31172,9946
1.32105,10437
1.33040,9081
1.33973,9325
1.34907,10027
1.35842,9804
1.36775,9429
1.37708,8953
1.38643,9226
1.39577,10420
1.40510,8673
1.41445,8927
1.42378,9150
1.43312,8797
1.44247,8715
1.45180,8915
1.46115,10157
1.47048,9526
1.47982,9456
1.48917,9656
1.49850,8934
1.50783,9722
1.51718,8283
1.52652,9103
1.53585,9151
1.54520,10029
1.55453,9480
1.56387,8841
1.57322,9206
1.58255,8504
1.59188,9993
1.60123,13998
1.61057,19115
1.61990,26134
1.62925,33153
1.63858,41768
1.64793,52643
1.65727,61147
1.66660,63121
1.67595,58256
1.68528,53899
1.69462,48543
1.70397,39203
1.71330,29298
1.72263,26881
1.73198,29297
1.74132,32300
1.75065,37250
1.76000,40473
1.76933,45061
1.77867,46696
1.78802,47908
1.79735,49394
1.80668,47695
1.81603,47638
1.82537,48008
1.83472,43956
1.84405,46443
1.85338,44905
1.86273,49011
1.87207,53003
1.88140,87102
1.89075,147582
1.90008,204986
1.90942,229339
1.91877,279241
1.92810,510213
1.93743,1104105
1.94678,2078710
1.95612,2845199
1.96545,2786890
1.97480,2261106
1.98413,1692929
1.99348,1268666
2.00282,1009427
2.01215,861378
2.02150,748541
2.03083,623330
2.04017,475164
2.04952,336480
2.05885,243758
2.06818,191892
2.07753,153014
2.08687,140996
2.09620,214277
2.10555,287724
2.11488,214637
2.12422,143742
2.13357,114161
2.14290,134011
2.15223,151527
2.16158,139867
2.17092,118415
2.18027,117358
2.18960,162083
2.19893,232635
2.20828,215984
2.21762,154173
2.22695,124686
2.23630,142951
2.24563,266001
2.25497,1292056
2.26432,3349061
2.27365,3493812
2.28298,2510316
2.29233,1573258
2.30167,1037605
2.31100,2234538
2.32035,7738042
2.32968,1.130108E+07
2.33902,8067674
2.34837,3812573
2.35770,1645621
2.36705,748372
2.37638,409393
2.38572,298154
2.39507,242367
2.40440,207658
2.41373,183653
2.42308,174530
2.43242,183054
2.44175,179671
2.45110,152835
2.46043,127142
2.46977,128097
2.47912,127685
2.48845,117527
2.49778,101358
2.50713,92850
2.51647,88655
2.52580,85693
2.53515,81400
2.54448,82604
2.55383,84334
2.56317,106943
2.57250,127806
2.58185,151817
2.59118,154741
2.60052,133782
2.60987,121854
2.61920,126816
2.62853,225393
2.63788,315691
2.64722,286763
2.65655,234430
2.66590,183150
2.67523,139398
2.68457,111567
2.69392,96768
2.70325,83840
2.71260,80345
2.72193,91422
2.73127,127274
2.74062,166409
2.74995,193775
2.75928,193563
2.76863,180904
2.77797,179293
2.78730,216779
2.79665,246392
2.80598,226457
2.81532,190614
2.82467,168100
2.83400,152986
2.84333,133392
2.85268,115279
2.86202,119629
2.87135,170588
2.88070,209348
2.89003,188112
2.89938,147782
2.90872,114502
2.91805,97817
2.92740,92901
2.93673,85977
2.94607,79235
2.95542,75486
2.96475,73876
2.97408,71088
2.98343,70343
2.99277,71414
3.00210,78463
3.01145,98204
3.02078,112289
3.03012,104240
3.03947,110029
3.04880,129558
3.05813,136591
3.06748,130236
3.07682,129083
3.08617,124950
3.09550,110288
3.10483,90728
3.11418,76175
3.12352,70442
3.13285,69846
3.14220,71061
3.15153,76915
3.16087,84842
3.17022,87532
3.17955,83625
3.18888,78988
3.19823,71980
3.20757,70209
3.21690,71292
3.22625,69605
3.23558,68144
3.24492,63780
3.25427,63975
3.26360,64432
3.27295,63468
3.28228,61979
3.29162,60837
3.30097,63735
3.31030,67474
3.31963,68339
3.32898,65708
3.33832,65193
3.34765,62178
3.35700,63005
3.36633,64081
3.37567,63860
3.38502,60698
3.39435,57854
3.40368,59276
3.41303,63757
3.42237,68079
3.43170,73128
3.44105,72977
3.45038,82679
3.45973,91990
3.46907,88618
3.47840,80918
3.48775,75853
3.49708,74650
3.50642,69471
3.51577,67149
3.52510,65029
3.53443,62795
3.54378,63119
3.55312,72908
3.56245,137267
3.57180,309808
3.58113,452667
3.59047,402598
3.59982,261582
3.60915,165696
3.61850,127472
3.62783,112472
3.63717,104163
3.64652,100186
3.65585,89247
3.66518,85545
3.67453,83978
3.68387,87317
3.69320,83984
3.70255,73389
3.71188,67204
3.72122,70952
3.73057,88268
3.73990,105541
3.74923,99345
3.75858,84197
3.76792,73245
3.77725,65363
3.78660,59828
3.79593,59913
3.80528,63529
3.81462,87840
3.82395,182244
3.83330,346446
3.84263,607394
3.85197,870776
3.86132,838029
3.87065,501128
3.87998,230320
3.88933,133641
3.89867,149725
3.90800,214958
3.91735,233819
3.92668,178598
3.93602,123309
3.94537,110434
3.95470,155778
3.96403,163425
3.97338,144308
3.98272,108718
3.99207,85281
4.00140,71834
4.01073,66114
4.02008,64604
4.02942,66058
4.03875,94798
4.04810,163270
4.05743,255563
4.06677,272332
4.07612,210592
4.08545,174598
4.09478,169561
4.10413,159230
4.11347,128725
4.12280,99419
4.13215,79480
4.14148,73301
4.15082,70731
4.16017,68434
4.16950,68020
4.17885,64812
4.18818,62404
4.19752,61679
4.20687,62768
4.21620,64203
4.22553,64950
4.23488,63337
4.24422,64628
4.25355,60653
4.26290,61463
4.27223,61429
4.28157,70656
4.29092,84663
4.30025,84615
4.30958,75915
4.31893,77896
4.32827,86222
4.33762,97439
4.34695,95781
4.35628,83302
4.36563,69963
4.37497,61622
4.38430,60550
4.39365,62177
4.40298,62108
4.41232,60130
4.42167,56481
4.43100,58980
4.44033,59786
4.44968,55898
4.45902,57281
4.46835,63705
4.47770,72431
4.48703,96551
4.49637,114488
4.50572,101279
4.51505,81530
4.52440,64512
4.53373,63476
4.54307,69115
4.55242,79229
4.56175,72301
4.57108,66273
4.58043,63136
4.58977,61066
4.59910,58829
4.60845,59099
4.61778,58774
4.62712,56695
4.63647,57879
4.64580,66519
4.65513,80862
4.66448,89355
4.67382,83469
4.68315,74854
4.69250,77435
4.70183,94174
4.71118,117911
4.72052,110108
4.72985,87488
4.73920,65738
4.74853,63348
4.75787,62880
4.76722,64649
4.77655,64565
4.78588,64199
4.79523,64891
4.80457,59832
4.81390,61271
4.82325,62537
4.83258,65903
4.84192,72126
4.85127,70251
4.86060,69526
4.86993,69326
4.87928,79712
4.88862,89335
4.89797,89119
4.90730,87740
4.91663,87608
4.92598,81667
4.93532,78815
4.94465,73246
4.95400,69429
4.96333,65567
4.97267,60118
4.98202,56960
4.99135,56243
5.00068,57085
5.01003,57823
5.01937,57755
5.02870,61489
5.03805,63364
5.04738,65370
5.05672,63659
5.06607,61564
5.07540,59698
5.08475,62736
5.09408,62715
5.10342,62385
5.11277,60060
5.12210,59924
5.13143,58009
5.14078,63512
5.15012,67408
5.15945,78050
5.16880,74114
5.17813,65741
5.18747,68601
5.19682,84114
5.20615,93681
5.21548,84984
5.22483,67728
5.23417,62276
5.24350,67943
5.25285,69507
5.26218,67218
5.27153,78461
5.28087,154205
5.29020,331662
5.29955,488770
5.30888,452767
5.31822,296020
5.32757,187374
5.33690,142365
5.34623,113448
5.35558,87658
5.36492,72439
5.37425,65252
5.38360,66347
5.39293,84435
5.40227,101063
5.41162,104386
5.42095,91720
5.43030,82342
5.43963,69069
5.44897,61506
5.45832,57152
5.46765,54331
5.47698,54629
5.48633,55860
5.49567,59673
5.50500,59977
5.51435,62576
5.52368,73284
5.53302,89174
5.54237,112370
5.55170,105837
5.56103,85123
5.57038,69573
5.57972,58571
5.58905,58070
5.59840,59027
5.60773,57613
5.61708,57218
5.62642,53851
5.63575,53133
5.64510,54059
5.65443,55302
5.66377,58962
5.67312,78289
5.68245,103675
5.69178,99998
5.70113,85416
5.71047,76559
5.71980,70640
5.72915,65913
5.73848,64106
5.74782,69667
5.75717,80144
5.76650,86961
5.77583,91223
5.78518,100016
5.79452,90027
5.80387,73126
5.81320,64352
5.82253,60594
5.83188,69550
5.84122,80012
5.85055,81914
5.85990,64190
5.86923,53312
5.87857,47507
5.88792,43689
5.89725,40190
5.90658,48288
5.91593,82736
5.92527,174487
5.93460,259179
5.94395,235444
5.95328,170734
5.96262,133020
5.97197,103982
5.98130,76641
5.99065,55869
5.99998,48086
6.00932,38314
6.01867,36665
6.02800,32749
6.03733,30728
6.04668,32462
6.05602,33611
6.06535,33485
6.07470,34028
6.08403,32493
6.09337,30872
6.10272,29625
6.11205,29106
6.12138,30594
6.13073,35488
6.14007,46509
6.14942,55310
6.15875,50061
6.16808,39045
6.17743,32657
6.18677,29528
6.19610,27792
6.20545,27218
6.21478,27369
6.22412,27129
6.23347,32328
6.24280,35490
6.25213,36201
6.26148,32983
6.27082,35760
6.28015,48495
6.28950,60124
6.29883,51313
6.30817,39325
6.31752,30855
6.32685,27515
6.33620,26667
6.34553,25533
6.35487,26981
6.36422,27989
6.37355,27272
6.38288,38844
6.39223,59619
6.40157,178374
6.41090,623691
6.42025,1341823
6.42958,1496111
6.43892,908503
6.44827,337384
6.45760,104345
6.46693,49796
6.47628,40390
6.48562,36110
6.49495,32692
6.50430,29463
6.51363,28765
6.52298,30276
6.53232,30703
6.54165,28290
6.55100,26031
6.56033,29426
6.56967,26654
6.57902,26964
6.58835,26872
6.59768,31444
6.60703,35686
6.61637,39183
6.62570,36446
6.63505,34865
6.64438,34604
6.65372,35355
6.66307,36900
6.67240,39239
6.68173,35467
6.69108,33729
6.70042,36258
6.70977,42080
6.71910,45233
6.72843,39084
6.73778,35893
6.74712,31834
6.75645,30571
6.76580,27709
6.77513,30558
6.78447,35115
6.79382,40588
6.80315,43966
6.81248,46524
6.82183,39797
6.83117,32842
6.84050,32018
6.84985,41034
6.85918,45975
6.86852,44178
6.87787,35303
6.88720,28802
6.89655,25809
6.90588,26791
6.91522,30457
6.92457,29753
6.93390,28415
6.94323,26391
6.95258,27744
6.96192,28773
6.97125,27154
6.98060,30645
6.98993,30139
6.99927,28531
7.00862,25697
7.01795,26300
7.02728,27305
7.03663,24416
7.04597,24392
7.05532,21952
7.06465,22420
7.07398,22622
7.08333,22246
7.09267,24412
7.10200,27908
7.11135,31221
7.12068,33156
7.13002,33758
7.13937,29419
7.14870,27473
7.15803,27723
7.16738,26179
7.17672,26648
7.18605,25096
7.19540,26188
7.20473,26372
7.21407,26402
7.22342,29902
7.23275,40331
7.24210,72132
7.25143,102163
7.26077,99832
7.27012,69246
7.27945,48990
7.28878,44634
7.29813,42455
7.30747,40075
7.31680,34178
7.32615,27615
7.33548,25157
7.34482,24227
7.35417,25514
7.36350,24559
7.37283,24505
7.38218,24462
7.39152,31698
7.40085,65340
7.41020,137294
7.41953,200895
7.42888,197211
7.43822,131154
7.44755,75034
7.45690,43603
7.46623,31218
7.47557,26980
7.48492,31213
7.49425,37500
7.50358,41640
7.51293,38184
7.52227,30910
7.53160,27104
7.54095,24429
7.55028,24795
7.55962,25752
7.56897,27574
7.57830,32293
7.58763,33122
7.59698,32668
7.60632,32173
7.61567,32863
7.62500,39575
7.63433,37274
7.64368,35957
7.65302,33021
7.66235,29412
7.67170,28397
7.68103,29714
7.69037,29425
7.69972,30325
7.70905,31387
7.71838,32679
7.72773,33237
7.73707,32238
7.74640,32652
7.75575,38398
7.76508,41865
7.77443,39360
7.78377,38584
7.79310,37074
7.80245,38216
7.81178,35558
7.82112,29457
7.83047,28045
7.83980,28094
7.84913,31957
7.85848,43318
7.86782,70425
7.87715,110932
7.88650,117446
7.89583,92730
7.90517,60634
7.91452,60190
7.92385,88478
7.93318,109743
7.94253,93989
7.95187,69112
7.96122,71886
7.97055,88741
7.97988,109804
7.98923,150912
7.99857,166221
8.00790,129795
8.01725,86332
8.02658,60246
8.03592,53309
8.04527,57844
8.05460,67959
8.06393,63036
8.07328,47300
8.08262,37620
8.09195,44479
8.10130,64790
8.11063,71124
8.11997,63784
8.12932,43643
8.13865,34706
8.14800,33024
8.15733,31415
8.16667,32285
8.17602,31085
8.18535,30548
8.19468,32425
8.20403,33992
8.21337,35169
8.22270,35294
8.23205,33946
8.24138,35976
8.25072,39505
8.26007,40265
8.26940,37785
8.27873,34025
8.28808,33075
8.29742,32509
8.30675,34672
8.31610,33048
8.32543,32906
8.33478,30240
8.34412,29999
8.35345,30121
8.36280,30605
8.37213,29073
8.38147,27715
8.39082,34638
8.40015,42905
8.40948,45123
8.41883,45857
8.42817,47656
8.43750,47412
8.44685,46165
8.45618,41119
8.46552,41002
8.47487,42308
8.48420,41699
8.49353,39341
8.50288,38193
8.51222,38642
8.52157,38050
8.53090,34605
8.54023,34593
8.54958,35486
8.55892,39552
8.56825,44038
8.57760,50823
8.58693,49067
8.59627,43113
8.60562,42920
8.61495,42519
8.62428,41291
8.63363,40243
8.64297,36898
8.65230,35738
8.66165,34122
8.67098,37136
8.68032,38368
8.68967,39185
8.69900,39089
8.70835,41276
8.71768,41260
8.72702,37120
8.73637,34980
8.74570,43239
8.75503,64347
8.76438,85927
8.77372,84894
8.78305,61144
8.79240,47568
8.80173,46743
8.81107,61111
8.82042,76662
8.82975,80915
8.83908,57630
8.84843,42975
8.85777,36628
8.86712,38708
8.87645,41549
8.88578,46520
8.89513,51620
8.90447,47797
8.91380,45574
8.92315,45841
8.93248,46383
8.94182,48116
8.95117,47636
8.96050,41404
8.96983,36306
8.97918,39376
8.98852,38968
8.99785,39030
9.00720,41321
9.01653,43443
9.02587,42836
9.03522,39052
9.04455,41521
9.05390,43203
9.06323,48290
9.07257,55650
9.08192,67305
9.09125,81776
9.10058,89391
9.10993,83679
9.11927,58983
9.12860,49173
9.13795,54105
9.14728,59231
9.15662,58108
9.16597,47909
9.17530,40346
9.18463,39494
9.19398,41293
9.20332,42652
9.21265,50164
9.22200,64568
9.23133,110287
9.24068,171060
9.25002,187459
9.25935,133987
9.26870,81678
9.27803,56809
9.28737,50560
9.29672,47121
9.30605,42154
9.31538,45313
9.32473,56204
9.33407,95894
9.34340,137063
9.35275,123506
9.36208,102981
9.37142,166082
9.38077,289397
9.39010,317868
9.39943,231882
9.40878,136591
9.41812,88993
9.42747,80759
9.43680,78318
9.44613,66262
9.45548,51152
9.46482,42217
9.47415,37739
9.48350,36848
9.49283,42033
9.50217,52630
9.51152,58368
9.52085,52947
9.53018,44990
9.53953,46466
9.54887,52177
9.55820,70742
9.56755,111026
9.57688,147025
9.58623,123840
9.59557,82259
9.60490,76161
9.61425,91495
9.62358,84621
9.63292,64801
9.64227,56422
9.65160,53177
9.66093,49910
9.67028,46212
9.67962,44939
9.68895,43832
9.69830,44072
9.70763,40221
9.71697,40996
9.72632,63685
9.73565,222840
9.74498,726898
9.75433,1292821
9.76367,1253678
9.77302,735815
9.78235,335378
9.79168,174930
9.80103,123287
9.81037,99548
9.81970,86756
9.82905,104098
9.83838,132170
9.84772,170120
9.85707,203647
9.86640,183913
9.87573,126791
9.88508,102854
9.89442,113699
9.90375,135442
9.91310,163354
9.92243,255937
9.93177,336127
9.94112,280802
9.95045,158637
9.95980,86942
9.96913,62387
9.97847,73605
9.98782,140941
9.99715,252585
10.00648,272942
10.01583,192388
10.02517,106875
10.03450,72835
10.04385,58920
10.05318,57444
10.06252,57907
10.07187,65518
10.08120,75609
10.09053,82121
10.09988,71126
10.10922,64872
10.11855,96326
10.12790,225108
10.13723,445965
10.14658,570311
10.15592,951922
10.16525,2875509
10.17460,6071558
10.18393,6907479
10.19327,3893025
10.20262,1036259
10.21195,187856
10.22128,78228
10.23063,70519
10.23997,77950
10.24930,105128
10.25865,119303
10.26798,95391
10.27732,69818
10.28667,58041
10.29600,56227
10.30533,52859
10.31468,52383
10.32402,50372
10.33337,44217
10.34270,44603
10.35203,45026
10.36138,44532
10.37072,45639
10.38005,45868
10.38940,41880
10.39873,38879
10.40807,40347
10.41742,40956
10.42675,39265
10.43608,41425
10.44543,39324
10.45477,43736
10.46410,49627
10.47345,60938
10.48278,60254
10.49212,55232
10.50147,47073
10.51080,41059
10.52015,41153
10.52948,39818
10.53882,41233
10.54817,41866
10.55750,43547
10.56683,45219
10.57618,45328
10.58552,46417
10.59485,48756
10.60420,48349
10.61353,44549
10.62287,42589
10.63222,47483
10.64155,59604
10.65088,66575
10.66023,57088
10.66957,46019
10.67892,47873
10.68825,51481
10.69758,51750
10.70693,48259
10.71627,52674
10.72560,64064
10.73495,66666
10.74428,61768
10.75362,57662
10.76297,80911
10.77230,123324
10.78163,136824
10.79098,117536
10.80032,108360
10.80965,146737
10.81900,178645
10.82833,151593
10.83767,95916
10.84702,61928
10.85635,50532
10.86570,47729
10.87503,51773
10.88437,62350
10.89372,71435
10.90305,72022
10.91238,63086
10.92173,56422
10.93107,57838
10.94040,64034
10.94975,61744
10.95908,52894
10.96842,45695
10.97777,45864
10.98710,44728
10.99643,42446
11.00578,42026
11.01512,42549
11.02445,41929
11.03380,37886
11.04313,39596
11.05248,39944
11.06182,38838
11.07115,36614
11.08050,37968
11.08983,38645
11.09917,38923
11.10852,48231
11.11785,60944
11.12718,69384
11.13653,61199
11.14587,50900
11.15520,44628
11.16455,46052
11.17388,43611
11.18322,41484
11.19257,39399
11.20190,38239
11.21123,38032
11.22058,38455
11.22992,43469
11.23927,45379
11.24860,41481
11.25793,41535
11.26728,46427
11.27662,52207
11.28595,49583
11.29530,44807
11.30463,42702
11.31397,45557
11.32332,42042
11.33265,41695
11.34198,51994
11.35133,71572
11.36067,93579
11.37000,99264
11.37935,88270
11.38868,68390
11.39803,58509
11.40737,62713
11.41670,73009
11.42605,74119
11.43538,61428
11.44472,47497
11.45407,43716
11.46340,50075
11.47273,69227
11.48208,94763
11.49142,90422
11.50075,68522
11.51010,46758
11.51943,40475
11.52877,41200
11.53812,40770
11.54745,41336
11.55678,44042
11.56613,62222
11.57547,108913
11.58482,175405
11.59415,194733
11.60348,155547
11.61283,111100
11.62217,87420
11.63150,82990
11.64085,83513
11.65018,81209
11.65952,75950
11.66887,73895
11.67820,71855
11.68753,66025
11.69688,56680
11.70622,52345
11.71555,49678
11.72490,51655
11.73423,50594
11.74357,51232
11.75292,49694
11.76225,51313
11.77160,50755
11.78093,53204
11.79027,60390
11.79962,65937
11.80895,60507
11.81828,50608
11.82763,46815
11.83697,49084
11.84630,51766
11.85565,55671
11.86498,52914
11.87432,54827
11.88367,58542
11.89300,61726
11.90233,58810
11.91168,51022
11.92102,49257
11.93035,48814
11.93970,52916
11.94903,68964
11.95838,84556
11.96772,75787
11.97705,62388
11.98640,54286
11.99573,51177
12.00507,54472
12.01442,72461
12.02375,99550
12.03308,107075
12.04243,87275
12.05177,70791
12.06110,59170
12.07045,53473
12.07978,48082
12.08912,47401
12.09847,47491
12.10780,53957
12.11713,52827
12.12648,50552
12.13582,48122
12.14517,49391
12.15450,47845
12.16383,55522
12.17318,89896
12.18252,175830
12.19185,240746
12.20120,193025
12.21053,104327
12.21987,63205
12.22922,62979
12.23855,77598
12.24788,87949
12.25723,76189
12.26657,70863
12.27590,107589
12.28525,211308
12.29458,279133
12.30393,209946
12.31327,118089
12.32260,68134
12.33195,57412
12.34128,58754
12.35062,67526
12.35997,68581
12.36930,55508
12.37863,53532
12.38798,54455
12.39732,62150
12.40665,68277
12.41600,72623
12.42533,73676
12.43467,72661
12.44402,66193
12.45335,59817
12.46268,64932
12.47203,71363
12.48137,72104
12.49072,72443
12.50005,73611
12.50938,75646
12.51873,77014
12.52807,77759
12.53740,75473
12.54675,72339
12.55608,68067
12.56542,71162
12.57477,85207
12.58410,98882
12.59343,87697
12.60278,76766
12.61212,62289
12.62145,60213
12.63080,66022
12.64013,72308
12.64947,86236
12.65882,89616
12.66815,86172
12.67750,77201
12.68683,62957
12.69617,54361
12.70552,50422
12.71485,55603
12.72418,60318
12.73353,66689
12.74287,66278
12.75220,67086
12.76155,71888
12.77088,71818
12.78022,65089
12.78957,56129
12.79890,48409
12.80823,53196
12.81758,55867
12.82692,53912
12.83625,57205
12.84560,58754
12.85493,59120
12.86428,54137
12.87362,50302
12.88295,50924
12.89230,52853
12.90163,58490
12.91097,59215
12.92032,56836
12.92965,51136
12.93898,51303
12.94833,55722
12.95767,60006
12.96700,58828
12.97635,54585
12.98568,48995
12.99502,44975
13.00437,49479
13.01370,49192
13.02305,50502
13.03238,58803
13.04172,79128
13.05107,84882
13.06040,72998
13.06973,60570
13.07908,68692
13.08842,73412
13.09775,69246
13.10710,64720
13.11643,61703
13.12577,55968
13.13512,62986
13.14445,71083
13.15378,73811
13.16313,70118
13.17247,66183
13.18180,61504
13.19115,66051
13.20048,90283
13.20983,183984
13.21917,341128
13.22850,400282
13.23785,294201
13.24718,190869
13.25652,199187
13.26587,207495
13.27520,148858
13.28453,103234
13.29388,82632
13.30322,73114
13.31255,68419
13.32190,77626
13.33123,87964
13.34057,88236
13.34992,82024
13.35925,79362
13.36858,78648
13.37793,71970
13.38727,64494
13.39662,68153
13.40595,86401
13.41528,96616
13.42463,78881
13.43397,63433
13.44330,67802
13.45265,83178
13.46198,80772
13.47132,69962
13.48067,66748
13.49000,68692
13.49933,63519
13.50868,56858
13.51802,71718
13.52735,134995
13.53670,236858
13.54603,257742
13.55537,167491
13.56472,83712
13.57405,61340
13.58340,53079
13.59273,51458
13.60207,50240
13.61142,47783
13.62075,49290
13.63008,50410
13.63943,51363
13.64877,55015
13.65810,60582
13.66745,61882
13.67678,61626
13.68612,51348
13.69547,48739
13.70480,45848
13.71413,44641
13.72348,43928
13.73282,41315
13.74215,39706
13.75150,40050
13.76083,46364
13.77018,47821
13.77952,49239
13.78885,46671
13.79820,49540
13.80753,59061
13.81687,72074
13.82622,71901
13.83555,58001
13.84488,49210
13.85423,47577
13.86357,52328
13.87290,56669
13.88225,58577
13.89158,70220
13.90092,97685
13.91027,188006
13.91960,407102
13.92893,693953
13.93828,648784
13.94762,355897
13.95697,149092
13.96630,91391
13.97563,77207
13.98498,65760
13.99432,60397
14.00365,59886
14.01300,60349
14.02233,58376
14.03167,53509
14.04102,57372
14.05035,145764
14.05968,930523
14.06903,4243172
14.07837,1.08497E+07
14.08770,1.713013E+07
14.09705,1.474442E+07
14.10638,5902023
14.11573,989937
14.12507,152411
14.13440,82058
14.14375,74447
14.15308,74421
14.16242,77972
14.17177,88637
14.18110,106267
14.19043,118948
14.19978,176631
14.20912,228231
14.21845,180974
14.22780,104806
14.23713,60802
14.24647,49144
14.25582,45527
14.26515,46516
14.27448,53587
14.28383,60516
14.29317,57435
14.30252,53917
14.31185,51488
14.32118,60735
14.33053,93699
14.33987,124965
14.34920,120718
14.35855,96271
14.36788,73209
14.37722,59891
14.38657,53016
14.39590,52642
14.40523,52967
14.41458,52220
14.42392,50035
14.43325,49908
14.44260,58419
14.45193,73739
14.46127,118585
14.47062,174905
14.47995,193097
14.48930,161534
14.49863,101121
14.50797,66261
14.51732,53506
14.52665,48145
14.53598,44860
14.54533,47036
14.55467,52293
14.56400,59699
14.57335,59391
14.58268,59909
14.59202,52636
14.60137,51449
14.61070,48985
14.62003,46844
14.62938,50154
14.63872,60268
14.64805,90137
14.65740,142206
14.66673,173626
14.67608,150336
14.68542,105858
14.69475,72154
14.70410,60149
14.71343,53063
14.72277,49799
14.73212,51289
14.74145,52045
14.75078,53326
14.76013,52074
14.76947,55616
14.77880,56083
14.78815,58891
14.79748,58981
14.80682,58371
14.81617,58747
14.82550,55408
14.83485,58742
14.84418,53986
14.85352,46939
14.86287,52481
14.87220,70953
14.88153,97349
14.89088,105800
14.90022,88037
14.90955,62174
14.91890,54509
14.92823,52725
14.93757,53428
14.94692,51886
14.95625,51344
14.96558,55194
14.97493,68212
14.98427,80012
14.99360,71594
15.00295,65645
15.01228,71393
15.02163,83267
15.03097,79073
15.04030,68395
15.04965,67388
15.05898,78437
15.06832,79689
15.07767,90516
15.08700,89169
15.09633,72556
15.10568,55911
15.11502,49959
15.12435,55564
15.13370,74275
15.14303,94018
15.15237,90197
15.16172,70675
15.17105,55239
15.18038,51647
15.18973,51832
15.19907,63850
15.20842,94581
15.21775,150203
15.22708,210039
15.23643,234016
15.24577,186785
15.25510,122516
15.26445,82433
15.27378,64436
15.28312,60176
15.29247,60654
15.30180,57117
15.31113,56354
15.32048,54736
15.32982,56875
15.33915,63788
15.34850,69412
15.35783,69478
15.36717,69205
15.37652,81660
15.38585,90384
15.39520,82756
15.40453,62352
15.41387,52279
15.42322,53295
15.43255,57979
15.44188,65965
15.45123,62120
15.46057,52316
15.46990,51546
15.47925,49560
15.48858,54646
15.49792,60405
15.50727,70747
15.51660,105396
15.52593,161732
15.53528,189949
15.54462,147595
15.55395,99308
15.56330,63291
15.57263,51073
15.58198,48958
15.59132,49444
15.60065,51028
15.61000,54763
15.61933,57896
15.62867,65165
15.63802,75559
15.64735,83516
15.65668,82381
15.66603,91221
15.67537,103697
15.68470,91051
15.69405,73514
15.70338,75766
15.71272,95396
15.72207,103805
15.73140,86653
15.74073,65882
15.75008,68170
15.75942,87856
15.76877,100107
15.77810,99546
15.78743,85777
15.79678,71079
15.80612,63279
15.81545,74152
15.82480,110199
15.83413,184615
15.84347,314848
15.85282,424789
15.86215,390592
15.87148,228668
15.88083,137317
15.89017,146001
15.89950,171908
15.90885,177089
15.91818,156446
15.92753,115804
15.93687,87022
15.94620,69143
15.95555,61688
15.96488,60231
15.97422,67256
15.98357,86904
15.99290,122944
16.00223,158001
16.01158,150855
16.02092,106786
16.03025,70596
16.03960,59224
16.04893,56764
16.05827,59313
16.06762,61855
16.07695,62652
16.08628,61872
16.09563,60015
16.10497,58407
16.11432,62402
16.12365,75275
16.13298,84934
16.14233,78192
16.15167,69520
16.16100,63866
16.17035,61723
16.17968,59146
16.18902,53504
16.19837,56398
16.20770,62002
16.21703,73896
16.22638,86560
16.23572,90463
16.24505,84484
16.25440,71789
16.26373,69047
16.27307,74957
16.28242,85288
16.29175,120823
16.30110,216069
16.31043,315730
16.31977,298051
16.32912,190917
16.33845,101576
16.34778,67471
16.35713,56559
16.36647,49804
16.37580,47302
16.38515,44384
16.39448,46311
16.40382,49590
16.41317,52148
16.42250,53323
16.43183,57592
16.44118,52818
16.45052,58030
16.45985,70015
16.46920,86379
16.47853,85778
16.48788,72576
16.49722,64157
16.50655,63012
16.51590,62862
16.52523,66298
16.53457,68924
16.54392,65668
16.55325,61261
16.56258,57807
16.57193,52142
16.58127,55263
16.59060,64422
16.59995,66635
16.60928,60736
16.61862,55460
16.62797,62251
16.63730,78354
16.64665,84800
16.65598,81788
16.66532,72583
16.67467,62997
16.68400,55322
16.69333,69437
16.70268,87781
16.71202,96869
16.72135,85480
16.73070,64068
16.74003,66045
16.74937,119164
16.75872,218990
16.76805,255390
16.77738,176495
16.78673,90553
16.79607,61045
16.80540,57326
16.81475,60897
16.82408,69006
16.83343,74365
16.84277,82563
16.85210,81513
16.86145,72854
16.87078,60452
16.88012,53441
16.88947,51633
16.89880,53341
16.90813,64323
16.91748,82667
16.92682,105717
16.93615,103334
16.94550,85981
16.95483,76377
16.96417,93296
16.97352,107029
16.98285,101625
16.99218,87463
17.00153,68664
17.01087,58766
17.02022,56442
17.02955,80148
17.03888,132923
17.04823,174493
17.05757,144194
17.06690,101688
17.07625,80139
17.08558,72735
17.09492,70482
17.10427,68749
17.11360,62020
17.12293,54220
17.13228,55482
17.14162,63960
17.15095,72456
17.16030,61937
17.16963,53693
17.17897,51296
17.18832,54887
17.19765,54350
17.20700,54227
17.21633,49703
17.22567,48705
17.23502,45579
17.24435,50194
17.25368,51779
17.26303,54603
17.27237,59971
17.28170,66402
17.29105,75684
17.30038,80343
17.30972,74522
17.31907,69405
17.32840,75196
17.33773,78887
17.34708,76314
17.35642,63229
17.36575,59527
17.37510,80629
17.38443,192390
17.39378,398153
17.40312,504039
17.41245,364231
17.42180,168768
17.43113,90272
17.44047,71181
17.44982,69601
17.45915,71684
17.46848,73029
17.47783,68286
17.48717,79252
17.49650,198111
17.50585,999907
17.51518,3575504
17.52452,6878768
17.53387,6966493
17.54320,3633661
17.55255,922217
17.56188,161623
17.57122,73742
17.58057,75658
17.58990,85835
17.59923,95814
17.60858,89508
17.61792,72932
17.62725,63370
17.63660,58622
17.64593,61593
17.65527,67637
17.66462,77200
17.67395,97298
17.68328,111910
17.69263,117306
17.70197,121023
17.71130,118519
17.72065,114709
17.72998,101796
17.73933,85177
17.74867,74706
17.75800,82148
17.76735,89283
17.77668,97416
17.78602,100147
17.79537,83169
17.80470,82417
17.81403,75580
17.82338,66067
17.83272,59149
17.84205,58453
17.85140,68099
17.86073,84874
17.87007,103055
17.87942,109498
17.88875,98854
17.89808,90795
17.90743,85123
17.91677,75561
17.92612,66879
17.93545,74673
17.94478,75283
17.95413,70648
17.96347,62813
17.97280,60300
17.98215,51936
17.99148,51768
18.00082,53460
18.01017,55930
18.01950,62128
18.02883,60655
18.03818,65686
18.04752,65125
18.05685,77915
18.06620,89380
18.07553,86515
18.08487,75670
18.09422,64924
18.10355,63493
18.11290,76963
18.12223,88162
18.13157,93192
18.14092,87796
18.15025,83248
18.15958,83887
18.16893,77756
18.17827,75125
18.18760,71405
18.19695,70298
18.20628,62732
18.21562,60575
18.22497,68565
18.23430,69014
18.24363,66462
18.25298,62253
18.26232,56576
18.27167,56766
18.28100,63170
18.29033,73372
18.29968,86154
18.30902,93643
18.31835,95102
18.32770,90641
18.33703,88972
18.34637,93646
18.35572,109475
18.36505,129262
18.37438,131326
18.38373,117192
18.39307,113747
18.40240,124585
18.41175,161717
18.42108,181414
18.43042,139989
18.43977,99449
18.44910,89010
18.45845,99033
18.46778,93552
18.47712,83387
18.48647,78471
18.49580,87856
18.50513,121857
18.51448,170643
18.52382,190891
18.53315,164748
18.54250,121741
18.55183,98388
18.56117,107333
18.57052,106414
18.57985,92324
18.58918,73585
18.59853,65950
18.60787,72665
18.61720,90481
18.62655,111777
18.63588,113268
18.64523,105822
18.65457,92244
18.66390,85398
18.67325,82960
18.68258,84124
18.69192,86973
18.70127,88551
18.71060,98365
18.71993,115168
18.72928,119753
18.73862,115784
18.74795,103352
18.75730,88425
18.76663,78766
18.77597,73161
18.78532,66410
18.79465,65220
18.80398,63091
18.81333,68560
18.82267,71793
18.83202,73843
18.84135,70678
18.85068,67754
18.86003,68680
18.86937,67447
18.87870,70849
18.88805,70302
18.89738,66880
18.90672,68647
18.91607,90777
18.92540,115598
18.93473,112348
18.94408,97374
18.95342,98362
18.96275,112154
18.97210,131108
18.98143,134138
18.99077,116509
19.00012,93959
19.00945,80046
19.01880,74632
19.02813,72102
19.03747,75188
19.04682,87970
19.05615,132077
19.06548,185868
19.07483,194748
19.08417,182078
19.09350,182244
19.10285,194982
19.11218,170390
19.12152,120373
19.13087,84835
19.14020,67763
19.14953,62225
19.15888,58703
19.16822,56450
19.17755,56384
19.18690,57903
19.19623,65565
19.20558,78381
19.21492,88333
19.22425,90240
19.23360,92078
19.24293,86518
19.25227,76756
19.26162,68676
19.27095,64691
19.28028,69811
19.28963,81139
19.29897,95514
19.30830,125120
19.31765,195796
19.32698,238969
19.33632,199774
19.34567,137880
19.35500,93901
19.36435,73785
19.37368,64620
19.38302,59583
19.39237,59068
19.40170,63171
19.41103,65924
19.42038,67078
19.42972,66561
19.43905,62744
19.44840,59919
19.45773,58155
19.46707,61555
19.47642,66518
19.48575,74931
19.49508,82302
19.50443,86519
19.51377,80241
19.52310,68557
19.53245,62527
19.54178,64545
19.55113,63905
19.56047,62719
19.56980,63328
19.57915,69019
19.58848,79829
19.59782,82124
19.60717,82710
19.61650,73483
19.62583,65098
19.63518,71884
19.64452,85479
19.65385,87543
19.66320,78928
19.67253,69366
19.68187,64347
19.69122,70352
19.70055,78270
19.70988,87400
19.71923,89966
19.72857,103811
19.73792,133644
19.74725,152029
19.75658,127063
19.76593,95463
19.77527,80069
19.78460,83183
19.79395,85733
19.80328,83152
19.81262,77565
19.82197,67963
19.83130,66373
19.84063,64875
19.84998,63710
19.85932,64129
19.86865,69622
19.87800,94198
19.88733,135060
19.89667,141400
19.90602,116605
19.91535,81298
19.92470,74475
19.93403,70163
19.94337,66971
19.95272,64488
19.96205,68684
19.97138,72012
19.98073,68403
19.99007,67794
19.99940,64451
20.00875,59247
20.01808,63459
20.02742,69248
20.03677,70898
20.04610,74721
20.05543,74763
20.06478,72890
20.07412,69235
20.08347,72323
20.09280,76604
20.10213,75245
20.11148,65882
20.12082,59858
20.13015,56731
20.13950,58491
20.14883,68107
20.15817,80803
20.16752,96235
20.17685,94676
20.18618,83334
20.19553,67950
20.20487,63496
20.21420,64933
20.22355,67593
20.23288,72635
20.24222,73497
20.25157,72788
20.26090,67912
20.27025,64148
20.27958,61238
20.28892,67494
20.29827,74600
20.30760,79255
20.31693,75102
20.32628,67265
20.33562,59374
20.34495,56472
20.35430,55190
20.36363,61485
20.37297,69835
20.38232,72951
20.39165,66098
20.40098,59993
20.41033,58090
20.41967,56548
20.42900,56683
20.43835,60318
20.44768,59843
20.45703,60911
20.46637,67532
20.47570,90667
20.48505,113608
20.49438,105513
20.50372,85827
20.51307,68369
20.52240,64985
20.53173,61746
20.54108,63745
20.55042,64875
20.55975,78332
20.56910,140758
20.57843,361383
20.58777,693307
20.59712,738167
20.60645,429840
20.61578,172481
20.62513,91437
20.63447,87010
20.64382,117654
20.65315,165015
20.66248,172113
20.67183,133187
20.68117,98510
20.69050,83936
20.69985,76704
20.70918,75530
20.71852,72496
20.72787,74702
20.73720,76220
20.74653,72594
20.75588,73096
20.76522,67526
20.77455,67337
20.78390,63310
20.79323,67707
20.80257,78703
20.81192,82490
20.82125,81657
20.83060,76631
20.83993,68233
20.84927,66420
20.85862,62644
20.86795,61713
20.87728,61108
20.88663,61904
20.89597,63614
20.90530,66968
20.91465,71083
20.92398,67860
20.93332,65401
20.94267,64252
20.95200,60453
20.96133,60429
20.97068,57120
20.98002,61136
20.98935,58063
20.99870,57471
21.00803,59843
21.01738,64354
21.02672,64986
21.03605,62165
21.04540,60501
21.05473,64184
21.06407,64395
21.07342,67419
21.08275,64944
21.09208,61885
21.10143,63531
21.11077,64639
21.12010,70991
21.12945,71449
21.13878,76881
21.14812,81576
21.15747,82469
21.16680,77144
21.17615,74963
21.18548,83486
21.19482,87006
21.20417,88098
21.21350,77718
21.22283,66119
21.23218,67353
21.24152,62835
21.25085,65556
21.26020,64746
21.26953,70096
21.27887,92197
21.28822,136327
21.29755,176817
21.30688,178806
21.31623,135437
21.32557,88846
21.33490,70861
21.34425,66240
21.35358,66201
21.36293,66336
21.37227,64310
21.38160,67742
21.39095,71066
21.40028,76395
21.40962,76182
21.41897,75537
21.42830,80852
21.43763,76375
21.44698,76825
21.45632,70111
21.46565,67068
21.47500,70251
21.48433,72796
21.49367,80825
21.50302,78370
21.51235,78588
21.52168,72467
21.53103,70851
21.54037,69447
21.54972,69500
21.55905,72644
21.56838,76680
21.57773,90788
21.58707,95657
21.59640,91499
21.60575,81609
21.61508,72474
21.62442,71687
21.63377,72806
21.64310,73562
21.65243,72933
21.66178,69816
21.67112,73568
21.68045,76558
21.68980,88860
21.69913,98053
21.70847,98787
21.71782,91279
21.72715,88439
21.73650,88937
21.74583,82603
21.75517,76596
21.76452,71863
21.77385,67674
21.78318,66038
21.79253,66310
21.80187,69049
21.81120,76960
21.82055,83644
21.82988,89053
21.83922,87075
21.84857,82951
21.85790,76283
21.86723,73883
21.87658,72007
21.88592,78349
21.89527,82583
21.90460,89362
21.91393,92342
21.92328,90084
21.93262,81138
21.94195,72322
21.95130,73348
21.96063,75973
21.96997,79412
21.97932,87738
21.98865,100215
21.99798,112735
22.00733,116753
22.01667,101610
22.02600,85673
22.03535,77614
22.04468,82275
22.05402,91006
22.06337,94798
22.07270,90495
22.08205,89605
22.09138,84663
22.10072,81245
22.11007,79844
22.11940,77242
22.12873,75802
22.13808,72154
22.14742,73015
22.15675,81736
22.16610,98208
22.17543,125787
22.18477,141990
22.19412,125273
22.20345,98241
22.21278,82660
22.22213,83762
22.23147,88878
22.24080,89188
22.25015,91347
22.25948,85460
22.26883,83938
22.27817,97085
22.28750,116582
22.29685,136655
22.30618,135127
22.31552,118069
22.32487,99509
22.33420,86254
22.34353,81170
22.35288,87067
22.36222,102044
22.37155,111959
22.38090,113669
22.39023,116783
22.39957,110075
22.40892,100516
22.41825,93059
22.42758,88192
22.43693,95568
22.44627,102508
22.45562,105658
22.46495,102914
22.47428,97678
22.48363,95745
22.49297,89716
22.50230,85644
22.51165,85503
22.52098,86724
22.53032,87381
22.53967,86762
22.54900,87089
22.55833,88781
22.56768,92554
22.57702,101979
22.58635,114440
22.59570,121070
22.60503,126132
22.61437,121325
22.62372,118935
22.63305,116828
22.64240,113404
22.65173,107671
22.66107,100425
22.67042,96344
22.67975,99060
22.68908,110359
22.69843,125120
22.70777,135706
22.71710,123088
22.72645,110418
22.73578,112434
22.74512,120716
22.75447,125925
22.76380,124877
22.77313,122195
22.78248,115093
22.79182,107499
22.80117,107133
22.81050,120106
22.81983,122753
22.82918,115218
22.83852,106526
22.84785,102010
22.85720,97183
22.86653,94821
22.87587,96381
22.88522,96737
22.89455,97449
22.90388,97647
22.91323,93960
22.92257,98161
22.93190,104023
22.94125,105144
22.95058,99546
22.95992,94866
22.96927,94078
22.97860,93216
22.98795,83686
22.99728,84357
23.00662,85667
23.01597,81449
23.02530,77354
23.03463,76540
23.04398,79678
23.05332,83042
23.06265,79763
23.07200,80896
23.08133,81752
23.09067,81816
23.10002,77722
23.10935,74781
23.11868,73724
23.12803,73484
23.13737,74908
23.14670,76278
23.15605,75849
23.16538,79404
23.17473,76497
23.18407,79960
23.19340,79418
23.20275,77651
23.21208,75749
23.22142,74091
23.23077,72194
23.24010,79899
23.24943,83286
23.25878,93713
23.26812,98371
23.27745,96120
23.28680,89520
23.29613,86170
23.30547,80982
23.31482,79081
23.32415,80297
23.33348,103719
23.34283,135357
23.35217,149085
23.36152,128289
23.37085,98373
23.38018,86300
23.38953,86686
23.39887,85697
23.40820,88196
23.41755,86054
23.42688,83618
23.43622,79610
23.44557,81696
23.45490,84021
23.46423,86169
23.47358,80702
23.48292,83818
23.49225,84277
23.50160,76918
23.51093,76314
23.52028,78518
23.52962,79199
23.53895,82074
23.54830,82216
23.55763,79387
23.56697,78943
23.57632,78980
23.58565,80781
23.59498,86005
23.60433,86055
23.61367,81192
23.62300,77353
23.63235,76800
23.64168,76475
23.65102,73792
23.66037,72632
23.66970,78185
23.67903,74706
23.68838,77872
23.69772,85318
23.70707,88086
23.71640,89177
23.72573,88707
23.73508,91639
23.74442,94947
23.75375,91976
23.76310,84496
23.77243,79632
23.78177,78634
23.79112,77142
23.80045,77998
23.80978,77250
23.81913,78147
23.82847,76063
23.83780,75100
23.84715,75815
23.85648,76167
23.86582,78048
23.87517,77770
23.88450,77916
23.89385,80243
23.90318,82658
23.91252,81304
23.92187,79074
23.93120,81597
23.94053,80458
23.94988,79182
23.95922,80334
23.96855,78368
23.97790,77174
23.98723,75916
23.99657,74787
24.00592,78664
24.01525,78817
24.02458,82091
24.03393,80052
24.04327,78830
24.05260,76195
24.06195,75351
24.07128,75443
24.08063,73851
24.08997,80309
24.09930,78829
24.10865,80642
24.11798,76961
24.12732,80625
24.13667,80662
24.14600,78622
24.15533,78378
24.16468,80017
24.17402,80567
24.18335,79940
24.19270,79392
24.20203,76905
24.21137,74024
24.22072,75244
24.23005,77279
24.23938,81342
24.24873,81895
24.25807,87664
24.26742,87545
24.27675,87917
24.28608,85327
24.29543,83038
24.30477,81861
24.31410,81807
24.32345,90237
24.33278,93307
24.34212,90799
24.35147,87637
24.36080,85311
24.37013,83387
24.37948,83412
24.38882,84998
24.39815,86612
24.40750,90408
24.41683,89949
24.42617,85273
24.43552,81687
24.44485,82813
24.45420,81946
24.46353,82447
24.47287,81444
24.48222,83021
24.49155,84960
24.50088,87559
24.51023,85525
24.51957,86530
24.52890,84150
24.53825,86609
24.54758,85584
24.55692,92781
24.56627,93037
24.57560,87265
24.58493,88992
24.59428,86884
24.60362,84970
24.61297,91132
24.62230,95548
24.63163,102669
24.64098,95804
24.65032,88944
24.65965,87397
24.66900,93012
24.67833,97491
24.68767,97411
24.69702,92689
24.70635,94430
24.71568,96484
24.72503,92727
24.73437,92364
24.74370,88995
24.75305,86367
24.76238,88433
24.77172,90331
24.78107,84599
24.79040,82654
24.79975,84300
24.80908,83594
24.81842,86093
24.82777,84850
24.83710,85947
24.84643,87016
24.85578,87572
24.86512,84411
24.87445,89295
24.88380,88983
24.89313,88876
24.90247,90495
24.91182,89069
24.92115,91202
24.93048,91378
24.93983,88115
24.94917,92681
24.95850,94341
24.96785,98911
24.97718,105677
24.98653,103621
24.99587,98578
25.00520,95682
25.01455,98680
25.02388,95285
25.03322,89652
25.04257,92813
25.05190,89385
25.06123,91854
25.07058,91512
25.07992,90794
25.08925,92474
25.09860,93864
25.10793,92858
25.11727,92181
25.12662,96295
25.13595,95547
25.14528,100496
25.15463,104090
25.16397,106253
25.17332,104541
25.18265,98107
25.19198,97759
25.20133,95636
25.21067,96011
25.22000,97485
25.22935,96148
25.23868,93123
25.24802,95591
25.25737,96126
25.26670,94538
25.27603,95677
25.28538,93546
25.29472,95106
25.30405,99934
25.31340,96128
25.32273,104664
25.33208,132402
25.34142,196229
25.35075,247550
25.36010,234546
25.36943,181069
25.37877,150115
25.38812,133266
25.39745,129081
25.40678,125889
25.41613,121942
25.42547,120184
25.43480,113837
25.44415,115127
25.45348,115516
25.46282,114151
25.47217,114684
25.48150,123441
25.49083,136096
25.50018,136099
25.50952,134772
25.51887,127383
25.52820,124069
25.53753,122708
25.54688,119146
25.55622,116777
25.56555,118274
25.57490,118792
25.58423,115826
25.59357,115004
25.60292,117369
25.61225,116759
25.62158,113206
25.63093,112192
25.64027,118478
25.64960,119550
25.65895,123131
25.66828,123669
25.67762,124505
25.68697,117754
25.69630,116836
25.70565,114982
25.71498,113650
25.72432,116696
25.73367,115870
25.74300,118330
25.75233,119805
25.76168,120480
25.77102,117841
25.78035,120240
25.78970,118603
25.79903,121256
25.80837,125474
25.81772,134965
25.82705,130020
25.83638,132690
25.84573,137639
25.85507,132795
25.86440,129125
25.87375,123653
25.88308,121376
25.89243,121606
25.90177,118310
25.91110,120432
25.92045,123559
25.92978,120636
25.93912,124538
25.94847,122472
25.95780,134847
25.96713,140709
25.97648,134521
25.98582,127392
25.99515,123726
26.00450,126213
26.01383,125259
26.02317,126571
26.03252,130473
26.04185,130174
26.05118,139225
26.06053,132752
26.06987,138001
26.07922,135963
26.08855,132981
26.09788,134767
26.10723,131674
26.11657,132557
26.12590,129706
26.13525,131998
26.14458,138007
26.15392,144585
26.16327,150492
26.17260,147730
26.18193,141053
26.19128,142797
26.20062,134055
26.20995,130140
26.21930,129550
26.22863,127725
26.23798,130379
26.24732,130541
26.25665,130548
26.26600,133599
26.27533,129430
26.28467,131395
26.29402,134334
26.30335,133564
26.31268,136795
26.32203,140628
26.33137,141755
26.34070,139650
26.35005,140566
26.35938,137405
26.36872,133090
26.37807,141759
26.38740,137388
26.39673,140812
26.40608,141620
26.41542,144889
26.42477,154888
26.43410,161439
26.44343,166175
26.45278,178685
26.46212,192718
26.47145,206184
26.48080,213543
26.49013,217545
26.49947,235933
26.50882,244808
26.51815,251169
26.52748,259456
26.53683,276436
26.54617,287718
26.55550,291163
26.56485,281455
26.57418,270949
26.58352,263840
26.59287,258974
26.60220,248197
26.61155,244607
26.62088,240516
26.63022,231961
26.63957,219434
26.64890,208265
26.65823,201460
26.66758,201065
26.67692,199337
26.68625,198385
26.69560,193294
26.70493,190134
26.71427,179609
26.72362,180021
26.73295,176471
26.74228,178883
26.75163,177659
26.76097,183011
26.77030,181934
26.77965,181649
26.78898,182896
26.79833,185140
26.80767,180949
26.81700,181115
26.82635,182370
26.83568,184713
26.84502,175809
26.85437,180686
26.86370,182573
26.87303,182832
26.88238,186228
26.89172,183858
26.90105,182497
26.91040,179866
26.91973,178882
26.92907,178304
26.93842,178947
26.94775,175343
26.95708,175868
26.96643,176219
26.97577,176339
26.98512,181442
26.99445,176254
27.00378,179083
27.01313,183384
27.02247,183393
27.03180,181196
27.04115,179975
27.05048,180698
27.05982,183207
27.06917,180889
27.07850,187590
27.08783,183342
27.09718,187172
27.10652,181272
27.11585,180031
27.12520,178613
27.13453,184167
27.14388,186656
27.15322,195383
27.16255,191466
27.17190,189678
27.18123,189776
27.19057,188613
27.19992,183304
27.20925,180309
27.21858,181771
27.22793,181875
27.23727,183946
27.24660,189106
27.25595,195383
27.26528,200495
27.27462,209283
27.28397,202759
27.29330,200150
27.30263,191871
27.31198,192624
27.32132,196327
27.33067,198330
27.34000,200075
27.34933,199024
27.35868,201476
27.36802,198514
27.37735,202751
27.38670,203863
27.39603,204957
27.40537,207908
27.41472,207462
27.42405,206844
27.43338,212537
27.44273,217456
27.45207,217645
27.46140,217660
27.47075,212205
27.48008,210788
27.48942,220671
27.49877,231836
27.50810,248757
27.51745,265141
27.52678,286442
27.53612,305718
27.54547,309452
27.55480,322150
27.56413,316032
27.57348,302446
27.58282,285513
27.59215,276309
27.60150,263198
27.61083,242872
27.62017,229528
27.62952,222975
27.63885,219370
27.64818,216697
27.65753,216101
27.66687,219590
27.67620,229380
27.68555,248274
27.69488,260584
27.70423,253247
27.71357,246721
27.72290,229567
27.73225,227061
27.74158,225492
27.75092,220980
27.76027,224092
27.76960,221192
27.77893,224219
27.78828,225597
27.79762,226262
27.80695,226687
27.81630,228799
27.82563,225661
27.83497,225799
27.84432,227027
27.85365,225820
27.86298,228032
27.87233,225288
27.88167,223083
27.89102,224929
27.90035,226911
27.90968,228229
27.91903,226166
27.92837,225879
27.93770,233298
27.94705,229142
27.95638,227108
27.96572,231310
27.97507,232651
27.98440,233331
27.99373,230683
28.00308,240587
28.01242,233147
28.02175,233181
28.03110,237813
28.04043,239848
28.04978,232143
28.05912,237837
28.06845,234469
28.07780,241685
28.08713,242697
28.09647,243607
28.10582,242070
28.11515,246903
28.12448,251487
28.13383,259789
28.14317,265775
28.15250,259244
28.16185,252918
28.17118,251747
28.18052,259828
28.18987,258955
28.19920,255659
28.20853,257423
28.21788,261570
28.22722,261408
28.23657,261646
28.24590,260282
28.25523,259163
28.26458,260645
28.27392,267656
28.28325,262591
28.29260,261078
28.30193,262155
28.31127,266370
28.32062,266659
28.32995,265588
28.33928,262799
28.34863,263111
28.35797,266799
28.36730,272810
28.37665,273265
28.38598,269864
28.39532,270745
28.40467,277315
28.41400,275015
28.42335,274235
28.43268,274950
28.44202,274732
28.45137,273388
28.46070,281065
28.47003,280368
28.47938,277572
28.48872,282232
28.49805,282906
28.50740,282399
28.51673,283083
28.52607,289430
28.53542,291829
28.54475,292333
28.55408,296303
28.56343,292975
28.57277,295690
28.58210,300843
28.59145,307890
28.60078,313925
28.61013,325233
28.61947,323494
28.62880,329784
28.63815,324160
28.64748,322770
28.65682,325639
28.66617,341038
28.67550,373690
28.68483,440197
28.69418,482407
28.70352,457544
28.71285,388636
28.72220,339119
28.73153,321201
28.74087,321104
28.75022,314282
28.75955,313519
28.76890,314222
28.77823,313232
28.78757,311837
28.79692,317836
28.80625,316071
28.81558,324603
28.82493,322609
28.83427,320989
28.84360,316454
28.85295,323676
28.86228,319538
28.87162,320380
28.88097,327367
28.89030,324440
28.89963,329400
28.90898,327987
28.91832,333339
28.92765,326433
28.93700,333056
28.94633,337097
28.95568,337867
28.96502,337388
28.97435,347866
28.98370,345630
28.99303,354027
29.00237,351370
29.01172,343066
29.02105,347253
29.03038,351047
29.03973,356938
29.04907,361878
29.05840,360644
29.06775,355433
29.07708,356309
29.08642,352342
29.09577,350861
29.10510,346666
29.11443,347515
29.12378,351826
29.13312,351756
29.14247,348464
29.15180,351621
29.16113,346856
29.17048,346365
29.17982,352705
29.18915,350999
29.19850,356883
29.20783,371058
29.21717,379741
29.22652,372999
29.23585,368905
29.24518,360468
29.25453,357435
29.26387,358008
29.27320,361072
29.28255,355450
29.29188,354129
29.30122,362154
29.31057,353436
29.31990,356043
29.32925,357635
29.33858,358325
29.34792,358867
29.35727,357995
29.36660,358214
29.37593,358542
29.38528,361476
29.39462,355129
29.40395,361765
29.41330,360794
29.42263,361794
29.43197,365443
29.44132,370888
29.45065,371934
29.45998,373259
29.46933,379973
29.47867,384916
29.48800,387329
29.49735,377699
29.50668,374659
29.51603,363489
29.52537,367308
29.53470,366393
29.54405,361761
29.55338,360356
29.56272,360537
29.57207,358679
29.58140,362286
29.59073,361718
29.60008,362915
29.60942,366318
29.61875,360283
29.62810,362346
29.63743,357280
29.64677,363107
29.65612,368062
29.66545,363929
29.67478,364114
29.68413,372754
29.69347,367246
29.70282,364721
29.71215,368447
29.72148,371126
29.73083,369043
29.74017,369074
29.74950,377902
29.75885,367940
29.76818,369485
29.77752,372894
29.78687,358900
29.79620,369264
29.80553,365338
29.81488,364585
29.82422,356385
29.83355,363394
29.84290,359540
29.85223,360537
29.86158,358551
29.87092,359988
29.88025,359035
29.88960,362466
29.89893,361549
29.90827,368075
29.91762,361345
29.92695,365945
29.93628,365196
29.94563,366394
29.95497,369185
29.96430,366745
29.97365,375858
29.98298,371691
29.99232,370069
30.00167,375354
30.01100,381727
30.02033,371641
30.02968,372148
30.03902,374897
30.04837,364807
30.05770,368997
30.06703,368187
30.07638,369989
30.08572,365259
30.09505,365566
30.10440,367797
30.11373,372593
30.12307,386316
30.13242,389334
30.14175,410837
30.15108,427494
30.16043,448946
30.16977,466781
30.17910,482133
30.18845,490847
30.19778,498180
30.20712,478605
30.21647,460891
30.22580,445940
30.23515,420577
30.24448,407198
30.25382,396732
30.26317,379727
30.27250,372947
30.28183,372168
30.29118,376348
30.30052,374210
30.30985,376274
30.31920,373298
30.32853,369203
30.33787,372271
30.34722,373144
30.35655,372235
30.36588,370033
30.37523,370862
30.38457,371548
30.39390,371739
30.40325,388630
30.41258,398050
30.42193,410391
30.43127,402604
30.44060,393832
30.44995,381659
30.45928,377287
30.46862,381320
30.47797,378290
30.48730,379989
30.49663,380585
30.50598,382408
30.51532,378410
30.52465,374250
30.53400,371959
30.54333,374974
30.55267,372403
30.56202,377270
30.57135,369757
30.58070,374307
30.59003,368492
30.59937,382646
30.60872,370862
30.61805,375233
30.62738,375447
30.63673,381345
30.64607,395349
30.65540,395319
30.66475,399197
30.67408,402730
30.68342,400196
30.69277,395146
30.70210,388654
30.71143,386457
30.72078,388422
30.73012,380516
30.73945,379853
30.74880,371613
30.75813,376341
30.76748,374848
30.77682,377973
30.78615,381048
30.79550,387455
30.80483,393494
30.81417,395693
30.82352,390312
30.83285,395917
30.84218,391421
30.85153,389441
30.86087,388547
30.87020,383165
30.87955,381602
30.88888,386712
30.89822,391040
30.90757,385967
30.91690,387684
30.92623,386736
30.93558,392578
30.94492,385548
30.95427,390022
30.96360,389396
30.97293,389443
30.98228,393959
30.99162,390959
31.00095,389018
31.01030,393524
31.01963,388001
31.02897,384561
31.03832,384841
31.04765,379287
31.05698,379083
31.06633,383522
31.07567,382651
31.08500,373366
31.09435,377948
31.10368,377489
31.11302,376423
31.12237,379741
31.13170,379176
31.14105,374011
31.15038,374379
31.15972,382319
31.16907,385926
31.17840,385601
31.18773,386256
31.19708,381743
31.20642,384416
31.21575,389532
31.22510,384044
31.23443,382871
31.24377,385133
31.25312,390467
31.26245,382368
31.27178,387600
31.28113,388395
31.29047,390044
31.29980,384522
31.30915,387210
31.31848,389891
31.32783,386538
31.33717,390401
31.34650,387526
31.35585,385878
31.36518,381887
