D:\数据\202112114\ZS1E-TJ-000110.D Tue Dec 14 16:50:29 2021
Start of data points
0.09748,27374
0.10682,28156
0.11617,27574
0.12550,27769
0.13483,29185
0.14418,27881
0.15352,28422
0.16287,28126
0.17220,27507
0.18153,28219
0.19088,28391
0.20022,27539
0.20955,26991
0.21890,28316
0.22823,27108
0.23757,28031
0.24692,27682
0.25625,28204
0.26558,29010
0.27493,26889
0.28427,27827
0.29360,27580
0.30295,27645
0.31228,26884
0.32162,27462
0.33097,26582
0.34030,27898
0.34965,28855
0.35898,27276
0.36832,27523
0.37767,27129
0.38700,26175
0.39633,27163
0.40568,25130
0.41502,22198
0.42435,19802
0.43370,17468
0.44303,10721
0.45237,6685
0.46172,5677
0.47105,5589
0.48038,5886
0.48973,5882
0.49907,5302
0.50840,5111
0.51775,4996
0.52708,4710
0.53643,5264
0.54577,5423
0.55510,5970
0.56445,4608
0.57378,4620
0.58312,4887
0.59247,5295
0.60180,5652
0.61113,4595
0.62048,5320
0.62982,4547
0.63915,5235
0.64850,4534
0.65783,4754
0.66717,5140
0.67652,4923
0.68585,5895
0.69518,4876
0.70453,4701
0.71387,4856
0.72322,4093
0.73255,5282
0.74188,5066
0.75123,4419
0.76057,5123
0.76990,4589
0.77925,5118
0.78858,4608
0.79792,4717
0.80727,4422
0.81660,5002
0.82593,4207
0.83528,4916
0.84462,4619
0.85395,4760
0.86330,4437
0.87263,3691
0.88198,4547
0.89132,5097
0.90065,4600
0.91000,4575
0.91933,5015
0.92867,4137
0.93802,4373
0.94735,4187
0.95668,4304
0.96603,4291
0.97537,4282
0.98470,4054
0.99405,4521
1.00338,4158
1.01272,3814
1.02207,4211
1.03140,4844
1.04073,4635
1.05008,4328
1.05942,4791
1.06877,4452
1.07810,4809
1.08743,4553
1.09678,4103
1.10612,4724
1.11545,4025
1.12480,5106
1.13413,4365
1.14347,4747
1.15282,4549
1.16215,4692
1.17148,4362
1.18083,4335
1.19017,4418
1.19950,4891
1.20885,4299
1.21818,4999
1.22752,4135
1.23687,5216
1.24620,4651
1.25555,4216
1.26488,4584
1.27422,4758
1.28357,4519
1.29290,4388
1.30223,4622
1.31158,3949
1.32092,4778
1.33025,4169
1.33960,4519
1.34893,4771
1.35827,4271
1.36762,3720
1.37695,4349
1.38628,4059
1.39563,3774
1.40497,4261
1.41430,4214
1.42365,4226
1.43298,3890
1.44233,3875
1.45167,4203
1.46100,4158
1.47035,4807
1.47968,4429
1.48902,4485
1.49837,4347
1.50770,3974
1.51703,4130
1.52638,3866
1.53572,4436
1.54505,4356
1.55440,3911
1.56373,4266
1.57307,4737
1.58242,7856
1.59175,14449
1.60108,21384
1.61043,27195
1.61977,35085
1.62912,48093
1.63845,58949
1.64778,57830
1.65713,52469
1.66647,45781
1.67580,39997
1.68515,32950
1.69448,28208
1.70382,19693
1.71317,19567
1.72250,22337
1.73183,25176
1.74118,26768
1.75052,29069
1.75985,31409
1.76920,31705
1.77853,32724
1.78788,32292
1.79722,33277
1.80655,32056
1.81590,33633
1.82523,32822
1.83457,30807
1.84392,32518
1.85325,31162
1.86258,32438
1.87193,37609
1.88127,45849
1.89060,57895
1.89995,81257
1.90928,105264
1.91862,130392
1.92797,180286
1.93730,284581
1.94663,409221
1.95598,491756
1.96532,493815
1.97467,428642
1.98400,320209
1.99333,231302
2.00268,178784
2.01202,154504
2.02135,149876
2.03070,167585
2.04003,146600
2.04937,118627
2.05872,96477
2.06805,84622
2.07738,73608
2.08673,65243
2.09607,59795
2.10540,58332
2.11475,57627
2.12408,64253
2.13342,79028
2.14277,115696
2.15210,144977
2.16145,134642
2.17078,122594
2.18012,117729
2.18947,161901
2.19880,222144
2.20813,183980
2.21748,123207
2.22682,99415
2.23615,124090
2.24550,198381
2.25483,1087004
2.26417,3002812
2.27352,3078374
2.28285,2146922
2.29218,1313112
2.30153,969249
2.31087,2908259
2.32020,9373783
2.32955,1.207892E+07
2.33888,7947138
2.34823,3653236
2.35757,1546325
2.36690,712977
2.37625,391961
2.38558,276004
2.39492,220422
2.40427,182518
2.41360,159534
2.42293,148524
2.43228,141604
2.44162,132716
2.45095,113062
2.46030,97269
2.46963,91552
2.47897,93903
2.48832,89552
2.49765,77959
2.50700,72123
2.51633,65950
2.52567,62914
2.53502,62006
2.54435,61782
2.55368,66723
2.56303,73089
2.57237,237350
2.58170,324073
2.59105,274349
2.60038,214685
2.60972,175939
2.61907,182899
2.62840,207914
2.63773,191369
2.64708,155572
2.65642,130205
2.66575,109324
2.67510,96992
2.68443,85711
2.69378,71783
2.70312,67088
2.71245,70542
2.72180,99426
2.73113,145105
2.74047,174505
2.74982,207230
2.75915,247000
2.76848,290703
2.77783,357916
2.78717,408411
2.79650,285847
2.80585,203077
2.81518,151295
2.82452,126788
2.83387,113345
2.84320,103297
2.85253,120053
2.86188,146307
2.87122,145618
2.88057,153879
2.88990,145808
2.89923,122043
2.90858,102081
2.91792,90016
2.92725,80539
2.93660,73863
2.94593,68069
2.95527,64473
2.96462,58700
2.97395,58374
2.98328,60022
2.99263,62231
3.00197,72799
3.01130,84825
3.02065,81650
3.02998,72039
3.03932,70692
3.04867,109120
3.05800,177348
3.06735,260897
3.07668,256398
3.08602,184309
3.09537,114362
3.10470,78086
3.11403,60671
3.12338,54877
3.13272,54359
3.14205,53526
3.15140,60076
3.16073,65547
3.17007,69904
3.17942,64058
3.18875,61364
3.19808,56514
3.20743,54298
3.21677,54249
3.22610,53353
3.23545,53490
3.24478,50433
3.25413,49901
3.26347,50118
3.27280,51079
3.28215,48447
3.29148,47409
3.30082,49757
3.31017,53018
3.31950,49500
3.32883,47895
3.33818,47615
3.34752,47525
3.35685,47298
3.36620,48950
3.37553,46939
3.38487,45262
3.39422,43494
3.40355,49088
3.41288,57892
3.42223,70094
3.43157,70567
3.44092,62712
3.45025,63024
3.45958,65543
3.46893,62717
3.47827,58064
3.48760,55014
3.49695,53388
3.50628,51911
3.51562,49098
3.52497,47539
3.53430,46627
3.54363,52211
3.55298,85617
3.56232,208872
3.57165,353471
3.58100,377338
3.59033,261351
3.59968,156457
3.60902,170888
3.61835,175460
3.62770,159341
3.63703,138497
3.64637,117446
3.65572,101363
3.66505,90949
3.67438,82032
3.68373,80058
3.69307,72557
3.70240,63572
3.71175,62532
3.72108,67676
3.73042,71850
3.73977,68954
3.74910,61165
3.75843,56691
3.76778,53619
3.77712,51371
3.78647,49534
3.79580,49411
3.80513,52974
3.81448,66944
3.82382,79820
3.83315,79535
3.84250,66789
3.85183,56957
3.86117,53088
3.87052,52093
3.87985,53395
3.88918,55902
3.89853,64785
3.90787,66497
3.91720,66595
3.92655,63617
3.93588,68008
3.94522,75159
3.95457,86729
3.96390,101088
3.97325,92903
3.98258,78646
3.99192,63921
4.00127,55563
4.01060,53049
4.01993,53891
4.02928,81633
4.03862,222680
4.04795,484431
4.05730,585666
4.06663,425382
4.07597,231840
4.08532,152255
4.09465,136752
4.10398,125255
4.11333,105178
4.12267,78920
4.13200,62679
4.14135,55907
4.15068,52849
4.16003,51435
4.16937,50723
4.17870,49110
4.18805,46076
4.19738,47976
4.20672,46235
4.21607,50152
4.22540,50016
4.23473,49310
4.24408,49382
4.25342,46045
4.26275,45672
4.27210,45636
4.28143,48029
4.29077,47733
4.30012,51291
4.30945,54037
4.31880,60440
4.32813,72829
4.33747,76064
4.34682,70984
4.35615,59031
4.36548,51549
4.37483,47720
4.38417,45986
4.39350,48711
4.40285,52498
4.41218,51712
4.42152,47106
4.43087,45646
4.44020,44342
4.44953,43550
4.45888,47280
4.46822,56212
4.47755,68821
4.48690,73135
4.49623,66641
4.50558,54896
4.51492,48560
4.52425,45301
4.53360,43756
4.54293,44151
4.55227,45783
4.56162,46264
4.57095,47634
4.58028,44336
4.58963,43441
4.59897,45873
4.60830,44330
4.61765,44282
4.62698,42985
4.63632,41848
4.64567,43359
4.65500,48378
4.66433,54762
4.67368,54988
4.68302,59247
4.69237,71825
4.70170,92152
4.71103,99021
4.72038,81146
4.72972,59264
4.73905,48842
4.74840,46200
4.75773,46897
4.76707,49528
4.77642,49700
4.78575,49554
4.79508,47674
4.80443,49433
4.81377,49348
4.82310,49394
4.83245,49318
4.84178,51189
4.85112,50365
4.86047,49527
4.86980,52370
4.87915,55647
4.88848,57560
4.89782,54264
4.90717,50139
4.91650,45839
4.92583,43802
4.93518,43842
4.94452,46955
4.95385,47037
4.96320,45603
4.97253,44294
4.98187,43342
4.99122,43072
5.00055,48256
5.00988,66898
5.01923,67379
5.02857,64914
5.03790,64184
5.04725,60278
5.05658,57065
5.06593,53634
5.07527,53228
5.08460,59000
5.09395,63676
5.10328,57900
5.11262,52357
5.12197,48033
5.13130,48732
5.14063,47062
5.14998,47732
5.15932,46339
5.16865,48757
5.17800,44808
5.18733,44274
5.19667,48698
5.20602,53225
5.21535,52901
5.22470,47981
5.23403,46547
5.24337,46815
5.25272,49453
5.26205,48757
5.27138,65911
5.28073,134338
5.29007,260216
5.29940,320043
5.30875,247770
5.31808,137898
5.32742,75319
5.33677,53664
5.34610,47972
5.35543,48100
5.36478,47450
5.37412,47798
5.38345,51632
5.39280,52427
5.40213,56354
5.41148,66917
5.42082,58025
5.43015,49482
5.43950,46554
5.44883,45903
5.45817,43039
5.46752,44712
5.47685,43749
5.48618,46123
5.49553,45099
5.50487,47863
5.51420,46067
5.52355,50980
5.53288,55900
5.54222,55795
5.55157,51444
5.56090,45918
5.57023,45402
5.57958,47303
5.58892,50628
5.59827,52482
5.60760,48967
5.61693,45195
5.62628,45195
5.63562,41065
5.64495,41660
5.65430,43892
5.66363,45199
5.67297,46733
5.68232,49321
5.69165,64651
5.70098,68718
5.71033,69350
5.71967,72169
5.72900,68249
5.73835,71032
5.74768,74534
5.75702,79023
5.76637,81293
5.77570,81717
5.78505,85439
5.79438,79954
5.80372,75427
5.81307,69662
5.82240,67188
5.83173,68496
5.84108,76234
5.85042,71450
5.85975,61364
5.86910,53221
5.87843,49632
5.88777,45918
5.89712,46057
5.90645,43914
5.91578,52580
5.92513,71775
5.93447,79151
5.94382,78586
5.95315,76249
5.96248,74709
5.97183,68586
5.98117,57364
5.99050,50806
5.99985,41967
6.00918,38412
6.01852,36359
6.02787,33120
6.03720,34101
6.04653,34173
6.05588,33753
6.06522,33684
6.07455,32207
6.08390,30872
6.09323,27868
6.10257,26184
6.11192,27679
6.12125,30387
6.13060,39415
6.13993,51527
6.14927,53539
6.15862,42231
6.16795,31967
6.17728,27933
6.18663,25613
6.19597,23898
6.20530,24317
6.21465,22438
6.22398,22400
6.23332,29547
6.24267,31877
6.25200,31502
6.26133,28172
6.27068,27858
6.28002,32632
6.28935,37745
6.29870,35001
6.30803,28023
6.31738,23573
6.32672,20524
6.33605,20692
6.34540,22363
6.35473,20018
6.36407,21138
6.37342,22018
6.38275,26256
6.39208,40498
6.40143,127205
6.41077,412976
6.42010,782665
6.42945,771668
6.43878,424106
6.44812,150672
6.45747,49762
6.46680,29948
6.47613,27392
6.48548,26238
6.49482,21767
6.50417,23120
6.51350,21953
6.52283,22114
6.53218,22039
6.54152,20095
6.55085,20437
6.56020,19266
6.56953,19829
6.57887,19185
6.58822,20535
6.59755,22821
6.60688,22034
6.61623,21029
6.62557,21871
6.63490,23913
6.64425,25265
6.65358,25237
6.66292,28711
6.67227,28531
6.68160,27217
6.69095,25919
6.70028,23050
6.70962,24892
6.71897,27385
6.72830,28326
6.73763,27225
6.74698,25396
6.75632,24394
6.76565,22230
6.77500,22102
6.78433,23198
6.79367,28118
6.80302,34676
6.81235,37171
6.82168,33196
6.83103,23173
6.84037,20772
6.84972,21511
6.85905,24995
6.86838,24979
6.87773,23220
6.88707,20153
6.89640,20362
6.90575,20660
6.91508,24250
6.92442,25846
6.93377,22591
6.94310,21747
6.95243,21400
6.96178,20565
6.97112,21380
6.98045,20874
6.98980,20728
6.99913,20641
7.00847,21232
7.01782,20317
7.02715,19626
7.03650,17585
7.04583,16599
7.05517,15479
7.06452,15948
7.07385,15654
7.08318,15970
7.09253,15897
7.10187,19681
7.11120,26690
7.12055,30023
7.12988,30854
7.13922,28814
7.14857,23744
7.15790,20502
7.16723,18933
7.17658,17754
7.18592,17557
7.19525,18673
7.20460,19970
7.21393,19615
7.22328,21965
7.23262,34810
7.24195,67337
7.25130,84496
7.26063,74543
7.26997,47066
7.27932,30350
7.28865,26081
7.29798,23881
7.30733,21760
7.31667,19734
7.32600,17005
7.33535,18463
7.34468,17782
7.35402,17449
7.36337,16715
7.37270,16543
7.38203,19954
7.39138,28766
7.40072,62114
7.41007,128036
7.41940,162191
7.42873,140642
7.43808,90180
7.44742,50610
7.45675,30200
7.46610,22348
7.47543,19161
7.48477,19739
7.49412,22393
7.50345,25957
7.51278,25547
7.52213,22263
7.53147,19856
7.54080,17851
7.55015,17699
7.55948,17148
7.56883,19400
7.57817,20287
7.58750,21167
7.59685,18981
7.60618,19320
7.61552,18965
7.62487,21692
7.63420,22268
7.64353,21653
7.65288,20891
7.66222,19012
7.67155,17954
7.68090,17559
7.69023,18730
7.69957,18732
7.70892,20259
7.71825,23050
7.72758,21254
7.73693,22566
7.74627,21439
7.75562,25157
7.76495,27275
7.77428,26439
7.78363,24736
7.79297,24291
7.80230,24256
7.81165,22704
7.82098,20584
7.83032,20624
7.83967,19627
7.84900,20923
7.85833,32405
7.86768,51156
7.87702,70441
7.88635,68612
7.89570,50765
7.90503,40066
7.91437,52871
7.92372,77315
7.93305,87776
7.94240,63976
7.95173,37932
7.96107,30587
7.97042,35202
7.97975,34566
7.98908,33339
7.99843,30412
8.00777,28875
8.01710,25907
8.02645,25777
8.03578,30558
8.04512,39434
8.05447,41932
8.06380,37581
8.07313,30231
8.08248,26648
8.09182,26132
8.10115,29944
8.11050,31858
8.11983,30737
8.12918,27306
8.13852,24267
8.14785,24567
8.15720,22948
8.16653,22762
8.17587,23179
8.18522,22473
8.19455,23482
8.20388,25392
8.21323,25071
8.22257,23923
8.23190,23873
8.24125,23206
8.25058,24690
8.25992,25587
8.26927,25996
8.27860,23929
8.28793,23238
8.29728,20105
8.30662,19814
8.31597,20783
8.32530,19906
8.33463,20944
8.34398,20904
8.35332,20797
8.36265,20693
8.37200,21041
8.38133,20840
8.39067,21770
8.40002,25000
8.40935,27336
8.41868,30582
8.42803,30492
8.43737,30370
8.44670,28034
8.45605,27276
8.46538,25512
8.47472,25426
8.48407,24726
8.49340,24288
8.50275,24879
8.51208,23735
8.52142,20973
8.53077,21134
8.54010,23005
8.54943,26608
8.55878,35700
8.56812,46985
8.57745,46067
8.58680,43910
8.59613,40325
8.60547,38625
8.61482,36805
8.62415,35393
8.63348,29810
8.64283,28179
8.65217,27484
8.66152,27817
8.67085,25500
8.68018,27076
8.68953,25049
8.69887,24962
8.70820,24313
8.71755,25258
8.72688,24784
8.73622,23627
8.74557,21932
8.75490,23761
8.76423,23480
8.77358,26100
8.78292,26823
8.79225,29986
8.80160,39371
8.81093,58987
8.82027,75412
8.82962,61425
8.83895,38923
8.84830,26918
8.85763,25919
8.86697,23419
8.87632,23152
8.88565,23858
8.89498,24658
8.90433,24226
8.91367,22834
8.92300,22548
8.93235,24781
8.94168,23462
8.95102,22902
8.96037,22290
8.96970,21502
8.97903,20890
8.98838,22224
8.99772,22847
9.00705,25410
9.01640,26984
9.02573,26740
9.03508,24228
9.04442,24174
9.05375,22920
9.06310,22924
9.07243,24208
9.08177,24312
9.09112,24911
9.10045,24945
9.10978,22893
9.11913,25003
9.12847,33799
9.13780,52613
9.14715,62915
9.15648,55342
9.16582,36203
9.17517,27407
9.18450,24009
9.19383,22958
9.20318,22798
9.21252,22553
9.22187,30321
9.23120,38939
9.24053,47778
9.24988,42459
9.25922,32210
9.26855,25612
9.27790,23990
9.28723,24395
9.29657,26042
9.30592,26064
9.31525,26325
9.32458,27275
9.33393,29116
9.34327,29234
9.35260,30249
9.36195,45993
9.37128,93960
9.38063,161167
9.38997,174071
9.39930,127309
9.40865,82710
9.41798,57255
9.42732,47117
9.43667,47387
9.44600,40786
9.45533,33019
9.46468,26296
9.47402,25398
9.48335,24174
9.49270,22308
9.50203,24386
9.51137,24274
9.52072,23036
9.53005,24403
9.53938,28523
9.54873,35767
9.55807,35437
9.56742,38829
9.57675,36155
9.58608,31976
9.59543,25673
9.60477,27199
9.61410,28263
9.62345,27198
9.63278,26471
9.64212,26766
9.65147,27177
9.66080,29116
9.67013,28654
9.67948,27818
9.68882,25380
9.69815,26028
9.70750,24796
9.71683,28670
9.72617,68672
9.73552,253505
9.74485,675102
9.75420,976617
9.76353,782817
9.77287,412308
9.78222,192489
9.79155,114548
9.80088,87967
9.81023,71260
9.81957,61362
9.82890,61641
9.83825,65762
9.84758,62894
9.85692,55500
9.86627,48610
9.87560,45343
9.88493,51145
9.89428,64063
9.90362,77507
9.91295,81205
9.92230,88518
9.93163,96390
9.94098,93087
9.95032,77250
9.95965,62716
9.96900,56323
9.97833,61739
9.98767,86694
9.99702,119517
10.00635,109490
10.01568,75795
10.02503,54118
10.03437,42369
10.04370,38453
10.05305,36558
10.06238,42712
10.07172,55143
10.08107,68051
10.09040,64995
10.09973,54182
10.10908,50566
10.11842,102177
10.12777,264124
10.13710,417911
10.14643,393984
10.15578,367003
10.16512,673113
10.17445,958072
10.18380,712888
10.19313,273123
10.20247,74793
10.21182,37909
10.22115,34632
10.23048,33276
10.23983,36930
10.24917,43068
10.25850,45815
10.26785,39074
10.27718,33233
10.28653,31270
10.29587,32747
10.30520,32280
10.31455,31833
10.32388,31936
10.33322,31449
10.34257,32296
10.35190,31306
10.36123,31052
10.37058,32670
10.37992,30494
10.38925,29794
10.39860,28241
10.40793,27119
10.41727,26863
10.42662,26676
10.43595,27721
10.44528,29926
10.45463,33300
10.46397,38795
10.47332,39552
10.48265,38006
10.49198,31905
10.50133,30966
10.51067,31550
10.52000,30432
10.52935,28878
10.53868,27652
10.54802,29207
10.55737,29293
10.56670,30004
10.57603,30397
10.58538,32704
10.59472,31458
10.60405,29132
10.61340,27063
10.62273,30416
10.63207,34114
10.64142,38549
10.65075,40153
10.66010,33495
10.66943,32128
10.67877,34343
10.68812,39377
10.69745,37844
10.70678,32305
10.71613,35824
10.72547,41543
10.73480,39362
10.74415,37434
10.75348,43565
10.76282,69775
10.77217,97076
10.78150,91799
10.79083,80619
10.80018,114312
10.80952,181932
10.81885,194479
10.82820,131069
10.83753,68719
10.84688,40628
10.85622,33164
10.86555,35440
10.87490,38500
10.88423,50440
10.89357,57645
10.90292,53004
10.91225,40557
10.92158,33196
10.93093,33197
10.94027,33414
10.94960,32888
10.95895,31367
10.96828,33775
10.97762,31774
10.98697,30526
10.99630,27446
11.00565,24706
11.01498,26667
11.02432,28702
11.03367,25986
11.04300,30396
11.05233,29274
11.06168,25884
11.07102,27325
11.08035,25601
11.08970,26222
11.09903,27524
11.10837,28937
11.11772,32710
11.12705,32949
11.13638,31652
11.14573,32570
11.15507,32902
11.16440,32756
11.17375,31381
11.18308,29743
11.19243,28393
11.20177,26176
11.21110,25160
11.22045,27845
11.22978,27764
11.23912,30555
11.24847,28705
11.25780,31372
11.26713,35324
11.27648,38414
11.28582,32523
11.29515,30811
11.30450,28346
11.31383,26154
11.32317,26699
11.33252,31612
11.34185,43157
11.35118,55225
11.36053,60462
11.36987,56635
11.37922,46413
11.38855,39267
11.39788,38711
11.40723,45709
11.41657,48191
11.42590,42644
11.43525,35026
11.44458,29212
11.45392,29781
11.46327,31767
11.47260,41400
11.48193,44227
11.49128,40464
11.50062,30766
11.50995,29618
11.51930,27970
11.52863,27242
11.53797,27478
11.54732,27861
11.55665,29379
11.56600,37147
11.57533,58461
11.58467,83116
11.59402,84406
11.60335,71686
11.61268,57556
11.62203,48106
11.63137,44026
11.64070,53477
11.65005,94107
11.65938,149065
11.66872,153968
11.67807,108762
11.68740,70101
11.69673,51274
11.70608,43449
11.71542,40162
11.72475,37893
11.73410,35696
11.74343,35258
11.75278,32246
11.76212,34407
11.77145,36048
11.78080,39337
11.79013,43827
11.79947,48452
11.80882,44466
11.81815,40318
11.82748,41607
11.83683,41530
11.84617,38036
11.85550,35363
11.86485,33803
11.87418,34398
11.88352,36650
11.89287,36219
11.90220,34097
11.91153,31418
11.92088,31478
11.93022,32109
11.93957,38763
11.94890,52482
11.95823,60179
11.96758,50710
11.97692,38130
11.98625,31011
11.99560,29409
12.00493,33073
12.01427,40975
12.02362,45762
12.03295,48240
12.04228,39298
12.05163,34807
12.06097,31576
12.07030,29129
12.07965,28133
12.08898,26536
12.09833,29997
12.10767,32717
12.11700,32701
12.12635,31976
12.13568,33512
12.14502,31918
12.15437,34042
12.16370,39466
12.17303,61587
12.18238,98451
12.19172,99316
12.20105,69430
12.21040,44846
12.21973,34533
12.22907,38838
12.23842,44002
12.24775,41327
12.25708,35578
12.26643,38535
12.27577,58517
12.28512,94539
12.29445,97967
12.30378,67989
12.31313,44053
12.32247,36325
12.33180,34151
12.34115,36627
12.35048,36224
12.35982,34457
12.36917,33734
12.37850,35413
12.38783,38826
12.39718,40863
12.40652,38244
12.41585,35826
12.42520,34226
12.43453,34195
12.44387,29545
12.45322,29173
12.46255,30563
12.47190,34115
12.48123,38187
12.49057,37164
12.49992,38059
12.50925,37120
12.51858,37226
12.52793,37004
12.53727,38419
12.54660,38061
12.55595,42713
12.56528,47898
12.57462,50693
12.58397,45082
12.59330,35551
12.60263,33474
12.61198,35393
12.62132,50206
12.63065,79749
12.64000,108895
12.64933,122905
12.65868,122283
12.66802,140366
12.67735,132532
12.68670,97378
12.69603,54414
12.70537,37015
12.71472,36144
12.72405,40570
12.73338,42208
12.74273,38757
12.75207,37411
12.76140,36538
12.77075,33404
12.78008,32885
12.78942,28495
12.79877,30667
12.80810,31661
12.81745,31268
12.82678,32540
12.83612,29442
12.84547,30640
12.85480,28130
12.86413,27403
12.87348,28403
12.88282,28539
12.89215,26589
12.90150,29990
12.91083,31030
12.92017,28146
12.92952,27015
12.93885,29126
12.94818,31167
12.95753,33058
12.96687,31685
12.97620,29766
12.98555,28228
12.99488,28260
13.00423,29361
13.01357,31837
13.02290,33054
13.03225,41873
13.04158,43232
13.05092,40114
13.06027,36976
13.06960,34853
13.07893,36588
13.08828,35730
13.09762,35433
13.10695,33853
13.11630,34205
13.12563,34842
13.13497,33221
13.14432,37381
13.15365,42918
13.16298,48889
13.17233,46424
13.18167,46298
13.19102,48255
13.20035,85708
13.20968,197032
13.21903,325087
13.22837,323619
13.23770,201297
13.24705,118565
13.25638,99281
13.26572,85990
13.27507,72661
13.28440,74784
13.29373,76402
13.30308,78808
13.31242,66054
13.32175,61525
13.33110,57764
13.34043,54606
13.34977,49203
13.35912,47097
13.36845,43033
13.37780,41100
13.38713,39168
13.39647,42509
13.40582,51978
13.41515,49286
13.42448,43680
13.43383,40589
13.44317,43755
13.45250,45675
13.46185,44495
13.47118,39896
13.48052,40187
13.48987,39609
13.49920,39875
13.50853,39047
13.51788,46354
13.52722,76349
13.53655,98385
13.54590,89799
13.55523,59061
13.56458,41119
13.57392,34203
13.58325,32907
13.59260,30993
13.60193,31651
13.61127,30373
13.62062,30687
13.62995,30195
13.63928,32398
13.64863,36082
13.65797,38592
13.66730,38126
13.67665,34741
13.68598,32756
13.69532,30407
13.70467,29888
13.71400,27554
13.72335,28479
13.73268,27019
13.74202,27629
13.75137,28795
13.76070,30973
13.77003,40779
13.77938,41966
13.78872,45031
13.79805,47466
13.80740,49484
13.81673,50540
13.82607,48581
13.83542,46309
13.84475,44552
13.85408,45911
13.86343,50360
13.87277,51856
13.88210,58285
13.89145,73649
13.90078,112702
13.91013,173410
13.91947,248722
13.92880,273768
13.93815,190596
13.94748,97215
13.95682,58930
13.96617,48922
13.97550,45222
13.98483,43076
13.99418,44298
14.00352,44844
14.01285,44948
14.02220,40945
14.03153,38827
14.04087,51268
14.05022,198519
14.05955,1112264
14.06888,3713532
14.07823,6665646
14.08757,6035496
14.09692,2470003
14.10625,527222
14.11558,99577
14.12493,53463
14.13427,47800
14.14360,47275
14.15295,48031
14.16228,51794
14.17162,54032
14.18097,53433
14.19030,52736
14.19963,59079
14.20898,63365
14.21832,50519
14.22765,37648
14.23700,32896
14.24633,33095
14.25567,31773
14.26502,33973
14.27435,37114
14.28370,36853
14.29303,35313
14.30237,33379
14.31172,33002
14.32105,42754
14.33038,57547
14.33973,64533
14.34907,58654
14.35840,45732
14.36775,38356
14.37708,35085
14.38642,34425
14.39577,33747
14.40510,35773
14.41443,34764
14.42378,32018
14.43312,31969
14.44247,31888
14.45180,40086
14.46113,54159
14.47048,72337
14.47982,69174
14.48915,57013
14.49850,41210
14.50783,34118
14.51717,31967
14.52652,29401
14.53585,31024
14.54518,31475
14.55453,35127
14.56387,37205
14.57320,38483
14.58255,36445
14.59188,34872
14.60122,33479
14.61057,32292
14.61990,34581
14.62925,36777
14.63858,46219
14.64792,64213
14.65727,89043
14.66660,96700
14.67593,85470
14.68528,64282
14.69462,52085
14.70395,45847
14.71330,42066
14.72263,40024
14.73197,39290
14.74132,41070
14.75065,41120
14.75998,39585
14.76933,37839
14.77867,39232
14.78800,40156
14.79735,40295
14.80668,39049
14.81603,37888
14.82537,39467
14.83470,39514
14.84405,37685
14.85338,37339
14.86272,40842
14.87207,50999
14.88140,59320
14.89073,55759
14.90008,48239
14.90942,41062
14.91875,36987
14.92810,38314
14.93743,36696
14.94677,35215
14.95612,36976
14.96545,38239
14.97478,42042
14.98413,43566
14.99347,40316
15.00282,40167
15.01215,47062
15.02148,51551
15.03083,46166
15.04017,43144
15.04950,45155
15.05885,49202
15.06818,50182
15.07752,47233
15.08687,40671
15.09620,37368
15.10553,35458
15.11488,36250
15.12422,40925
15.13355,51400
15.14290,57365
15.15223,50111
15.16157,41085
15.17092,38340
15.18025,35643
15.18960,39057
15.19893,46629
15.20827,64100
15.21762,87079
15.22695,102212
15.23628,86503
15.24563,66980
15.25497,48806
15.26430,39425
15.27365,36670
15.28298,40115
15.29232,37190
15.30167,37194
15.31100,33459
15.32033,35695
15.32968,42072
15.33902,49035
15.34835,50280
15.35770,45596
15.36703,47350
15.37638,54153
15.38572,60610
15.39505,47084
15.40440,37939
15.41373,35214
15.42307,36325
15.43242,40426
15.44175,40963
15.45108,35874
15.46043,34764
15.46977,34527
15.47910,35161
15.48845,35994
15.49778,36799
15.50712,43020
15.51647,59569
15.52580,78178
15.53515,75897
15.54448,58339
15.55382,42070
15.56317,35341
15.57250,32855
15.58183,34522
15.59118,34735
15.60052,34053
15.60985,34297
15.61920,36179
15.62853,39612
15.63787,43044
15.64722,48837
15.65655,55331
15.66588,61168
15.67523,57975
15.68457,54202
15.69390,51721
15.70325,56985
15.71258,67649
15.72193,64057
15.73127,51656
15.74060,44864
15.74995,47610
15.75928,55312
15.76862,57691
15.77797,53776
15.78730,48691
15.79663,45363
15.80598,53942
15.81532,99197
15.82465,209874
15.83400,358091
15.84333,454057
15.85267,410764
15.86202,268841
15.87135,131432
15.88068,76306
15.89003,71394
15.89937,83336
15.90872,87689
15.91805,77169
15.92738,63035
15.93673,52119
15.94607,44130
15.95540,41934
15.96475,43251
15.97408,50428
15.98342,64356
15.99277,71751
16.00210,73326
16.01143,63170
16.02078,49400
16.03012,42227
16.03945,41630
16.04880,42435
16.05813,42468
16.06747,46797
16.07682,44618
16.08615,43819
16.09550,45599
16.10483,47435
16.11417,57206
16.12352,66743
16.13285,66389
16.14218,59217
16.15153,51209
16.16087,48435
16.17020,45572
16.17955,43592
16.18888,42537
16.19822,46384
16.20757,54822
16.21690,64998
16.22623,79618
16.23558,87484
16.24492,82153
16.25427,73398
16.26360,65667
16.27293,67707
16.28228,75781
16.29162,128272
16.30095,217118
16.31030,251129
16.31963,187690
16.32897,100462
16.33832,60341
16.34765,46451
16.35698,39060
16.36633,36135
16.37567,35205
16.38500,35672
16.39435,38067
16.40368,39158
16.41302,42186
16.42237,44371
16.43170,43945
16.44105,42250
16.45038,43289
16.45972,49917
16.46907,54531
16.47840,52968
16.48773,49612
16.49708,47366
16.50642,47012
16.51575,46192
16.52510,46769
16.53443,46029
16.54377,42694
16.55312,43016
16.56245,39383
16.57178,40332
16.58113,43419
16.59047,43804
16.59980,45346
16.60915,41052
16.61848,41860
16.62783,45609
16.63717,52697
16.64650,53239
16.65585,50405
16.66518,45703
16.67452,40446
16.68387,39084
16.69320,47761
16.70253,53260
16.71188,58396
16.72122,50023
16.73055,41942
16.73990,49953
16.74923,84794
16.75857,126094
16.76792,116137
16.77725,76300
16.78658,50286
16.79593,44423
16.80527,41829
16.81462,43275
16.82395,46128
16.83328,49145
16.84263,53354
16.85197,51466
16.86130,47091
16.87065,40432
16.87998,39612
16.88932,38535
16.89867,40104
16.90800,44234
16.91733,51785
16.92668,63154
16.93602,55432
16.94535,53261
16.95470,52797
16.96403,58702
16.97337,61602
16.98272,53611
16.99205,46761
17.00140,40060
17.01073,37692
17.02007,41389
17.02942,58396
17.03875,87420
17.04808,93727
17.05743,68575
17.06677,52891
17.07610,44423
17.08545,41746
17.09478,41161
17.10412,40172
17.11347,39316
17.12280,37578
17.13213,38409
17.14148,42138
17.15082,44850
17.16015,39423
17.16950,34913
17.17883,35917
17.18818,36584
17.19752,34669
17.20685,33763
17.21620,34578
17.22553,34067
17.23487,32985
17.24422,32039
17.25355,35794
17.26288,37550
17.27223,38139
17.28157,43778
17.29090,49360
17.30025,49489
17.30958,46267
17.31892,45918
17.32827,51455
17.33760,50363
17.34695,42544
17.35628,40703
17.36562,41145
17.37497,54168
17.38430,108005
17.39363,181262
17.40298,195210
17.41232,174310
17.42165,164202
17.43100,130030
17.44033,85716
17.44967,62181
17.45902,52157
17.46835,47562
17.47768,45226
17.48703,61356
17.49637,202871
17.50570,876518
17.51505,2234934
17.52438,3013368
17.53373,2027829
17.54307,706806
17.55240,157044
17.56175,57453
17.57108,50541
17.58042,53140
17.58977,57490
17.59910,56449
17.60843,48621
17.61778,44658
17.62712,39276
17.63645,40522
17.64580,41739
17.65513,43744
17.66447,47588
17.67382,53348
17.68315,55869
17.69248,55918
17.70183,59537
17.71117,57086
17.72052,57195
17.72985,53881
17.73918,48847
17.74853,47291
17.75787,51180
17.76720,55878
17.77655,59678
17.78588,54178
17.79522,51670
17.80457,49316
17.81390,48580
17.82323,42497
17.83258,41253
17.84192,40801
17.85125,43016
17.86060,53308
17.86993,60098
17.87927,63088
17.88862,55796
17.89795,50475
17.90730,44102
17.91663,39502
17.92597,38500
17.93532,38893
17.94465,41452
17.95398,39195
17.96333,37381
17.97267,38338
17.98200,39348
17.99135,39476
18.00068,39334
18.01002,39788
18.01937,38857
18.02870,36744
18.03803,39134
18.04738,41548
18.05672,44713
18.06607,48564
18.07540,45953
18.08473,36942
18.09408,35562
18.10342,35703
18.11275,38308
18.12210,39521
18.13143,39917
18.14077,39702
18.15012,42709
18.15945,43128
18.16878,43809
18.17813,43195
18.18747,41897
18.19680,37936
18.20615,39251
18.21548,37933
18.22482,39468
18.23417,43655
18.24350,41048
18.25285,40905
18.26218,36996
18.27152,39040
18.28087,44157
18.29020,44791
18.29953,48988
18.30888,51977
18.31822,53818
18.32755,51129
18.33690,49541
18.34623,54646
18.35557,59068
18.36492,61618
18.37425,60324
18.38358,55850
18.39293,53946
18.40227,51293
18.41160,52338
18.42095,49716
18.43028,46145
18.43963,44778
18.44897,48901
18.45830,54073
18.46765,48493
18.47698,43169
18.48632,45344
18.49567,55016
18.50500,66585
18.51433,81847
18.52368,80107
18.53302,72381
18.54235,60886
18.55170,60079
18.56103,61510
18.57037,55570
18.57972,49478
18.58905,43814
18.59838,43788
18.60773,45662
18.61707,52727
18.62642,53189
18.63575,50740
18.64508,50716
18.65443,50993
18.66377,52060
18.67310,49972
18.68245,50959
18.69178,48528
18.70112,50106
18.71047,51604
18.71980,55779
18.72913,54197
18.73848,50563
18.74782,49362
18.75715,44568
18.76650,40666
18.77583,38544
18.78517,37925
18.79452,36645
18.80385,37940
18.81320,42100
18.82253,44714
18.83187,47280
18.84122,44422
18.85055,40559
18.85988,37953
18.86923,34771
18.87857,36222
18.88790,36714
18.89725,35271
18.90658,43115
18.91592,51128
18.92527,58298
18.93460,56122
18.94393,51137
18.95328,53606
18.96262,62203
18.97197,63727
18.98130,58287
18.99063,50163
18.99998,45536
19.00932,46529
19.01865,44018
19.02800,43665
19.03733,47106
19.04667,60523
19.05602,84218
19.06535,102419
19.07468,115574
19.08403,129818
19.09337,145436
19.10270,120704
19.11205,84753
19.12138,58496
19.13072,44858
19.14007,42323
19.14940,37446
19.15875,37091
19.16808,36562
19.17742,34862
19.18677,38302
19.19610,43705
19.20543,48180
19.21478,50706
19.22412,48657
19.23345,47915
19.24280,45739
19.25213,42584
19.26147,38836
19.27082,39589
19.28015,43166
19.28948,48020
19.29883,53396
19.30817,60445
19.31750,75683
19.32685,82044
19.33618,68917
19.34553,54121
19.35487,44472
19.36420,38750
19.37355,37586
19.38288,39111
19.39222,39439
19.40157,41007
19.41090,43994
19.42023,43926
19.42958,40101
19.43892,38220
19.44825,35976
19.45760,37439
19.46693,40330
19.47627,40987
19.48562,44797
19.49495,48959
19.50428,47827
19.51363,44071
19.52297,41168
19.53232,42267
19.54165,43881
19.55098,38741
19.56033,39085
19.56967,38914
19.57900,42116
19.58835,48507
19.59768,49256
19.60702,44642
19.61637,42999
19.62570,44054
19.63503,52784
19.64438,55958
19.65372,56433
19.66305,47736
19.67240,43806
19.68173,43608
19.69108,44149
19.70042,50754
19.70975,51505
19.71910,54059
19.72843,69540
19.73777,87867
19.74712,86690
19.75645,70853
19.76578,55899
19.77513,53866
19.78447,53076
19.79380,52127
19.80315,49518
19.81248,44479
19.82182,41037
19.83117,44289
19.84050,41916
19.84983,39314
19.85918,38021
19.86852,46224
19.87787,64295
19.88720,79113
19.89653,72594
19.90588,60615
19.91522,50172
19.92455,46533
19.93390,45085
19.94323,43545
19.95257,42181
19.96192,41168
19.97125,42702
19.98058,41644
19.98993,39056
19.99927,38351
20.00860,38964
20.01795,41576
20.02728,46198
20.03662,46529
20.04597,49723
20.05530,50259
20.06465,48594
20.07398,47200
20.08332,50595
20.09267,48102
20.10200,45493
20.11133,40314
20.12068,39368
20.13002,35493
20.13935,37532
20.14870,44178
20.15803,51389
20.16737,56086
20.17672,50136
20.18605,47023
20.19538,40123
20.20473,40786
20.21407,43061
20.22340,44079
20.23275,41924
20.24208,44550
20.25143,46157
20.26077,46289
20.27010,45448
20.27945,41260
20.28878,40194
20.29812,42676
20.30747,40560
20.31680,37995
20.32613,35486
20.33548,35977
20.34482,35279
20.35415,36676
20.36350,40376
20.37283,41681
20.38217,41697
20.39152,39559
20.40085,36481
20.41018,34863
20.41953,34702
20.42887,35851
20.43822,37020
20.44755,36502
20.45688,39936
20.46623,42646
20.47557,48931
20.48490,51763
20.49425,46650
20.50358,43852
20.51292,39476
20.52227,37348
20.53160,37084
20.54093,40048
20.55028,43526
20.55962,54987
20.56895,106536
20.57830,231603
20.58763,323772
20.59697,263410
20.60632,131404
20.61565,65621
20.62500,49866
20.63433,46910
20.64367,49689
20.65302,49679
20.66235,49566
20.67168,46764
20.68103,45191
20.69037,44754
20.69970,44549
20.70905,44411
20.71838,43862
20.72772,45447
20.73707,44577
20.74640,42619
20.75573,42497
20.76508,43684
20.77442,39354
20.78377,38791
20.79310,42361
20.80243,42821
20.81178,47499
20.82112,47100
20.83045,45160
20.83980,41928
20.84913,40524
20.85847,37841
20.86782,38779
20.87715,38812
20.88648,37440
20.89583,39061
20.90517,41937
20.91450,41629
20.92385,41233
20.93318,40155
20.94252,39608
20.95187,37841
20.96120,36952
20.97055,38270
20.97988,36501
20.98922,35456
20.99857,36459
21.00790,37358
21.01723,38109
21.02658,37528
21.03592,36881
21.04525,37121
21.05460,38046
21.06393,38304
21.07327,40170
21.08262,36406
21.09195,37916
21.10128,37121
21.11063,41248
21.11997,42502
21.12930,43195
21.13865,45191
21.14798,41801
21.15733,43851
21.16667,43268
21.17600,50010
21.18535,63272
21.19468,72423
21.20402,63555
21.21337,53266
21.22270,44399
21.23203,44510
21.24138,41792
21.25072,42160
21.26005,40083
21.26940,46843
21.27873,55644
21.28807,66225
21.29742,72281
21.30675,62302
21.31608,50585
21.32543,44761
21.33477,42123
21.34412,41889
21.35345,43406
21.36278,41510
21.37213,40078
21.38147,42984
21.39080,41744
21.40015,43656
21.40948,47221
21.41882,46360
21.42817,47611
21.43750,45707
21.44683,43215
21.45618,42319
21.46552,43125
21.47485,43071
21.48420,45479
21.49353,47416
21.50288,46313
21.51222,46192
21.52155,44688
21.53090,44392
21.54023,40523
21.54957,43347
21.55892,46473
21.56825,61179
21.57758,77087
21.58693,85808
21.59627,71467
21.60560,56614
21.61495,47784
21.62428,46350
21.63362,45614
21.64297,46200
21.65230,45332
21.66163,42688
21.67098,46343
21.68032,51842
21.68967,54673
21.69900,55717
21.70833,51927
21.71768,49310
21.72702,50619
21.73635,48732
21.74570,47778
21.75503,46593
21.76437,40677
21.77372,42771
21.78305,41959
21.79238,41278
21.80173,43421
21.81107,45354
21.82040,54188
21.82975,54477
21.83908,52666
21.84842,47159
21.85777,45243
21.86710,43307
21.87645,46007
21.88578,50024
21.89512,51009
21.90447,54253
21.91380,48720
21.92313,45632
21.93248,43605
21.94182,44292
21.95115,45579
21.96050,50924
21.96983,61146
21.97917,73011
21.98852,78289
21.99785,81958
22.00718,71881
22.01653,58217
22.02587,49162
22.03520,46784
22.04455,52207
22.05388,54493
22.06323,53605
22.07257,50841
22.08190,52432
22.09125,53295
22.10058,48576
22.10992,46449
22.11927,45695
22.12860,43385
22.13793,42103
22.14728,45983
22.15662,51585
22.16595,57601
22.17530,66536
22.18463,66272
22.19397,58662
22.20332,51093
22.21265,49541
22.22198,51938
22.23133,52825
22.24067,57358
22.25002,52712
22.25935,51582
22.26868,52362
22.27803,58517
22.28737,67857
22.29670,73286
22.30605,72144
22.31538,63458
22.32472,56335
22.33407,52268
22.34340,53150
22.35273,57648
22.36208,66837
22.37142,67145
22.38075,66650
22.39010,67303
22.39943,64650
22.40878,58878
22.41812,61335
22.42745,62641
22.43680,65480
22.44613,69695
22.45547,70429
22.46482,67130
22.47415,69443
22.48348,69832
22.49283,69050
22.50217,69904
22.51150,71248
22.52085,72631
22.53018,76016
22.53952,75287
22.54887,74547
22.55820,74228
22.56753,77328
22.57688,85271
22.58622,88897
22.59557,87757
22.60490,89346
22.61423,88629
22.62358,87185
22.63292,83603
22.64225,86931
22.65160,78322
22.66093,74844
22.67027,75673
22.67962,78319
22.68895,83873
22.69828,87404
22.70763,85659
22.71697,77437
22.72630,73519
22.73565,75361
22.74498,78876
22.75432,80979
22.76367,80080
22.77300,75384
22.78235,69237
22.79168,65901
22.80102,68419
22.81037,70143
22.81970,67060
22.82903,63562
22.83838,63243
22.84772,59407
22.85705,58310
22.86640,54892
22.87573,56019
22.88507,54161
22.89442,55596
22.90375,56553
22.91308,54828
22.92243,55479
22.93177,57275
22.94110,57975
22.95045,54232
22.95978,52435
22.96913,51481
22.97847,50086
22.98780,45207
22.99715,45092
23.00648,43615
23.01582,44921
23.02517,44635
23.03450,42739
23.04383,45139
23.05318,44237
23.06252,45332
23.07185,45627
23.08120,44291
23.09053,43891
23.09987,42481
23.10922,43212
23.11855,41476
23.12790,39298
23.13723,42130
23.14657,43118
23.15592,41633
23.16525,41109
23.17458,43965
23.18393,41670
23.19327,41153
23.20260,42421
23.21195,40630
23.22128,42115
23.23062,42906
23.23997,46382
23.24930,55623
23.25863,60895
23.26798,66341
23.27732,62703
23.28665,55424
23.29600,49503
23.30533,46176
23.31468,45601
23.32402,48992
23.33335,59291
23.34270,71491
23.35203,70515
23.36137,59749
23.37072,49359
23.38005,44452
23.38938,42238
23.39873,44413
23.40807,45328
23.41740,44623
23.42675,44015
23.43608,42905
23.44542,44929
23.45477,44639
23.46410,44394
23.47343,46053
23.48278,44921
23.49212,43263
23.50147,42635
23.51080,41793
23.52013,39239
23.52948,44250
23.53882,42932
23.54815,43220
23.55750,42287
23.56683,39792
23.57617,41323
23.58552,42448
23.59485,42153
23.60418,42829
23.61353,41747
23.62287,42215
23.63220,40727
23.64155,40208
23.65088,39898
23.66022,39101
23.66957,41887
23.67890,46983
23.68825,51547
23.69758,52797
23.70692,48904
23.71627,48077
23.72560,49571
23.73493,53553
23.74428,52281
23.75362,48743
23.76295,46081
23.77230,42395
23.78163,39511
23.79097,40086
23.80032,38948
23.80965,40119
23.81898,42735
23.82833,39824
23.83767,39456
23.84700,39934
23.85635,39286
23.86568,39334
23.87503,37968
23.88437,40564
23.89370,41405
23.90305,40260
23.91238,38985
23.92172,41351
23.93107,38630
23.94040,38701
23.94973,39207
23.95908,38856
23.96842,40654
23.97775,37829
23.98710,38958
23.99643,37075
24.00577,38979
24.01512,40759
24.02445,39136
24.03378,39525
24.04313,38079
24.05247,36333
24.06182,38355
24.07115,39432
24.08048,41568
24.08983,42600
24.09917,43824
24.10850,46925
24.11785,48230
24.12718,47017
24.13652,44227
24.14587,42557
24.15520,43605
24.16453,39812
24.17388,40279
24.18322,39431
24.19255,40885
24.20190,41845
24.21123,39741
24.22058,39800
24.22992,40243
24.23925,40340
24.24860,43768
24.25793,43362
24.26727,43790
24.27662,42339
24.28595,40895
24.29528,41175
24.30463,37351
24.31397,41511
24.32330,44662
24.33265,45505
24.34198,44806
24.35132,43374
24.36067,42041
24.37000,42545
24.37933,41998
24.38868,43878
24.39802,43481
24.40737,47255
24.41670,44106
24.42603,42199
24.43538,40926
24.44472,40757
24.45405,40437
24.46340,42758
24.47273,40600
24.48207,40741
24.49142,41033
24.50075,42100
24.51008,41711
24.51943,39945
24.52877,41876
24.53810,41117
24.54745,42180
24.55678,42329
24.56612,40598
24.57547,39953
24.58480,39841
24.59415,41303
24.60348,39597
24.61282,40061
24.62217,44566
24.63150,44415
24.64083,43471
24.65018,41132
24.65952,39235
24.66885,41170
24.67820,41288
24.68753,39772
24.69687,40476
24.70622,42559
24.71555,41858
24.72488,40903
24.73423,40125
24.74357,41840
24.75290,40711
24.76225,40790
24.77158,40334
24.78093,39489
24.79027,40448
24.79960,40594
24.80895,39008
24.81828,39908
24.82762,41133
24.83697,40692
24.84630,38413
24.85563,38806
24.86498,39941
24.87432,41094
24.88365,41007
24.89300,40894
24.90233,41525
24.91167,41681
24.92102,40032
24.93035,40404
24.93970,39849
24.94903,40798
24.95837,41153
24.96772,41402
24.97705,42050
24.98638,42110
24.99573,42227
25.00507,42232
25.01440,42962
25.02375,39873
25.03308,39978
25.04242,39251
25.05177,40670
25.06110,39416
25.07043,39024
25.07978,43263
25.08912,40979
25.09845,41826
25.10780,44302
25.11713,42581
25.12648,42774
25.13582,41280
25.14515,45300
25.15450,46850
25.16383,48188
25.17317,46159
25.18252,43684
25.19185,45039
25.20118,41231
25.21053,43376
25.21987,43965
25.22920,42564
25.23855,41557
25.24788,43635
25.25722,43707
25.26657,44554
25.27590,45493
25.28523,47594
25.29458,47664
25.30392,46750
25.31327,51876
25.32260,76196
25.33193,132559
25.34128,231615
25.35062,307088
25.35995,292026
25.36930,190922
25.37863,128014
25.38797,100292
25.39732,89641
25.40665,82894
25.41598,75768
25.42533,71617
25.43467,70670
25.44400,68226
25.45335,67060
25.46268,65608
25.47202,66865
25.48137,68648
25.49070,69543
25.50005,69485
25.50938,70344
25.51872,67801
25.52807,67024
25.53740,66760
25.54673,64478
25.55608,61255
25.56542,59860
25.57475,60649
25.58410,59015
25.59343,57736
25.60277,56802
25.61212,58315
25.62145,56598
25.63078,55078
25.64013,57775
25.64947,57303
25.65880,58497
25.66815,59865
25.67748,58048
25.68683,56365
25.69617,55158
25.70550,52892
25.71485,52729
25.72418,51832
25.73352,53535
25.74287,52177
25.75220,53757
25.76153,55653
25.77088,53589
25.78022,54195
25.78955,52328
25.79890,53393
25.80823,56894
25.81757,56767
25.82692,56714
25.83625,56787
25.84560,56949
25.85493,56294
25.86427,54710
25.87362,52479
25.88295,51633
25.89228,50459
25.90163,49698
25.91097,49690
25.92030,51261
25.92965,51721
25.93898,50247
25.94832,51375
25.95767,54277
25.96700,52830
25.97633,50837
25.98568,52190
25.99502,52349
26.00435,51476
26.01370,48704
26.02303,48941
26.03238,52876
26.04172,52732
26.05105,53121
26.06040,51257
26.06973,51548
26.07907,52507
26.08842,53412
26.09775,51539
26.10708,50309
26.11643,48412
26.12577,53138
26.13510,54968
26.14445,57884
26.15378,59413
26.16312,60229
26.17247,57472
26.18180,55837
26.19113,54095
26.20048,52959
26.20982,51366
26.21917,51357
26.22850,50301
26.23783,52208
26.24718,52661
26.25652,50572
26.26585,52256
26.27520,51653
26.28453,52694
26.29387,52152
26.30322,53524
26.31255,54098
26.32188,52723
26.33123,52238
26.34057,51590
26.34990,51498
26.35925,49260
26.36858,52244
26.37792,48990
26.38727,49850
26.39660,49138
26.40595,47959
26.41528,49171
26.42462,48323
26.43397,48372
26.44330,48557
26.45263,52200
26.46198,52388
26.47132,51549
26.48065,53410
26.49000,53781
26.49933,53903
26.50867,54274
26.51802,53202
26.52735,55221
26.53668,57196
26.54603,58408
26.55537,60508
26.56472,57456
26.57405,57490
26.58338,56382
26.59273,56739
26.60207,57585
26.61140,57204
26.62075,57672
26.63008,55223
26.63942,53533
26.64877,54872
26.65810,53902
26.66743,54922
26.67678,52000
26.68612,54414
26.69545,52656
26.70480,52022
26.71413,50461
26.72347,50689
26.73282,50771
26.74215,49416
26.75150,50527
26.76083,52434
26.77017,51974
26.77952,52972
26.78885,54351
26.79818,52888
26.80753,53275
26.81687,50116
26.82620,52109
26.83555,52444
26.84488,51242
26.85422,53222
26.86357,50579
26.87290,51856
26.88223,51424
26.89158,50657
26.90092,50132
26.91025,50392
26.91960,51419
26.92893,50516
26.93828,47442
26.94762,48138
26.95695,50020
26.96630,49808
26.97563,49142
26.98497,49924
26.99432,51523
27.00365,53001
27.01298,55868
27.02233,53241
27.03167,53888
27.04100,51555
27.05035,49434
27.05968,50664
27.06902,50435
27.07837,49742
27.08770,49108
27.09703,49628
27.10638,48616
27.11572,49272
27.12507,51904
27.13440,51149
27.14373,51479
27.15308,51725
27.16242,52185
27.17175,53573
27.18110,53692
27.19043,53504
27.19977,53295
27.20912,52472
27.21845,53547
27.22778,56978
27.23713,57422
27.24647,60696
27.25580,64837
27.26515,66488
27.27448,68900
27.28382,66359
27.29317,63123
27.30250,61173
27.31185,64235
27.32118,61171
27.33052,61259
27.33987,62727
27.34920,62720
27.35853,59535
27.36788,59228
27.37722,58211
27.38655,57952
27.39590,57670
27.40523,58398
27.41457,56239
27.42392,55968
27.43325,61751
27.44258,60769
27.45193,61855
27.46127,63534
27.47060,70560
27.47995,78415
27.48928,92334
27.49863,116112
27.50797,142494
27.51730,176540
27.52665,216189
27.53598,250108
27.54532,271207
27.55467,274455
27.56400,261426
27.57333,237299
27.58268,208855
27.59202,177973
27.60135,155151
27.61070,136867
27.62003,117801
27.62937,104983
27.63872,96436
27.64805,88607
27.65740,85888
27.66673,92002
27.67607,118983
27.68542,150922
27.69475,157353
27.70408,130159
27.71343,105815
27.72277,93338
27.73210,81444
27.74145,76837
27.75078,72957
27.76012,70266
27.76947,69444
27.77880,70410
27.78813,69135
27.79748,67812
27.80682,64363
27.81615,63551
27.82550,64925
27.83483,62291
27.84418,63217
27.85352,63148
27.86285,62558
27.87220,62369
27.88153,61130
27.89087,58316
27.90022,57015
27.90955,60719
27.91888,59703
27.92823,59557
27.93757,62599
27.94690,58828
27.95625,56859
27.96558,59194
27.97492,60360
27.98427,60087
27.99360,61516
28.00293,57747
28.01228,60518
28.02162,57332
28.03097,58294
28.04030,59196
28.04963,56927
28.05898,56906
28.06832,58021
28.07765,58426
28.08700,56119
28.09633,56103
28.10567,60371
28.11502,64537
28.12435,77818
28.13368,84983
28.14303,84409
28.15237,73727
28.16170,65838
28.17105,61170
28.18038,61765
28.18972,63225
28.19907,60343
28.20840,57668
28.21775,59544
28.22708,59379
28.23642,58526
28.24577,57921
28.25510,56768
28.26443,58387
28.27378,58031
28.28312,57542
28.29245,58343
28.30180,59298
28.31113,59413
28.32047,58626
28.32982,58060
28.33915,56121
28.34848,57037
28.35783,57001
28.36717,56490
28.37652,59816
28.38585,58567
28.39518,57776
28.40453,56988
28.41387,58034
28.42320,56801
28.43255,57783
28.44188,58264
28.45122,58857
28.46057,58598
28.46990,60062
28.47923,58693
28.48858,59148
28.49792,58924
28.50725,59204
28.51660,60955
28.52593,60099
28.53527,62988
28.54462,59551
28.55395,59056
28.56330,60229
28.57263,64676
28.58197,62413
28.59132,62222
28.60065,60669
28.60998,61819
28.61933,61764
28.62867,61292
28.63800,59018
28.64735,61349
28.65668,64497
28.66602,75124
28.67537,103602
28.68470,144418
28.69403,157772
28.70338,136914
28.71272,103529
28.72205,82730
28.73140,72313
28.74073,69513
28.75008,69561
28.75942,65170
28.76875,65615
28.77810,64878
28.78743,63802
28.79677,65312
28.80612,63651
28.81545,65354
28.82478,64803
28.83413,62386
28.84347,65460
28.85280,65960
28.86215,63597
28.87148,61692
28.88082,63321
28.89017,64996
28.89950,64674
28.90883,64582
28.91818,62292
28.92752,64803
28.93687,64304
28.94620,65397
28.95553,64243
28.96488,67706
28.97422,64717
28.98355,66406
28.99290,64471
29.00223,65908
29.01157,67111
29.02092,66366
29.03025,65172
29.03958,67472
29.04893,65519
29.05827,65711
29.06760,64673
29.07695,66727
29.08628,66852
29.09562,65522
29.10497,66154
29.11430,65148
29.12365,67961
29.13298,65091
29.14232,65741
29.15167,68366
29.16100,67200
29.17033,67872
29.17968,72972
29.18902,84230
29.19835,111605
29.20770,160727
29.21703,192557
29.22637,173720
29.23572,133295
29.24505,104012
29.25438,87068
29.26373,79455
29.27307,78126
29.28242,73202
29.29175,72971
29.30108,71221
29.31043,68968
29.31977,71712
29.32910,71761
29.33845,69434
29.34778,66357
29.35712,66981
29.36647,68711
29.37580,67374
29.38513,68463
29.39448,67379
29.40382,69533
29.41315,68812
29.42250,67999
29.43183,68366
29.44117,72116
29.45052,71895
29.45985,76164
29.46920,81910
29.47853,82750
29.48787,82749
29.49722,79610
29.50655,76120
29.51588,74976
29.52523,72476
29.53457,72796
29.54390,72291
29.55325,70742
29.56258,70427
29.57192,70276
29.58127,71008
29.59060,66965
29.59993,68334
29.60928,70854
29.61862,69302
29.62795,70366
29.63730,69158
29.64663,67150
29.65598,67494
29.66532,69316
29.67465,68646
29.68400,68871
29.69333,69553
29.70267,66183
29.71202,67603
29.72135,69754
29.73068,70457
29.74003,73669
29.74937,74590
29.75870,71631
29.76805,70754
29.77738,73330
29.78672,71695
29.79607,70556
29.80540,70477
29.81473,67646
29.82408,71124
29.83342,69606
29.84277,66248
29.85210,66000
29.86143,70037
29.87078,69459
29.88012,67003
29.88945,67694
29.89880,67203
29.90813,68506
29.91747,71397
29.92682,69573
29.93615,71588
29.94548,70482
29.95483,70397
29.96417,70844
29.97350,72164
29.98285,72243
29.99218,75109
30.00153,72630
30.01087,72857
30.02020,69383
30.02955,72479
30.03888,70226
30.04822,68037
30.05757,70019
30.06690,69880
30.07623,69362
30.08558,73833
30.09492,77237
30.10425,84751
30.11360,100890
30.12293,121582
30.13227,147130
30.14162,180743
30.15095,215558
30.16028,255367
30.16963,287411
30.17897,301069
30.18832,302507
30.19765,293043
30.20698,269453
30.21633,240883
30.22567,209116
30.23500,183530
30.24435,159893
30.25368,145438
30.26302,130192
30.27237,120928
30.28170,112986
30.29103,105915
30.30038,102067
30.30972,100284
30.31905,95645
30.32840,93699
30.33773,91562
30.34707,87579
30.35642,87832
30.36575,89450
30.37510,94338
30.38443,112917
30.39377,165945
30.40312,245125
30.41245,330022
30.42178,346574
30.43113,290181
30.44047,214560
30.44980,156707
30.45915,124742
30.46848,110043
30.47782,99847
30.48717,94669
30.49650,95096
30.50583,87816
30.51518,88105
30.52452,82060
30.53385,83003
30.54320,83524
30.55253,81839
30.56188,82572
30.57122,81091
30.58055,83346
30.58990,83157
30.59923,85308
30.60857,87160
30.61792,89124
30.62725,87858
30.63658,88909
30.64593,93176
30.65527,95912
30.66460,96243
30.67395,93928
30.68328,95297
30.69262,89968
30.70197,88221
30.71130,85041
30.72063,85048
30.72998,83093
30.73932,83749
30.74867,78765
30.75800,80832
30.76733,80409
30.77668,77855
30.78602,80840
30.79535,82505
30.80470,80890
30.81403,83541
30.82337,83206
30.83272,85051
30.84205,79770
30.85138,83421
30.86073,82788
30.87007,84313
30.87940,81502
30.88875,83290
30.89808,83354
30.90742,85844
30.91677,82186
30.92610,82680
30.93545,86641
30.94478,86042
30.95412,86814
30.96347,88308
30.97280,87897
30.98213,88047
30.99148,85799
31.00082,86270
31.01015,85926
31.01950,87135
31.02883,86965
31.03817,86783
31.04752,87479
31.05685,87180
31.06618,88705
31.07553,87901
31.08487,86303
31.09422,86228
31.10355,87934
31.11288,87589
31.12223,88382
31.13157,89583
31.14090,88073
31.15025,88802
31.15958,89413
31.16892,88912
31.17827,87042
31.18760,86437
31.19693,88150
31.20628,89286
31.21562,90191
31.22495,89773
31.23430,93192
31.24363,89593
31.25297,91567
31.26232,91550
31.27165,94605
31.28100,90970
31.29033,94894
31.29967,95069
31.30902,92882
31.31835,93268
31.32768,90643
31.33703,91552
31.34637,89278
31.35570,90752
31.36505,86977
