D:\数据\20211201\ZS1E-Z-000039.D Wed Dec 01 10:39:26 2021
Start of data points
0.09768,62727
0.10702,70899
0.11635,76776
0.12570,87367
0.13503,88466
0.14437,87760
0.15372,86605
0.16305,84383
0.17238,80289
0.18173,78594
0.19107,78600
0.20040,74282
0.20975,75706
0.21908,72358
0.22843,67976
0.23777,67295
0.24710,66389
0.25645,61920
0.26578,61733
0.27512,59262
0.28447,59460
0.29380,54726
0.30313,55391
0.31248,53766
0.32182,51297
0.33115,52685
0.34050,50202
0.34983,51347
0.35917,49443
0.36852,49992
0.37785,48113
0.38718,46990
0.39653,47353
0.40587,47988
0.41522,45046
0.42455,45415
0.43388,44651
0.44323,41171
0.45257,36394
0.46190,32509
0.47125,25727
0.48058,21873
0.48992,18669
0.49927,19449
0.50860,18595
0.51793,17473
0.52728,18778
0.53662,16596
0.54595,17492
0.55530,17042
0.56463,15974
0.57397,15551
0.58332,14999
0.59265,16067
0.60200,15913
0.61133,16137
0.62067,15147
0.63002,14272
0.63935,14751
0.64868,14476
0.65803,13950
0.66737,13949
0.67670,14175
0.68605,13469
0.69538,13226
0.70472,13490
0.71407,12951
0.72340,13080
0.73273,14327
0.74208,13296
0.75142,13035
0.76075,11905
0.77010,12326
0.77943,13360
0.78878,12024
0.79812,12248
0.80745,12478
0.81680,12939
0.82613,12490
0.83547,12697
0.84482,12561
0.85415,12432
0.86348,11566
0.87283,11853
0.88217,12091
0.89150,11867
0.90085,11630
0.91018,11559
0.91952,12170
0.92887,11465
0.93820,11248
0.94753,12181
0.95688,11070
0.96622,10718
0.97557,11393
0.98490,11465
0.99423,11540
1.00358,11144
1.01292,11404
1.02225,10054
1.03160,10782
1.04093,10937
1.05027,10802
1.05962,11083
1.06895,11229
1.07828,10958
1.08763,11730
1.09697,11160
1.10630,10777
1.11565,10996
1.12498,11284
1.13433,10573
1.14367,11448
1.15300,11506
1.16235,9545
1.17168,11376
1.18102,11308
1.19037,10520
1.19970,10572
1.20903,10908
1.21838,10229
1.22772,10081
1.23705,10204
1.24640,10548
1.25573,10117
1.26507,10718
1.27442,10742
1.28375,10370
1.29308,10759
1.30243,10745
1.31177,10182
1.32112,9807
1.33045,9906
1.33978,10205
1.34913,9798
1.35847,10750
1.36780,10197
1.37715,10227
1.38648,9600
1.39582,9965
1.40517,10274
1.41450,9775
1.42383,10134
1.43318,10230
1.44252,10540
1.45185,10044
1.46120,10604
1.47053,9654
1.47987,10441
1.48922,10452
1.49855,10946
1.50790,10065
1.51723,10292
1.52657,9941
1.53592,9790
1.54525,9776
1.55458,9994
1.56393,9590
1.57327,10594
1.58260,10353
1.59195,9770
1.60128,11100
1.61062,14934
1.61997,24538
1.62930,31450
1.63863,44714
1.64798,85172
1.65732,145743
1.66665,199891
1.67600,213988
1.68533,188474
1.69468,136010
1.70402,92522
1.71335,56161
1.72270,39653
1.73203,38847
1.74137,39176
1.75072,41890
1.76005,46639
1.76938,50231
1.77873,50638
1.78807,51824
1.79740,52194
1.80675,50879
1.81608,53679
1.82542,51697
1.83477,51712
1.84410,50137
1.85345,52269
1.86278,56185
1.87212,81348
1.88147,184008
1.89080,388310
1.90013,595900
1.90948,700895
1.91882,747548
1.92815,922061
1.93750,1365295
1.94683,2011367
1.95617,2437918
1.96552,2368128
1.97485,1954368
1.98418,1487825
1.99353,1135610
2.00287,961095
2.01220,927060
2.02155,944474
2.03088,848381
2.04023,656949
2.04957,480523
2.05890,363890
2.06825,280786
2.07758,219689
2.08692,173751
2.09627,146939
2.10560,139991
2.11493,147151
2.12428,168107
2.13362,235554
2.14295,306432
2.15230,285942
2.16163,233786
2.17097,198102
2.18032,211572
2.18965,321671
2.19898,361235
2.20833,269931
2.21767,186898
2.22702,180457
2.23635,241763
2.24568,391983
2.25503,1267676
2.26437,2439693
2.27370,2319616
2.28305,1662309
2.29238,1005759
2.30172,678148
2.31107,1078366
2.32040,2038795
2.32973,1911690
2.33908,1079499
2.34842,530641
2.35775,309391
2.36710,228469
2.37643,195341
2.38577,200894
2.39512,206570
2.40445,190535
2.41380,173675
2.42313,153648
2.43247,145182
2.44182,132495
2.45115,121205
2.46048,135456
2.46983,175432
2.47917,206588
2.48850,188403
2.49785,160063
2.50718,138425
2.51652,130915
2.52587,125680
2.53520,119706
2.54453,127458
2.55388,167693
2.56322,211107
2.57255,371412
2.58190,384962
2.59123,313112
2.60058,241951
2.60992,215290
2.61925,265335
2.62860,312736
2.63793,290301
2.64727,246198
2.65662,211745
2.66595,180106
2.67528,151197
2.68463,130151
2.69397,110896
2.70330,107170
2.71265,134108
2.72198,192592
2.73132,249871
2.74067,272051
2.75000,296279
2.75933,339506
2.76868,409900
2.77802,523992
2.78737,645172
2.79670,703623
2.80603,725410
2.81538,765468
2.82472,551788
2.83405,304865
2.84340,239388
2.85273,234790
2.86207,269112
2.87142,301754
2.88075,275810
2.89008,227049
2.89943,185835
2.90877,169517
2.91810,155859
2.92745,139820
2.93678,122859
2.94613,109029
2.95547,96258
2.96480,93205
2.97415,93691
2.98348,89638
2.99282,94675
3.00217,109960
3.01150,125193
3.02083,134595
3.03018,138418
3.03952,167056
3.04885,179107
3.05820,184221
3.06753,278091
3.07687,557822
3.08622,937658
3.09555,1107271
3.10488,878106
3.11423,499321
3.12357,257325
3.13292,156666
3.14225,119589
3.15158,113812
3.16093,125326
3.17027,132664
3.17960,122060
3.18895,109776
3.19828,98848
3.20762,98818
3.21697,96897
3.22630,87917
3.23563,84352
3.24498,83238
3.25432,94020
3.26365,115218
3.27300,140081
3.28233,149051
3.29167,144614
3.30102,120533
3.31035,102584
3.31970,91536
3.32903,92848
3.33837,101059
3.34772,98052
3.35705,93200
3.36638,78388
3.37573,74510
3.38507,67249
3.39440,68645
3.40375,69962
3.41308,78633
3.42242,86676
3.43177,98149
3.44110,117953
3.45043,135058
3.45978,127216
3.46912,110351
3.47845,102656
3.48780,101746
3.49713,97856
3.50648,95100
3.51582,97116
3.52515,94401
3.53450,87174
3.54383,96983
3.55317,186694
3.56252,473072
3.57185,804028
3.58118,840803
3.59053,593317
3.59987,365908
3.60920,228248
3.61855,188154
3.62788,153469
3.63722,127999
3.64657,111393
3.65590,97222
3.66525,109695
3.67458,139536
3.68392,172337
3.69327,186120
3.70260,168786
3.71193,134821
3.72128,112411
3.73062,102719
3.73995,99113
3.74930,101343
3.75863,94465
3.76797,88530
3.77732,79248
3.78665,75747
3.79598,85193
3.80533,172874
3.81467,411973
3.82400,621776
3.83335,528586
3.84268,307997
3.85203,165191
3.86137,110538
3.87070,90996
3.88005,87876
3.88938,103042
3.89872,165424
3.90807,253160
3.91740,305241
3.92673,265735
3.93608,199562
3.94542,184784
3.95475,212630
3.96410,218877
3.97343,197579
3.98277,189346
3.99212,183516
4.00145,191263
4.01078,208219
4.02013,217896
4.02947,162995
4.03882,145323
4.04815,143865
4.05748,130418
4.06683,135387
4.07617,156643
4.08550,171543
4.09485,172492
4.10418,154266
4.11352,123305
4.12287,99086
4.13220,87114
4.14153,83547
4.15088,78469
4.16022,76524
4.16955,74841
4.17890,73269
4.18823,72600
4.19757,78112
4.20692,83110
4.21625,83153
4.22560,81041
4.23493,72775
4.24427,71085
4.25362,74906
4.26295,98383
4.27228,126053
4.28163,136711
4.29097,128949
4.30030,115792
4.30965,100239
4.31898,94773
4.32832,95165
4.33767,100199
4.34700,100863
4.35633,94583
4.36568,83315
4.37502,75464
4.38435,72272
4.39370,75274
4.40303,71329
4.41238,70147
4.42172,68429
4.43105,67622
4.44040,67341
4.44973,67929
4.45907,67518
4.46842,74851
4.47775,82402
4.48708,89663
4.49643,90669
4.50577,84398
4.51510,79281
4.52445,83830
4.53378,96791
4.54312,102859
4.55247,96225
4.56180,88529
4.57115,83693
4.58048,79950
4.58982,75364
4.59917,77147
4.60850,71897
4.61783,70592
4.62718,70853
4.63652,86037
4.64585,108990
4.65520,122763
4.66453,107636
4.67387,93164
4.68322,83160
4.69255,85221
4.70188,90471
4.71123,88572
4.72057,82556
4.72990,93739
4.73925,103049
4.74858,99093
4.75793,85685
4.76727,79057
4.77660,73245
4.78595,76959
4.79528,76532
4.80462,79894
4.81397,78689
4.82330,79226
4.83263,81995
4.84198,85020
4.85132,88582
4.86065,90702
4.87000,102842
4.87933,115425
4.88867,111307
4.89802,93927
4.90735,83365
4.91668,76895
4.92603,76090
4.93537,77184
4.94472,77035
4.95405,74606
4.96338,72772
4.97273,67517
4.98207,67107
4.99140,71479
5.00075,79026
5.01008,91206
5.01942,106761
5.02877,118127
5.03810,130074
5.04743,127594
5.05678,103297
5.06612,87923
5.07545,86347
5.08480,91650
5.09413,99172
5.10347,110115
5.11282,102194
5.12215,91476
5.13150,85668
5.14083,92520
5.15017,95257
5.15952,96901
5.16885,90031
5.17818,83452
5.18753,84022
5.19687,80766
5.20620,77921
5.21555,72383
5.22488,71079
5.23422,74117
5.24357,83330
5.25290,79605
5.26223,77974
5.27158,120689
5.28092,254150
5.29027,461066
5.29960,581190
5.30893,502571
5.31828,330210
5.32762,197646
5.33695,128681
5.34630,99223
5.35563,86216
5.36497,76781
5.37432,73740
5.38365,82724
5.39298,96577
5.40233,97484
5.41167,89691
5.42100,81892
5.43035,77362
5.43968,70082
5.44902,68587
5.45837,89476
5.46770,115509
5.47705,115952
5.48638,100531
5.49572,87343
5.50507,84399
5.51440,81398
5.52373,90713
5.53308,105459
5.54242,107299
5.55175,99414
5.56110,94916
5.57043,96964
5.57977,111685
5.58912,122245
5.59845,120723
5.60778,88929
5.61713,70364
5.62647,70803
5.63580,72307
5.64515,73429
5.65448,78059
5.66383,85359
5.67317,85682
5.68250,85661
5.69185,80669
5.70118,76920
5.71052,79979
5.71987,81708
5.72920,79830
5.73853,89355
5.74788,119928
5.75722,161073
5.76655,175709
5.77590,139552
5.78523,104176
5.79457,86530
5.80392,76472
5.81325,78044
5.82258,89078
5.83193,108474
5.84127,115631
5.85062,104078
5.85995,94447
5.86928,87619
5.87863,78221
5.88797,75021
5.89730,74957
5.90665,92250
5.91598,150929
5.92532,228137
5.93467,257827
5.94400,253204
5.95333,231064
5.96268,181128
5.97202,132209
5.98135,105677
5.99070,88452
6.00003,80067
6.00937,73874
6.01872,70275
6.02805,62741
6.03740,56088
6.04673,52431
6.05607,55423
6.06542,58210
6.07475,55185
6.08408,50072
6.09343,44311
6.10277,42990
6.11210,45212
6.12145,48656
6.13078,56763
6.14012,57073
6.14947,53608
6.15880,45512
6.16813,43473
6.17748,45227
6.18682,43585
6.19615,43447
6.20550,43544
6.21483,48373
6.22418,59371
6.23352,71798
6.24285,75351
6.25220,81964
6.26153,80585
6.27087,73185
6.28022,70300
6.28955,65178
6.29888,58993
6.30823,57574
6.31757,60119
6.32690,62026
6.33625,66156
6.34558,71818
6.35492,70467
6.36427,67692
6.37360,72424
6.38295,86137
6.39228,139176
6.40162,378825
6.41097,909891
6.42030,1247038
6.42963,979183
6.43898,504380
6.44832,229157
6.45765,135082
6.46700,105943
6.47633,96938
6.48567,92456
6.49502,93514
6.50435,93691
6.51368,90552
6.52303,86343
6.53237,83190
6.54170,80832
6.55105,82484
6.56038,79975
6.56973,78973
6.57907,83170
6.58840,83941
6.59775,84093
6.60708,87715
6.61642,88238
6.62577,91419
6.63510,94033
6.64443,104996
6.65378,117888
6.66312,108562
6.67245,98604
6.68180,109242
6.69113,118751
6.70047,127184
6.70982,125994
6.71915,125041
6.72848,109908
6.73783,90839
6.74717,78798
6.75652,76260
6.76585,77787
6.77518,87659
6.78453,93150
6.79387,94948
6.80320,95884
6.81255,88655
6.82188,79010
6.83122,77248
6.84057,89448
6.84990,96642
6.85923,87692
6.86858,76131
6.87792,70397
6.88725,70619
6.89660,73743
6.90593,86055
6.91527,107701
6.92462,115209
6.93395,104299
6.94330,84744
6.95263,74409
6.96197,70766
6.97132,69174
6.98065,68895
6.98998,66221
6.99933,64264
7.00867,62522
7.01800,62684
7.02735,64469
7.03668,57604
7.04602,55522
7.05537,53889
7.06470,55302
7.07403,57711
7.08338,62313
7.09272,66062
7.10207,68121
7.11140,67706
7.12073,65033
7.13008,61001
7.13942,58714
7.14875,53621
7.15810,53220
7.16743,52713
7.17677,50549
7.18612,50101
7.19545,52594
7.20478,55108
7.21413,59726
7.22347,71472
7.23280,105473
7.24215,147765
7.25148,146258
7.26082,103975
7.27017,68342
7.27950,58839
7.28885,57047
7.29818,55982
7.30752,52440
7.31687,49277
7.32620,43693
7.33553,45035
7.34488,43960
7.35422,46732
7.36355,47334
7.37290,44345
7.38223,50993
7.39157,77230
7.40092,146609
7.41025,208448
7.41958,209804
7.42893,155901
7.43827,97089
7.44760,64834
7.45695,52441
7.46628,63025
7.47563,81107
7.48497,80167
7.49430,68489
7.50365,52565
7.51298,44928
7.52232,41586
7.53167,42562
7.54100,45692
7.55033,48596
7.55968,55482
7.56902,65364
7.57835,69210
7.58770,66799
7.59703,62983
7.60637,87492
7.61572,67776
7.62505,66334
7.63438,59923
7.64373,56195
7.65307,52301
7.66242,53689
7.67175,55700
7.68108,63153
7.69043,62350
7.69977,58181
7.70910,52406
7.71845,51420
7.72778,54667
7.73712,57984
7.74647,67100
7.75580,72048
7.76513,66030
7.77448,59144
7.78382,54655
7.79315,56288
7.80250,53336
7.81183,46619
7.82117,41756
7.83052,41822
7.83985,46952
7.84920,59513
7.85853,104599
7.86787,172002
7.87722,195922
7.88655,144644
7.89588,91597
7.90523,71860
7.91457,88366
7.92390,105570
7.93325,98388
7.94258,82538
7.95192,91193
7.96127,105844
7.97060,104378
7.97993,103331
7.98928,107846
7.99862,91274
8.00795,71895
8.01730,79560
8.02663,107723
8.03598,123089
8.04532,110379
8.05465,84362
8.06400,59381
8.07333,49341
8.08267,68089
8.09202,125944
8.10135,153792
8.11068,125566
8.12003,82332
8.12937,56683
8.13870,48715
8.14805,46298
8.15738,46382
8.16672,43444
8.17607,44240
8.18540,40508
8.19475,42077
8.20408,42517
8.21342,45719
8.22277,49803
8.23210,56694
8.24143,61013
8.25078,58959
8.26012,53396
8.26945,48094
8.27880,44121
8.28813,46844
8.29747,49187
8.30682,51662
8.31615,49817
8.32548,48430
8.33483,47067
8.34417,43725
8.35350,71050
8.36285,123539
8.37218,129187
8.38153,110850
8.39087,90711
8.40020,77867
8.40955,71816
8.41888,66705
8.42822,61863
8.43757,57299
8.44690,51445
8.45623,53090
8.46558,53271
8.47492,56511
8.48425,53961
8.49360,50245
8.50293,53405
8.51227,51146
8.52162,49840
8.53095,54836
8.54028,57212
8.54963,58206
8.55897,63169
8.56832,62630
8.57765,60278
8.58698,55725
8.59633,53798
8.60567,56193
8.61500,53212
8.62435,49040
8.63368,46896
8.64302,46554
8.65237,47738
8.66170,51890
8.67103,50836
8.68038,47684
8.68972,43672
8.69905,44259
8.70840,44230
8.71773,44180
8.72707,45005
8.73642,48406
8.74575,57318
8.75510,68013
8.76443,65753
8.77377,60795
8.78312,57656
8.79245,74560
8.80178,101097
8.81113,135671
8.82047,134823
8.82980,95509
8.83915,61938
8.84848,47570
8.85782,48736
8.86717,49884
8.87650,51466
8.88583,55097
8.89518,52985
8.90452,50295
8.91387,50021
8.92320,52324
8.93253,49268
8.94188,49152
8.95122,46711
8.96055,53070
8.96990,59499
8.97923,59127
8.98857,56576
8.99792,55867
9.00725,59921
9.01658,57728
9.02593,54808
9.03527,53023
9.04460,52205
9.05395,54473
9.06328,58550
9.07262,62794
9.08197,66290
9.09130,69203
9.10065,67259
9.10998,65203
9.11932,64724
9.12867,91776
9.13800,139862
9.14733,163298
9.15668,116328
9.16602,74969
9.17535,58196
9.18470,52052
9.19403,49527
9.20337,53870
9.21272,63863
9.22205,95792
9.23138,140612
9.24073,157808
9.25007,138848
9.25940,103366
9.26875,80394
9.27808,68356
9.28743,67604
9.29677,58673
9.30610,56674
9.31545,57585
9.32478,68726
9.33412,86225
9.34347,88967
9.35280,121287
9.36213,267422
9.37148,485667
9.38082,561478
9.39015,426768
9.39950,250407
9.40883,135284
9.41817,93550
9.42752,84989
9.43685,83976
9.44618,71289
9.45553,58757
9.46487,53165
9.47422,49061
9.48355,50620
9.49288,56122
9.50223,60840
9.51157,66052
9.52090,60986
9.53025,61181
9.53958,66361
9.54892,77360
9.55827,94301
9.56760,109374
9.57693,104062
9.58628,86806
9.59562,77599
9.60495,83561
9.61430,81291
9.62363,75301
9.63297,68063
9.64232,63371
9.65165,59044
9.66100,54228
9.67033,53717
9.67967,52829
9.68902,50830
9.69835,49266
9.70768,48395
9.71703,63935
9.72637,166818
9.73570,499720
9.74505,962578
9.75438,1005232
9.76372,645661
9.77307,308711
9.78240,164177
9.79173,118151
9.80108,96568
9.81042,86491
9.81977,85996
9.82910,109184
9.83843,139951
9.84778,150445
9.85712,132886
9.86645,104910
9.87580,109918
9.88513,155233
9.89447,189877
9.90382,195837
9.91315,238164
9.92248,297560
9.93183,248734
9.94117,150163
9.95050,91414
9.95985,72257
9.96918,81737
9.97852,141126
9.98787,243911
9.99720,291749
10.00655,226017
10.01588,134241
10.02522,84231
10.03457,68986
10.04390,64384
10.05323,65406
10.06258,73278
10.07192,84168
10.08125,91491
10.09060,88735
10.09993,95895
10.10927,250317
10.11862,947924
10.12795,2360531
10.13728,2956774
10.14663,2173078
10.15597,1848674
10.16530,2972835
10.17465,3412891
10.18398,1913088
10.19333,569803
10.20267,138521
10.21200,74272
10.22135,77108
10.23068,109769
10.24002,175381
10.24937,215748
10.25870,166406
10.26803,103127
10.27738,73938
10.28672,67199
10.29605,70754
10.30540,80210
10.31473,85098
10.32407,78502
10.33342,64666
10.34275,62070
10.35208,55980
10.36143,56465
10.37077,53362
10.38012,51324
10.38945,48992
10.39878,48473
10.40813,50739
10.41747,51740
10.42680,53451
10.43615,50427
10.44548,52443
10.45482,60067
10.46417,67326
10.47350,69468
10.48283,62515
10.49218,53635
10.50152,48234
10.51085,47749
10.52020,51704
10.52953,56386
10.53888,55818
10.54822,54847
10.55755,52136
10.56690,51634
10.57623,52143
10.58557,54137
10.59492,55770
10.60425,57675
10.61358,52648
10.62293,53766
10.63227,59586
10.64160,59723
10.65095,56467
10.66028,53028
10.66962,50922
10.67897,58416
10.68830,59521
10.69763,58238
10.70698,57086
10.71632,59480
10.72567,66278
10.73500,63475
10.74433,79867
10.75368,159972
10.76302,299273
10.77235,312954
10.78170,218266
10.79103,170286
10.80037,233408
10.80972,316618
10.81905,271545
10.82838,156732
10.83773,92044
10.84707,68477
10.85640,64195
10.86575,73857
10.87508,93183
10.88442,103909
10.89377,93008
10.90310,73489
10.91245,62714
10.92178,61917
10.93112,62110
10.94047,63319
10.94980,59229
10.95913,58271
10.96848,58093
10.97782,57246
10.98715,56819
10.99650,60677
11.00583,68359
11.01517,69275
11.02452,60060
11.03385,56927
11.04318,53784
11.05253,49669
11.06187,47877
11.07120,49877
11.08055,51167
11.08988,52930
11.09923,64800
11.10857,91253
11.11790,111889
11.12725,102619
11.13658,79582
11.14592,71537
11.15527,64452
11.16460,57981
11.17393,57303
11.18328,55249
11.19262,51821
11.20195,50328
11.21130,49495
11.22063,49657
11.22997,49488
11.23932,51247
11.24865,53033
11.25798,58334
11.26733,62287
11.27667,62605
11.28602,57848
11.29535,51654
11.30468,50157
11.31403,52572
11.32337,57609
11.33270,72332
11.34205,83776
11.35138,91854
11.36072,94515
11.37007,102417
11.37940,94342
11.38873,76392
11.39808,66855
11.40742,68028
11.41675,65312
11.42610,63197
11.43543,58881
11.44477,55785
11.45412,58803
11.46345,62416
11.47280,69743
11.48213,69899
11.49147,66373
11.50082,59113
11.51015,55600
11.51948,52071
11.52883,48913
11.53817,51329
11.54750,59145
11.55685,82774
11.56618,161959
11.57552,271289
11.58487,311745
11.59420,236720
11.60353,149492
11.61288,103673
11.62222,91352
11.63157,89566
11.64090,115712
11.65023,183862
11.65958,225750
11.66892,196120
11.67825,129362
11.68760,92036
11.69693,79861
11.70627,85894
11.71562,92073
11.72495,83071
11.73428,67962
11.74363,62896
11.75297,58610
11.76230,60502
11.77165,63763
11.78098,66340
11.79032,72791
11.79967,69384
11.80900,64555
11.81835,59816
11.82768,56098
11.83702,62974
11.84637,70684
11.85570,70764
11.86503,66480
11.87438,63128
11.88372,63306
11.89305,65520
11.90240,59051
11.91173,55281
11.92107,54882
11.93042,57018
11.93975,62702
11.94908,68188
11.95843,66315
11.96777,57924
11.97710,54369
11.98645,51351
11.99578,55556
12.00513,64526
12.01447,87637
12.02380,101475
12.03315,92570
12.04248,80877
12.05182,77673
12.06117,66168
12.07050,56665
12.07983,54596
12.08918,54920
12.09852,56507
12.10785,56510
12.11720,55045
12.12653,53769
12.13587,57146
12.14522,59796
12.15455,62342
12.16388,67987
12.17323,93672
12.18257,124114
12.19192,113334
12.20125,82213
12.21058,70425
12.21993,66781
12.22927,73790
12.23860,75378
12.24795,68210
12.25728,70342
12.26662,128027
12.27597,298898
12.28530,454748
12.29463,375028
12.30398,196119
12.31332,101517
12.32265,78854
12.33200,75063
12.34133,72914
12.35068,70217
12.36002,67146
12.36935,67620
12.37870,69938
12.38803,77826
12.39737,89093
12.40672,92118
12.41605,79938
12.42538,73481
12.43473,63693
12.44407,60061
12.45340,56996
12.46275,60535
12.47208,64746
12.48142,65791
12.49077,65933
12.50010,72461
12.50943,71509
12.51878,71806
12.52812,67535
12.53747,70370
12.54680,66408
12.55613,64921
12.56548,70100
12.57482,79847
12.58415,85777
12.59350,86762
12.60283,80770
12.61217,72339
12.62152,75943
12.63085,78833
12.64018,83452
12.64953,85307
12.65887,80307
12.66820,74210
12.67755,72601
12.68688,68121
12.69622,61497
12.70557,57969
12.71490,58350
12.72425,62044
12.73358,60553
12.74292,62150
12.75227,63580
12.76160,64947
12.77093,64165
12.78028,62187
12.78962,60305
12.79895,61208
12.80830,63285
12.81763,63579
12.82697,61054
12.83632,61611
12.84565,59097
12.85498,52267
12.86433,54307
12.87367,57196
12.88300,59172
12.89235,59506
12.90168,63302
12.91103,62779
12.92037,57290
12.92970,57098
12.93905,56626
12.94838,56663
12.95772,57235
12.96707,55163
12.97640,54583
12.98573,58396
12.99508,64641
13.00442,66373
13.01375,66695
13.02310,66394
13.03243,73826
13.04177,86081
13.05112,92802
13.06045,102255
13.06978,98382
13.07913,86285
13.08847,76379
13.09782,71586
13.10715,66661
13.11648,66714
13.12583,68989
13.13517,77714
13.14450,77022
13.15385,73919
13.16318,73760
13.17252,81623
13.18187,95707
13.19120,180659
13.20053,600840
13.20988,1622825
13.21922,2467585
13.22855,1922582
13.23790,872012
13.24723,295648
13.25657,179149
13.26592,157309
13.27525,136556
13.28460,127607
13.29393,118548
13.30327,99551
13.31262,94614
13.32195,95391
13.33128,94296
13.34063,89525
13.34997,95066
13.35930,90168
13.36865,81983
13.37798,73623
13.38732,76190
13.39667,82561
13.40600,86175
13.41533,78135
13.42468,73830
13.43402,78065
13.44337,82067
13.45270,82500
13.46203,78372
13.47138,78368
13.48072,81044
13.49005,77397
13.49940,74023
13.50873,81225
13.51807,103895
13.52742,160456
13.53675,197783
13.54608,162863
13.55543,117682
13.56477,84941
13.57410,66910
13.58345,62013
13.59278,58784
13.60212,58013
13.61147,62919
13.62080,68515
13.63015,101125
13.63948,217810
13.64882,354557
13.65817,360160
13.66750,234729
13.67683,127617
13.68618,81390
13.69552,70364
13.70485,66790
13.71420,64554
13.72353,64699
13.73287,60147
13.74222,58127
13.75155,56469
13.76088,60049
13.77023,58441
13.77957,57958
13.78890,59394
13.79825,67372
13.80758,72585
13.81693,75785
13.82627,67600
13.83560,58841
13.84495,56171
13.85428,56813
13.86362,64709
13.87297,67609
13.88230,75580
13.89163,88843
13.90098,127363
13.91032,208588
13.91965,341229
13.92900,369546
13.93833,240958
13.94767,129048
13.95702,100516
13.96635,96381
13.97568,87813
13.98503,79257
13.99437,74925
14.00372,75824
14.01305,76418
14.02238,69359
14.03173,67354
14.04107,95793
14.05040,405411
14.05975,1918354
14.06908,5499358
14.07842,8216450
14.08777,6433728
14.09710,2426466
14.10643,455043
14.11578,108215
14.12512,76985
14.13445,74284
14.14380,74404
14.15313,76391
14.16248,79945
14.17182,86465
14.18115,111023
14.19050,203854
14.19983,318360
14.20917,296118
14.21852,171263
14.22785,85892
14.23718,64600
14.24653,56615
14.25587,59140
14.26520,59279
14.27455,63156
14.28388,63145
14.29322,58023
14.30257,55595
14.31190,56097
14.32123,67539
14.33058,81030
14.33992,102929
14.34927,115323
14.35860,106702
14.36793,86733
14.37728,70467
14.38662,61893
14.39595,58253
14.40530,56716
14.41463,56964
14.42397,55403
14.43332,55393
14.44265,58917
14.45198,62727
14.46133,69679
14.47067,75224
14.48000,72309
14.48935,67876
14.49868,63904
14.50802,61611
14.51737,59603
14.52670,52858
14.53605,57308
14.54538,62980
14.55472,68537
14.56407,69341
14.57340,70021
14.58273,68316
14.59208,62411
14.60142,59476
14.61075,58130
14.62010,59657
14.62943,59838
14.63877,72531
14.64812,92180
14.65745,118398
14.66678,116913
14.67613,94846
14.68547,75101
14.69480,66690
14.70415,61433
14.71348,60343
14.72283,60922
14.73217,63817
14.74150,71801
14.75085,82737
14.76018,88624
14.76952,89656
14.77887,83435
14.78820,75273
14.79753,68909
14.80688,64126
14.81622,64067
14.82555,62056
14.83490,60910
14.84423,56388
14.85357,57929
14.86292,60854
14.87225,74244
14.88158,85537
14.89093,91504
14.90027,80243
14.90962,71655
14.91895,67887
14.92828,61848
14.93763,64080
14.94697,68064
14.95630,67897
14.96565,68123
14.97498,71310
14.98432,69050
14.99367,68467
15.00300,67866
15.01233,74375
15.02168,69930
15.03102,68703
15.04035,62842
15.04970,64372
15.05903,66947
15.06838,66189
15.07772,66483
15.08705,64458
15.09640,65521
15.10573,63160
15.11507,65077
15.12442,68478
15.13375,75222
15.14308,76906
15.15243,73389
15.16177,72281
15.17110,72051
15.18045,73728
15.18978,78714
15.19912,86002
15.20847,108186
15.21780,124841
15.22713,130271
15.23648,110847
15.24582,87990
15.25517,76520
15.26450,69050
15.27383,65958
15.28318,65086
15.29252,65933
15.30185,67300
15.31120,64010
15.32053,65420
15.32987,67292
15.33922,71948
15.34855,74511
15.35788,76090
15.36723,76152
15.37657,80546
15.38590,78718
15.39525,68069
15.40458,63654
15.41392,64914
15.42327,69462
15.43260,75453
15.44195,75266
15.45128,70396
15.46062,66104
15.46997,62130
15.47930,66800
15.48863,69918
15.49798,75577
15.50732,87779
15.51665,115959
15.52600,138067
15.53533,127487
15.54467,93773
15.55402,75821
15.56335,64152
15.57268,60424
15.58203,60884
15.59137,62572
15.60070,62071
15.61005,64801
15.61938,65210
15.62873,73786
15.63807,81588
15.64740,81604
15.65675,78970
15.66608,89084
15.67542,111276
15.68477,169166
15.69410,233318
15.70343,241579
15.71278,186791
15.72212,125156
15.73145,89724
15.74080,78168
15.75013,82130
15.75947,90302
15.76882,101271
15.77815,93568
15.78750,79745
15.79683,78461
15.80617,111736
15.81552,255166
15.82485,543364
15.83418,792707
15.84353,792491
15.85287,548779
15.86220,284246
15.87155,143252
15.88088,109270
15.89022,111994
15.89957,124221
15.90890,124731
15.91823,103949
15.92758,89920
15.93692,77391
15.94625,70181
15.95560,67716
15.96493,76444
15.97428,92080
15.98362,117245
15.99295,154868
16.00230,163834
16.01163,136143
16.02097,96983
16.03032,75348
16.03965,71101
16.04898,72380
16.05833,73024
16.06767,73835
16.07700,72703
16.08635,69880
16.09568,70946
16.10502,77399
16.11437,92403
16.12370,110384
16.13303,113565
16.14238,99768
16.15172,84855
16.16107,75441
16.17040,74538
16.17973,72189
16.18908,74995
16.19842,81164
16.20775,89143
16.21710,100182
16.22643,108836
16.23577,112181
16.24512,106528
16.25445,97231
16.26378,99414
16.27313,126577
16.28247,227415
16.29180,508167
16.30115,892037
16.31048,925149
16.31982,574680
16.32917,227401
16.33850,103988
16.34785,75966
16.35718,70466
16.36652,64541
16.37587,64204
16.38520,63125
16.39453,65515
16.40388,66624
16.41322,66674
16.42255,67580
16.43190,66926
16.44123,67751
16.45057,74305
16.45992,86597
16.46925,93462
16.47858,95272
16.48793,105721
16.49727,108845
16.50660,98702
16.51595,85255
16.52528,81553
16.53463,79606
16.54397,74975
16.55330,73292
16.56265,72033
16.57198,70787
16.58132,75877
16.59067,80728
16.60000,76135
16.60933,72245
16.61868,69796
16.62802,80412
16.63735,92277
16.64670,92834
16.65603,87296
16.66537,76282
16.67472,74062
16.68405,75291
16.69338,86430
16.70273,101887
16.71207,97068
16.72142,83844
16.73075,75522
16.74008,83704
16.74943,122599
16.75877,161376
16.76810,141576
16.77745,100723
16.78678,75077
16.79612,75331
16.80547,84734
16.81480,95550
16.82413,103332
16.83348,106638
16.84282,112557
16.85215,110581
16.86150,97105
16.87083,86516
16.88018,74543
16.88952,72885
16.89885,76569
16.90820,82408
16.91753,92617
16.92687,96032
16.93622,89542
16.94555,84613
16.95488,92329
16.96423,103924
16.97357,104387
16.98290,96386
16.99225,89443
17.00158,83554
17.01092,78368
17.02027,78678
17.02960,98371
17.03893,134695
17.04828,133884
17.05762,106070
17.06697,87284
17.07630,83748
17.08563,83271
17.09498,80092
17.10432,82336
17.11365,79169
17.12300,76963
17.13233,80242
17.14167,87302
17.15102,86910
17.16035,81731
17.16968,77488
17.17903,84339
17.18837,87381
17.19770,85697
17.20705,81472
17.21638,75496
17.22572,77436
17.23507,79119
17.24440,79772
17.25375,80819
17.26308,85888
17.27242,87102
17.28177,89962
17.29110,100084
17.30043,99861
17.30978,98433
17.31912,102210
17.32845,106287
17.33780,102957
17.34713,90581
17.35647,85482
17.36582,85700
17.37515,113322
17.38448,196953
17.39383,293296
17.40317,283046
17.41250,199557
17.42185,146596
17.43118,118066
17.44053,103917
17.44987,98537
17.45920,101645
17.46855,100459
17.47788,102607
17.48722,118422
17.49657,316888
17.50590,1244730
17.51523,2975013
17.52458,3652627
17.53392,2311891
17.54325,775698
17.55260,200111
17.56193,106652
17.57127,98708
17.58062,104065
17.58995,106979
17.59930,105967
17.60863,94398
17.61797,89774
17.62732,88845
17.63665,88322
17.64598,90985
17.65533,90133
17.66467,99281
17.67400,109643
17.68335,123190
17.69268,142355
17.70202,138249
17.71137,120340
17.72070,107062
17.73003,97095
17.73938,91046
17.74872,90397
17.75805,93009
17.76740,102440
17.77673,106589
17.78608,102378
17.79542,95491
17.80475,94432
17.81410,88238
17.82343,84671
17.83277,82989
17.84212,82771
17.85145,89918
17.86078,99374
17.87013,108472
17.87947,110937
17.88880,101249
17.89815,94498
17.90748,87857
17.91682,83718
17.92617,85998
17.93550,86124
17.94483,86090
17.95418,87845
17.96352,82182
17.97287,84665
17.98220,84804
17.99153,83298
18.00088,82590
18.01022,83925
18.01955,85805
18.02890,87743
18.03823,85922
18.04757,96279
18.05692,103719
18.06625,111606
18.07558,101568
18.08493,92289
18.09427,96114
18.10360,130749
18.11295,184200
18.12228,202670
18.13162,168830
18.14097,131248
18.15030,116722
18.15965,108348
18.16898,109759
18.17832,103658
18.18767,104973
18.19700,100071
18.20633,97590
18.21568,95516
18.22502,93631
18.23435,92145
18.24370,91599
18.25303,88530
18.26237,88535
18.27172,86934
18.28105,99607
18.29038,105861
18.29973,111770
18.30907,119831
18.31840,117115
18.32775,110116
18.33708,110461
18.34643,112706
18.35577,120895
18.36510,122027
18.37445,124329
18.38378,125010
18.39312,139548
18.40247,174449
18.41180,218838
18.42113,197058
18.43048,143948
18.43982,110445
18.44915,107167
18.45850,108391
18.46783,101697
18.47717,95811
18.48652,96573
18.49585,108951
18.50518,122637
18.51453,135828
18.52387,136822
18.53322,124711
18.54255,112836
18.55188,106883
18.56123,107837
18.57057,106862
18.57990,100069
18.58925,94783
18.59858,93071
18.60792,99660
18.61727,105284
18.62660,105117
18.63593,102676
18.64528,103597
18.65462,103909
18.66395,106784
18.67330,122725
18.68263,128579
18.69198,140936
18.70132,149236
18.71065,147280
18.72000,137671
18.72933,129707
18.73867,126589
18.74802,117733
18.75735,110027
18.76668,98766
18.77603,91358
18.78537,86040
18.79470,85672
18.80405,88097
18.81338,93505
18.82272,95850
18.83207,95816
18.84140,93089
18.85073,87154
18.86008,86756
18.86942,83573
18.87877,84191
18.88810,83546
18.89743,86285
18.90678,90757
18.91612,102904
18.92545,106523
18.93480,101521
18.94413,96040
18.95347,101099
18.96282,112965
18.97215,134306
18.98148,139887
18.99083,123250
19.00017,104452
19.00950,95529
19.01885,90538
19.02818,86559
19.03752,90838
19.04687,107397
19.05620,140057
19.06555,179260
19.07488,224047
19.08422,302154
19.09357,330698
19.10290,262392
19.11223,159446
19.12158,107098
19.13092,86546
19.14025,82434
19.14960,78929
19.15893,79072
19.16827,78228
19.17762,77577
19.18695,77696
19.19628,85134
19.20563,92015
19.21497,92402
19.22430,90336
19.23365,91657
19.24298,90829
19.25233,80849
19.26167,80840
19.27100,84817
19.28035,87765
19.28968,103228
19.29902,115286
19.30837,152608
19.31770,196805
19.32703,208466
19.33638,161956
19.34572,119142
19.35505,95670
19.36440,82074
19.37373,78540
19.38307,79893
19.39242,106210
19.40175,161346
19.41110,211282
19.42043,196330
19.42977,134496
19.43912,88486
19.44845,75156
19.45778,75241
19.46713,76766
19.47647,82181
19.48580,88145
19.49515,89980
19.50448,90643
19.51382,82186
19.52317,75344
19.53250,76381
19.54183,81686
19.55118,78917
19.56052,77715
19.56985,80616
19.57920,86722
19.58853,87541
19.59788,86415
19.60722,84056
19.61655,80986
19.62590,81453
19.63523,87918
19.64457,97276
19.65392,93034
19.66325,86640
19.67258,82443
19.68193,86826
19.69127,93497
19.70060,101165
19.70995,104324
19.71928,106248
19.72862,111839
19.73797,125513
19.74730,122757
19.75663,107144
19.76598,96222
19.77532,94547
19.78467,96679
19.79400,94432
19.80333,90469
19.81268,83546
19.82202,84027
19.83135,82270
19.84070,81462
19.85003,77360
19.85937,79022
19.86872,89259
19.87805,111004
19.88738,124622
19.89673,116829
19.90607,99266
19.91540,91823
19.92475,88994
19.93408,85925
19.94342,86849
19.95277,92179
19.96210,91152
19.97145,92699
19.98078,86260
19.99012,79353
19.99947,77727
20.00880,77171
20.01813,80724
20.02748,81674
20.03682,86454
20.04615,87148
20.05550,86925
20.06483,85150
20.07417,86511
20.08352,87041
20.09285,91197
20.10218,86425
20.11153,80759
20.12087,79680
20.13020,75679
20.13955,80727
20.14888,87746
20.15823,97867
20.16757,104205
20.17690,99655
20.18625,89144
20.19558,86124
20.20492,82561
20.21427,82531
20.22360,83802
20.23293,86872
20.24228,85269
20.25162,83275
20.26095,81403
20.27030,79412
20.27963,78875
20.28897,82843
20.29832,86064
20.30765,84403
20.31698,80038
20.32633,74427
20.33567,74572
20.34502,76899
20.35435,76692
20.36368,82252
20.37303,83314
20.38237,83226
20.39170,80104
20.40105,80841
20.41038,81532
20.41972,77815
20.42907,83942
20.43840,82927
20.44773,84867
20.45708,87097
20.46642,91123
20.47575,107603
20.48510,111391
20.49443,101564
20.50378,92001
20.51312,87339
20.52245,86229
20.53180,84829
20.54113,83519
20.55047,91342
20.55982,105500
20.56915,180646
20.57848,347536
20.58783,485339
20.59717,408745
20.60650,220452
20.61585,130709
20.62518,128376
20.63452,228803
20.64387,474988
20.65320,648700
20.66253,521914
20.67188,303281
20.68122,174411
20.69057,125421
20.69990,110972
20.70923,100752
20.71858,101242
20.72792,98942
20.73725,97983
20.74660,95018
20.75593,93202
20.76527,90571
20.77462,87925
20.78395,88422
20.79328,93448
20.80263,99981
20.81197,93823
20.82130,87887
20.83065,82268
20.83998,80951
20.84932,79701
20.85867,77044
20.86800,77108
20.87735,77560
20.88668,80455
20.89602,84231
20.90537,86396
20.91470,86599
20.92403,85435
20.93338,80729
20.94272,80677
20.95205,78762
20.96140,76133
20.97073,78411
20.98007,77171
20.98942,76939
20.99875,76358
21.00808,76293
21.01743,80446
21.02677,77733
21.03610,75043
21.04545,77097
21.05478,78723
21.06413,77214
21.07347,80593
21.08280,76623
21.09215,77800
21.10148,79137
21.11082,77539
21.12017,81598
21.12950,79721
21.13883,81438
21.14818,79837
21.15752,80012
21.16685,82445
21.17620,98728
21.18553,123085
21.19487,135679
21.20422,123079
21.21355,97533
21.22290,86026
21.23223,81536
21.24157,80520
21.25092,77249
21.26025,79525
21.26958,83106
21.27893,92622
21.28827,102222
21.29760,102083
21.30695,96835
21.31628,89811
21.32562,82358
21.33497,82315
21.34430,81772
21.35363,84034
21.36298,82559
21.37232,80065
21.38165,85166
21.39100,88781
21.40033,90377
21.40968,92164
21.41902,94848
21.42835,94996
21.43770,94824
21.44703,92954
21.45637,92267
21.46572,90135
21.47505,91629
21.48438,96988
21.49373,103145
21.50307,105619
21.51240,102905
21.52175,99885
21.53108,96534
21.54042,95024
21.54977,101655
21.55910,113036
21.56843,142085
21.57778,181483
21.58712,185742
21.59647,150651
21.60580,114342
21.61513,99796
21.62448,96272
21.63382,95865
21.64315,100649
21.65250,97761
21.66183,93280
21.67117,97312
21.68052,111958
21.68985,129564
21.69918,129795
21.70853,126164
21.71787,118558
21.72720,114069
21.73655,109004
21.74588,99856
21.75522,92083
21.76457,88130
21.77390,87641
21.78325,88772
21.79258,92788
21.80192,98680
21.81127,111213
21.82060,123281
21.82993,124473
21.83928,112669
21.84862,103798
21.85795,98997
21.86730,94814
21.87663,101969
21.88597,113462
21.89532,115946
21.90465,115103
21.91398,108749
21.92333,96156
21.93267,95358
21.94200,91838
21.95135,91755
21.96068,99227
21.97003,109834
21.97937,123734
21.98870,134518
21.99805,142550
22.00738,135470
22.01672,122902
22.02607,107502
22.03540,103518
22.04473,110019
22.05408,128425
22.06342,129913
22.07275,123507
22.08210,123813
22.09143,120274
22.10077,112001
22.11012,109725
22.11945,107588
22.12880,105104
22.13813,107053
22.14747,109785
22.15682,125149
22.16615,150919
22.17548,172770
22.18483,168596
22.19417,148905
22.20350,128401
22.21285,124623
22.22218,124775
22.23152,126843
22.24087,139757
22.25020,128782
22.25953,119647
22.26888,125448
22.27822,148101
22.28755,179490
22.29690,194464
22.30623,176376
22.31558,148872
22.32492,129678
22.33425,111216
22.34360,115476
22.35293,128617
22.36227,148935
22.37162,166653
22.38095,173894
22.39028,171867
22.39963,152269
22.40897,128511
22.41830,117673
22.42765,123249
22.43698,133845
22.44632,140273
22.45567,132182
22.46500,121382
22.47433,114047
22.48368,109176
22.49302,108488
22.50237,106857
22.51170,107348
22.52103,108346
22.53038,111031
22.53972,111011
22.54905,109158
22.55840,111846
22.56773,123554
22.57707,138564
22.58642,144854
22.59575,148516
22.60508,148052
22.61443,151518
22.62377,148854
22.63310,149221
22.64245,133933
22.65178,128377
22.66112,115281
22.67047,113656
22.67980,119873
22.68915,135114
22.69848,154137
22.70782,148542
22.71717,134751
22.72650,134360
22.73583,147990
22.74518,160707
22.75452,162641
22.76385,165863
22.77320,165320
22.78253,148187
22.79187,141856
22.80122,152065
22.81055,167956
22.81988,164865
22.82923,154248
22.83857,138552
22.84792,128616
22.85725,123399
22.86658,116922
22.87593,122433
22.88527,126443
22.89460,129693
22.90395,126771
22.91328,130519
22.92262,140136
22.93197,141088
22.94130,143050
22.95063,133942
22.95998,121405
22.96932,116975
22.97865,112162
22.98800,104849
22.99733,104628
23.00667,101529
23.01602,101897
23.02535,101817
23.03470,104673
23.04403,106529
23.05337,110111
23.06272,108487
23.07205,101237
23.08138,97920
23.09073,96397
23.10007,90369
23.10940,88811
23.11875,88820
23.12808,85859
23.13742,87986
23.14677,93065
23.15610,97811
23.16543,103286
23.17478,110816
23.18412,114515
23.19345,116290
23.20280,112167
23.21213,108271
23.22148,109936
23.23082,111686
23.24015,116228
23.24950,123547
23.25883,128334
23.26817,130476
23.27752,123462
23.28685,117559
23.29618,107078
23.30553,100042
23.31487,103168
23.32420,105205
23.33355,117891
23.34288,135258
23.35222,135381
23.36157,117336
23.37090,102264
23.38023,102211
23.38958,99742
23.39892,98741
23.40827,98106
23.41760,95472
23.42693,93921
23.43628,95678
23.44562,100016
23.45495,101415
23.46430,100766
23.47363,97957
23.48297,96808
23.49232,95945
23.50165,91647
23.51098,89325
23.52033,92071
23.52967,96548
23.53900,101998
23.54835,105425
23.55768,99982
23.56702,99648
23.57637,101935
23.58570,106574
23.59505,100818
23.60438,95271
23.61372,90926
23.62307,90335
23.63240,92796
23.64173,99732
23.65108,107437
23.66042,109390
23.66975,114450
23.67910,111488
23.68843,113244
23.69777,112162
23.70712,125278
23.71645,133383
23.72578,137337
23.73513,142559
23.74447,139873
23.75380,126013
23.76315,104660
23.77248,96291
23.78183,91057
23.79117,88715
23.80050,89656
23.80985,86086
23.81918,90436
23.82852,90808
23.83787,89629
23.84720,90556
23.85653,92211
23.86588,91377
23.87522,88447
23.88455,87116
23.89390,90068
23.90323,92950
23.91257,92124
23.92192,90541
23.93125,88536
23.94060,88523
23.94993,87583
23.95927,86628
23.96862,88063
23.97795,85220
23.98728,82543
23.99663,85536
24.00597,87208
24.01530,89573
24.02465,88866
24.03398,89312
24.04332,85686
24.05267,84996
24.06200,84356
24.07133,93380
24.08068,105189
24.09002,104651
24.09935,100395
24.10870,93584
24.11803,91228
24.12738,91768
24.13672,90314
24.14605,89186
24.15540,92676
24.16473,93212
24.17407,93653
24.18342,90208
24.19275,88995
24.20208,90536
24.21143,88087
24.22077,87243
24.23010,92004
24.23945,92668
24.24878,90271
24.25812,92429
24.26747,94354
24.27680,90761
24.28613,90203
24.29548,91129
24.30482,90907
24.31417,94032
24.32350,99667
24.33283,103450
24.34218,102067
24.35152,99147
24.36085,92899
24.37020,94463
24.37953,95885
24.38887,103672
24.39822,101575
24.40755,99737
24.41688,98370
24.42623,94534
24.43557,95722
24.44490,94663
24.45425,93920
24.46358,92121
24.47292,92924
24.48227,92336
24.49160,93448
24.50095,93204
24.51028,94550
24.51962,95030
24.52897,96775
24.53830,98572
24.54763,96719
24.55698,96174
24.56632,93811
24.57565,94130
24.58500,97056
24.59433,101649
24.60367,110926
24.61302,117618
24.62235,114386
24.63168,114552
24.64103,109041
24.65037,109292
24.65972,112158
24.66905,120428
24.67838,123934
24.68773,118312
24.69707,116237
24.70640,109087
24.71575,108344
24.72508,106366
24.73442,101197
24.74377,98934
24.75310,97286
24.76243,98906
24.77178,98299
24.78112,100125
24.79045,97955
24.79980,96991
24.80913,97235
24.81847,97383
24.82782,95283
24.83715,95377
24.84650,96813
24.85583,93705
24.86517,100371
24.87452,110327
24.88385,111248
24.89318,108910
24.90253,110258
24.91187,108212
24.92120,105635
24.93055,106874
24.93988,104070
24.94922,101465
24.95857,107359
24.96790,109750
24.97723,107195
24.98658,102615
24.99592,102802
25.00525,100164
25.01460,101402
25.02393,99301
25.03328,100669
25.04262,102697
25.05195,99741
25.06130,100700
25.07063,99686
25.07997,106312
25.08932,126593
25.09865,142816
25.10798,155163
25.11733,159656
25.12667,161141
25.13600,162458
25.14535,169526
25.15468,171926
25.16402,161124
25.17337,137347
25.18270,124723
25.19203,116003
25.20138,110660
25.21072,106498
25.22007,106128
25.22940,103823
25.23873,103427
25.24808,106661
25.25742,105072
25.26675,107309
25.27610,108727
25.28543,105306
25.29477,106234
25.30412,105037
25.31345,110825
25.32278,132765
25.33213,169794
25.34147,207860
25.35080,195065
25.36015,167045
25.36948,143349
25.37882,134053
25.38817,129280
25.39750,126845
25.40685,128696
25.41618,124641
25.42552,125559
25.43487,123165
25.44420,124126
25.45353,123802
25.46288,122523
25.47222,126592
25.48155,130927
25.49090,147533
25.50023,154985
25.50957,155769
25.51892,148639
25.52825,148066
25.53758,142428
25.54693,139966
25.55627,139882
25.56560,139299
25.57495,134868
25.58428,130827
25.59363,129349
25.60297,126383
25.61230,127687
25.62165,127884
25.63098,133872
25.64032,139018
25.64967,140930
25.65900,150340
25.66833,159801
25.67768,152058
25.68702,141687
25.69635,135011
25.70570,129895
25.71503,128189
25.72437,126754
25.73372,127799
25.74305,129152
25.75240,131781
25.76173,131210
25.77107,130753
25.78042,128989
25.78975,125714
25.79908,132941
25.80843,136303
25.81777,139456
25.82710,148701
25.83645,157828
25.84578,162816
25.85512,160021
25.86447,146215
25.87380,142407
25.88313,136473
25.89248,136702
25.90182,136163
25.91115,135999
25.92050,137859
25.92983,133955
25.93918,139144
25.94852,144536
25.95785,151572
25.96720,156070
25.97653,149439
25.98587,142425
25.99522,138823
26.00455,134172
26.01388,134773
26.02323,133604
26.03257,140207
26.04190,143575
26.05125,146900
26.06058,146375
26.06992,146690
26.07927,144864
26.08860,141209
26.09793,143179
26.10728,145553
26.11662,162118
26.12597,235511
26.13530,461634
26.14463,760073
26.15398,801831
26.16332,601092
26.17265,383825
26.18200,273474
26.19133,211886
26.20067,179092
26.21002,161698
26.21935,151541
26.22868,151311
26.23803,146438
26.24737,140977
26.25670,137371
26.26605,142509
26.27538,140551
26.28472,141693
26.29407,144738
26.30340,148711
26.31275,152415
26.32208,155578
26.33142,149341
26.34077,147747
26.35010,145043
26.35943,147301
26.36878,140585
26.37812,139120
26.38745,138463
26.39680,138229
26.40613,136835
26.41547,135455
26.42482,137559
26.43415,135719
26.44348,141642
26.45283,146338
26.46217,150462
26.47152,152131
26.48085,146947
26.49018,144263
26.49953,149348
26.50887,149154
26.51820,152128
26.52755,153748
26.53688,161463
26.54622,168906
26.55557,163871
26.56490,162106
26.57423,156201
26.58358,159059
26.59292,166985
26.60225,167858
26.61160,181269
26.62093,177127
26.63027,164528
26.63962,151454
26.64895,142562
26.65830,144767
26.66763,145706
26.67697,148282
26.68632,149271
26.69565,150864
26.70498,142951
26.71433,142261
26.72367,145080
26.73300,141803
26.74235,143663
26.75168,148914
26.76102,151030
26.77037,151126
26.77970,152729
26.78903,156123
26.79838,152840
26.80772,152676
26.81705,150792
26.82640,149541
26.83573,152976
26.84508,161844
26.85442,158370
26.86375,158876
26.87310,157675
26.88243,157037
26.89177,153313
26.90112,149894
26.91045,149570
26.91978,150055
26.92913,141209
26.93847,147093
26.94780,145237
26.95715,144809
26.96648,140576
26.97582,146012
26.98517,152344
26.99450,175230
27.00383,230482
27.01318,281199
27.02252,267498
27.03187,218521
27.04120,182872
27.05053,168864
27.05988,161971
27.06922,161960
27.07855,158883
27.08790,155788
27.09723,153815
27.10657,155432
27.11592,152149
27.12525,160142
27.13458,169676
27.14393,178765
27.15327,187723
27.16260,184919
27.17195,180566
27.18128,169373
27.19062,162447
27.19997,157796
27.20930,151320
27.21865,151763
27.22798,153244
27.23732,154703
27.24667,161300
27.25600,167993
27.26533,171361
27.27468,171458
27.28402,164593
27.29335,153539
27.30270,151998
27.31203,147969
27.32137,148563
27.33072,145434
27.34005,148782
27.34938,141559
27.35873,144410
27.36807,148101
27.37742,147829
27.38675,149015
27.39608,152298
27.40543,148324
27.41477,151484
27.42410,164389
27.43345,176558
27.44278,183137
27.45212,184381
27.46147,173657
27.47080,171569
27.48013,165779
27.48948,165313
27.49882,166519
27.50815,168978
27.51750,168500
27.52683,175521
27.53617,179441
27.54552,179376
27.55485,172722
27.56420,170810
27.57353,167228
27.58287,169088
27.59222,166388
27.60155,167125
27.61088,164757
27.62023,162788
27.62957,161601
27.63890,162353
27.64825,163794
27.65758,166520
27.66692,174219
27.67627,183934
27.68560,192178
27.69493,189674
27.70428,174975
27.71362,163145
27.72295,164139
27.73230,164738
27.74163,166483
27.75098,160209
27.76032,162185
27.76965,160226
27.77900,162797
27.78833,166442
27.79767,162815
27.80702,163677
27.81635,165258
27.82568,171649
27.83503,172380
27.84437,174733
27.85370,170289
27.86305,165982
27.87238,159815
27.88172,165542
27.89107,163795
27.90040,164765
27.90973,168183
27.91908,167187
27.92842,169402
27.93777,170923
27.94710,172669
27.95643,167883
27.96578,167334
27.97512,167136
27.98445,173643
27.99380,166172
28.00313,164706
28.01247,165325
28.02182,159225
28.03115,165555
28.04048,162212
28.04983,161892
28.05917,163800
28.06850,168840
28.07785,167776
28.08718,170967
28.09653,175197
28.10587,195796
28.11520,277029
28.12455,469559
28.13388,641218
28.14322,576092
28.15257,385493
28.16190,260316
28.17123,215146
28.18058,200987
28.18992,194577
28.19925,189664
28.20860,187956
28.21793,187534
28.22727,190444
28.23662,193129
28.24595,187442
28.25528,185369
28.26463,186714
28.27397,184876
28.28332,181039
28.29265,180855
28.30198,183154
28.31133,181470
28.32067,183527
28.33000,178884
28.33935,182021
28.34868,180631
28.35802,177879
28.36737,176562
28.37670,181440
28.38603,184979
28.39538,180898
28.40472,179700
28.41405,186152
28.42340,184518
28.43273,182266
28.44207,187018
28.45142,185118
28.46075,185697
28.47010,184484
28.47943,186499
28.48877,191095
28.49812,188804
28.50745,199455
28.51678,210533
28.52613,220511
28.53547,231238
28.54480,245413
28.55415,245067
28.56348,255492
28.57282,257625
28.58217,277812
28.59150,297055
28.60083,312790
28.61018,314603
28.61952,323065
28.62885,334139
28.63820,334964
28.64753,335438
28.65688,334477
28.66622,339398
28.67555,388168
28.68490,459738
28.69423,466053
28.70357,395176
28.71292,317583
28.72225,272656
28.73158,254654
28.74093,245541
28.75027,240815
28.75960,241079
28.76895,234345
28.77828,228221
28.78762,222276
28.79697,225688
28.80630,229403
28.81563,225720
28.82498,226979
28.83432,223981
28.84367,221886
28.85300,229117
28.86233,225417
28.87168,225842
28.88102,228038
28.89035,225368
28.89970,225767
28.90903,231872
28.91837,232498
28.92772,232823
28.93705,231844
28.94638,232789
28.95573,232517
28.96507,231386
28.97440,238746
28.98375,238482
28.99308,237276
29.00242,236108
29.01177,240939
29.02110,245932
29.03045,253313
29.03978,258190
29.04912,263502
29.05847,254012
29.06780,245148
29.07713,241243
29.08648,240398
29.09582,232135
29.10515,236098
29.11450,235878
29.12383,234201
29.13317,237659
29.14252,236144
29.15185,233675
29.16118,233699
29.17053,229228
29.17987,235457
29.18922,256132
29.19855,336144
29.20788,470624
29.21723,543969
29.22657,493072
29.23590,368707
29.24525,289698
29.25458,264946
29.26392,252293
29.27327,249225
29.28260,245273
29.29193,246617
29.30128,245254
29.31062,251991
29.31995,250272
29.32930,250025
29.33863,242186
29.34797,239005
29.35732,239426
29.36665,246461
29.37600,240432
29.38533,240889
29.39467,238346
29.40402,240107
29.41335,239513
29.42268,245934
29.43203,247973
29.44137,245538
29.45070,246989
29.46005,249044
29.46938,257816
29.47872,267091
29.48807,261413
29.49740,259194
29.50673,246299
29.51608,248204
29.52542,242942
29.53475,239138
29.54410,231172
29.55343,233509
29.56278,231836
29.57212,226515
29.58145,233098
29.59080,227569
29.60013,229163
29.60947,233246
29.61882,237953
29.62815,239148
29.63748,244530
29.64683,239251
29.65617,237357
29.66550,235953
29.67485,234476
29.68418,233597
29.69352,233358
29.70287,233933
29.71220,232064
29.72153,235971
29.73088,235212
29.74022,242950
29.74957,249022
29.75890,241506
29.76823,235014
29.77758,232645
29.78692,228569
29.79625,226079
29.80560,227056
29.81493,227705
29.82427,224459
29.83362,223754
29.84295,222846
29.85228,220265
29.86163,220150
29.87097,223037
29.88030,224605
29.88965,222242
29.89898,225424
29.90833,224917
29.91767,225619
29.92700,228745
29.93635,229394
29.94568,234347
29.95502,235300
29.96437,233402
29.97370,233096
29.98303,245917
29.99238,256542
30.00172,257746
30.01105,254836
30.02040,240341
30.02973,233662
30.03907,225915
30.04842,230043
30.05775,224115
30.06708,227659
30.07643,223875
30.08577,223889
30.09512,220438
30.10445,217572
30.11378,222536
30.12313,221147
30.13247,221025
30.14180,227279
30.15115,223464
30.16048,226184
30.16982,229664
30.17917,222447
30.18850,229483
30.19783,225575
30.20718,224418
30.21652,224819
30.22585,225073
30.23520,220536
30.24453,219953
30.25387,220448
30.26322,220718
30.27255,216993
30.28190,215953
30.29123,215403
30.30057,217556
30.30992,213992
30.31925,218387
30.32858,215547
30.33793,215906
30.34727,215300
30.35660,215027
30.36595,221843
30.37528,235980
30.38462,259910
30.39397,330612
30.40330,469183
30.41263,591494
30.42198,597773
30.43132,490292
30.44065,365172
30.45000,294813
30.45933,254886
30.46868,242356
30.47802,242102
30.48735,243345
30.49670,248864
30.50603,238144
30.51537,234325
30.52472,228909
30.53405,216100
30.54338,219584
30.55273,218968
30.56207,213094
30.57140,212148
30.58075,215628
30.59008,209511
30.59942,214743
30.60877,214377
30.61810,211425
30.62743,219563
30.63678,224054
30.64612,232171
30.65547,239407
30.66480,240949
30.67413,244144
30.68348,235916
30.69282,230547
30.70215,224742
30.71150,217057
30.72083,217078
30.73017,217357
30.73952,210649
30.74885,210078
30.75818,207922
30.76753,205707
30.77687,209182
30.78620,208238
30.79555,212302
30.80488,210701
30.81422,210776
30.82357,207350
30.83290,209150
30.84225,206210
30.85158,208533
30.86092,208660
30.87027,206684
30.87960,210598
30.88893,210145
30.89828,207378
30.90762,208061
30.91695,209999
30.92630,206140
30.93563,211497
30.94497,209846
30.95432,207930
30.96365,206538
30.97298,206114
30.98233,210713
30.99167,210474
31.00102,204361
31.01035,204831
31.01968,206122
31.02903,209706
31.03837,205919
31.04770,200313
31.05705,200735
31.06638,200106
31.07572,199153
31.08507,199245
31.09440,198773
31.10373,196079
31.11308,199506
31.12242,196629
31.13175,198475
31.14110,195862
31.15043,195572
31.15977,196352
31.16912,195761
31.17845,196626
31.18780,195276
31.19713,192451
31.20647,194221
31.21582,194930
31.22515,193970
31.23448,194606
31.24383,194861
31.25317,197484
31.26250,196739
31.27185,198529
31.28118,195403
31.29052,198398
31.29987,201014
31.30920,197610
31.31853,199593
31.32788,197044
31.33722,194534
31.34655,192091
31.35590,194638
31.36523,188592
