D:\数据\20211119\ZS1E-Z-000012.D Fri Nov 19 22:38:16 2021
Start of data points
0.09765,43178
0.10700,42488
0.11633,42120
0.12567,41352
0.13502,43935
0.14435,43660
0.15368,43913
0.16303,44078
0.17237,41615
0.18170,44571
0.19105,41099
0.20038,42288
0.20972,40548
0.21907,38757
0.22840,42458
0.23775,40214
0.24708,41532
0.25642,39623
0.26577,38833
0.27510,39169
0.28443,39336
0.29378,39881
0.30312,40885
0.31245,37949
0.32180,38830
0.33113,39851
0.34047,38834
0.34982,40708
0.35915,39503
0.36848,38943
0.37783,39945
0.38717,36402
0.39650,38004
0.40585,39507
0.41518,38924
0.42453,37734
0.43387,35615
0.44320,30012
0.45255,28981
0.46188,22864
0.47122,14807
0.48057,14705
0.48990,15070
0.49923,14114
0.50858,13743
0.51792,14269
0.52725,14363
0.53660,12491
0.54593,11871
0.55527,12946
0.56462,12538
0.57395,12317
0.58328,12295
0.59263,10510
0.60197,12455
0.61132,12037
0.62065,12427
0.62998,12041
0.63933,12607
0.64867,11738
0.65800,11256
0.66735,12512
0.67668,11558
0.68602,10939
0.69537,11745
0.70470,12141
0.71403,11234
0.72338,11001
0.73272,10408
0.74205,11887
0.75140,11792
0.76073,10925
0.77008,10340
0.77942,10806
0.78875,10688
0.79810,11617
0.80743,10340
0.81677,10669
0.82612,11593
0.83545,12173
0.84478,10805
0.85413,10992
0.86347,10912
0.87280,11767
0.88215,10116
0.89148,10769
0.90082,9789
0.91017,10143
0.91950,9978
0.92883,10466
0.93818,10148
0.94752,9713
0.95687,10006
0.96620,9635
0.97553,10890
0.98488,10101
0.99422,10370
1.00355,10289
1.01290,9541
1.02223,10931
1.03157,10967
1.04092,10546
1.05025,11022
1.05958,10762
1.06893,9684
1.07827,10329
1.08760,10658
1.09695,10974
1.10628,10065
1.11562,9448
1.12497,9842
1.13430,10653
1.14365,9902
1.15298,9684
1.16232,10093
1.17167,11110
1.18100,9867
1.19033,9778
1.19968,9315
1.20902,10922
1.21835,9350
1.22770,9652
1.23703,8692
1.24637,9993
1.25572,9759
1.26505,9778
1.27438,9789
1.28373,9265
1.29307,10069
1.30240,9563
1.31175,9362
1.32108,9694
1.33043,9325
1.33977,10163
1.34910,10212
1.35845,10598
1.36778,10029
1.37712,9662
1.38647,9522
1.39580,8355
1.40513,9094
1.41448,9333
1.42382,9439
1.43315,9270
1.44250,9137
1.45183,8935
1.46117,10234
1.47052,10094
1.47985,8679
1.48918,9881
1.49853,10087
1.50787,9501
1.51722,8654
1.52655,9108
1.53588,9355
1.54523,9454
1.55457,8940
1.56390,8695
1.57325,9136
1.58258,9783
1.59192,10272
1.60127,17224
1.61060,24480
1.61993,31031
1.62928,37804
1.63862,52016
1.64795,67789
1.65730,74179
1.66663,72418
1.67598,63486
1.68532,55345
1.69465,49272
1.70400,36937
1.71333,29665
1.72267,29240
1.73202,31347
1.74135,34102
1.75068,39405
1.76003,45052
1.76937,47405
1.77870,49838
1.78805,49413
1.79738,50665
1.80672,48822
1.81607,47701
1.82540,48670
1.83473,45959
1.84408,46737
1.85342,45811
1.86277,45907
1.87210,56512
1.88143,84907
1.89078,142767
1.90012,200497
1.90945,228845
1.91880,297313
1.92813,552508
1.93747,1213400
1.94682,2257706
1.95615,3116563
1.96548,3120368
1.97483,2546054
1.98417,1891360
1.99350,1419053
2.00285,1141583
2.01218,1013338
2.02152,923687
2.03087,778234
2.04020,610291
2.04955,427275
2.05888,313104
2.06822,233961
2.07757,183313
2.08690,154710
2.09623,187116
2.10558,252403
2.11492,216377
2.12425,160420
2.13360,149803
2.14293,177227
2.15227,177645
2.16162,148452
2.17095,124927
2.18028,128459
2.18963,195589
2.19897,290967
2.20830,255769
2.21765,174522
2.22698,140946
2.23633,162606
2.24567,287550
2.25500,960076
2.26435,3053125
2.27368,4061974
2.28302,3180266
2.29237,2023933
2.30170,1270670
2.31103,1658831
2.32038,4481454
2.32972,6223885
2.33905,4280363
2.34840,2026718
2.35773,901068
2.36707,463618
2.37642,317825
2.38575,323081
2.39510,304447
2.40443,259794
2.41377,215986
2.42312,181111
2.43245,187057
2.44178,185766
2.45113,166088
2.46047,146042
2.46980,158351
2.47915,183927
2.48848,173579
2.49782,145337
2.50717,125319
2.51650,113255
2.52583,105351
2.53518,100053
2.54452,97853
2.55385,123656
2.56320,176433
2.57253,869799
2.58188,984887
2.59122,747162
2.60055,503115
2.60990,353675
2.61923,265319
2.62857,256049
2.63792,270521
2.64725,238552
2.65658,199021
2.66593,171506
2.67527,154317
2.68460,127449
2.69395,108380
2.70328,95646
2.71262,92709
2.72197,114786
2.73130,160315
2.74063,209254
2.74998,246624
2.75932,272662
2.76867,315670
2.77800,390605
2.78733,433904
2.79668,407559
2.80602,353853
2.81535,297636
2.82470,262697
2.83403,231340
2.84337,193080
2.85272,158496
2.86205,155979
2.87138,207845
2.88073,302114
2.89007,288158
2.89940,224265
2.90875,171530
2.91808,141008
2.92742,126705
2.93677,111426
2.94610,100975
2.95545,92074
2.96478,87196
2.97412,86050
2.98347,80988
2.99280,80277
3.00213,85181
3.01148,98793
3.02082,111074
3.03015,110280
3.03950,190390
3.04883,341372
3.05817,332379
3.06752,282016
3.07685,235800
3.08618,199898
3.09553,159622
3.10487,120653
3.11420,95965
3.12355,81493
3.13288,77567
3.14223,77912
3.15157,84890
3.16090,93986
3.17025,109080
3.17958,131207
3.18892,119237
3.19827,100910
3.20760,94089
3.21693,89702
3.22628,86551
3.23562,76679
3.24495,73527
3.25430,71160
3.26363,72543
3.27297,74334
3.28232,72086
3.29165,72424
3.30098,73487
3.31033,80917
3.31967,81232
3.32902,78920
3.33835,74066
3.34768,73798
3.35703,71161
3.36637,74262
3.37570,71721
3.38505,68273
3.39438,65755
3.40372,65619
3.41307,73298
3.42240,83368
3.43173,90839
3.44108,90531
3.45042,98362
3.45975,110540
3.46910,108514
3.47843,93206
3.48778,91140
3.49712,85480
3.50645,81107
3.51580,75030
3.52513,70005
3.53447,69391
3.54382,67537
3.55315,83024
3.56248,187859
3.57183,444198
3.58117,661196
3.59050,596938
3.59985,371961
3.60918,226952
3.61852,264140
3.62787,223449
3.63720,176478
3.64653,144109
3.65588,124397
3.66522,107279
3.67457,106070
3.68390,119640
3.69323,122491
3.70258,106999
3.71192,89686
3.72125,85873
3.73060,99234
3.73993,114769
3.74927,110669
3.75862,93466
3.76795,79155
3.77728,74793
3.78663,67815
3.79597,68583
3.80530,78933
3.81465,169488
3.82398,469081
3.83332,812572
3.84267,755546
3.85200,472620
3.86135,258485
3.87068,153453
3.88002,108560
3.88937,97891
3.89870,93611
3.90803,101703
3.91738,110316
3.92672,105747
3.93605,107884
3.94540,119605
3.95473,184772
3.96407,208358
3.97342,192249
3.98275,145360
3.99208,107043
4.00143,84664
4.01077,76054
4.02010,72659
4.02945,82271
4.03878,86617
4.04813,91767
4.05747,104522
4.06680,112625
4.07615,120816
4.08548,140421
4.09482,158627
4.10417,187453
4.11350,193281
4.12283,160091
4.13218,123102
4.14152,94400
4.15085,83955
4.16020,80908
4.16953,77001
4.17887,75236
4.18822,71177
4.19755,70002
4.20690,72304
4.21623,79954
4.22557,78555
4.23492,75494
4.24425,72781
4.25358,71625
4.26293,67803
4.27227,87026
4.28160,101575
4.29095,105076
4.30028,105013
4.30962,108805
4.31897,103537
4.32830,105052
4.33763,109548
4.34698,109851
4.35632,105022
4.36565,93318
4.37500,90119
4.38433,113308
4.39368,151331
4.40302,134943
4.41235,106445
4.42170,85946
4.43103,73919
4.44037,71298
4.44972,68283
4.45905,67217
4.46838,72261
4.47773,77490
4.48707,88562
4.49640,100292
4.50575,98805
4.51508,85457
4.52442,78263
4.53377,74839
4.54310,84282
4.55243,86128
4.56178,84280
4.57112,78589
4.58047,75786
4.58980,72903
4.59913,71645
4.60848,72094
4.61782,67103
4.62715,67243
4.63650,65593
4.64583,72203
4.65517,89151
4.66452,94116
4.67385,92945
4.68318,85287
4.69253,78818
4.70187,74983
4.71120,73309
4.72055,71082
4.72988,77229
4.73922,105669
4.74857,113954
4.75790,102126
4.76725,89717
4.77658,79316
4.78592,78311
4.79527,78614
4.80460,81019
4.81393,79588
4.82328,78409
4.83262,81350
4.84195,88629
4.85130,84282
4.86063,81604
4.86997,99800
4.87932,154460
4.88865,226510
4.89798,229099
4.90733,166587
4.91667,119172
4.92600,93592
4.93535,83240
4.94468,79231
4.95403,77594
4.96337,71111
4.97270,67387
4.98205,64294
4.99138,63589
5.00072,66503
5.01007,71678
5.01940,80682
5.02873,85408
5.03808,84617
5.04742,81924
5.05675,76591
5.06610,74907
5.07543,72885
5.08477,78013
5.09412,83969
5.10345,80210
5.11280,72267
5.12213,66032
5.13147,66022
5.14082,71321
5.15015,85415
5.15948,97144
5.16883,91700
5.17817,92075
5.18750,144160
5.19685,222659
5.20618,204606
5.21552,146752
5.22487,102007
5.23420,80213
5.24353,76788
5.25288,78145
5.26222,76095
5.27155,90660
5.28090,192732
5.29023,455665
5.29958,713085
5.30892,666960
5.31825,408692
5.32760,220053
5.33693,150159
5.34627,121375
5.35562,91833
5.36495,75604
5.37428,70623
5.38363,75052
5.39297,92770
5.40230,112826
5.41165,108510
5.42098,94251
5.43032,85938
5.43967,71409
5.44900,66008
5.45833,58774
5.46768,59279
5.47702,58757
5.48637,60296
5.49570,64010
5.50503,65004
5.51438,69491
5.52372,75999
5.53305,91311
5.54240,113124
5.55173,119482
5.56107,100420
5.57042,89374
5.57975,78800
5.58908,71595
5.59843,66782
5.60777,65126
5.61710,64232
5.62645,59479
5.63578,58981
5.64512,58519
5.65447,62574
5.66380,63835
5.67315,72856
5.68248,89325
5.69182,91846
5.70117,84347
5.71050,79627
5.71983,78939
5.72918,77108
5.73852,74232
5.74785,83155
5.75720,94906
5.76653,109753
5.77587,117614
5.78522,111515
5.79455,86946
5.80388,68025
5.81323,60678
5.82257,65015
5.83192,77857
5.84125,98886
5.85058,97653
5.85993,83215
5.86927,70109
5.87860,61749
5.88795,54948
5.89728,54067
5.90662,63780
5.91597,100019
5.92530,191102
5.93463,280105
5.94398,269903
5.95332,212150
5.96265,171603
5.97200,133644
5.98133,96307
5.99067,74189
6.00002,64030
6.00935,55507
6.01870,49434
6.02803,42660
6.03737,40008
6.04672,40349
6.05605,39213
6.06538,39512
6.07473,42760
6.08407,42429
6.09340,35824
6.10275,32697
6.11208,32118
6.12142,33304
6.13077,43351
6.14010,53306
6.14943,61516
6.15878,53703
6.16812,41103
6.17745,35061
6.18680,37500
6.19613,38835
6.20548,36895
6.21482,33922
6.22415,34894
6.23350,39065
6.24283,44461
6.25217,46524
6.26152,45593
6.27085,77744
6.28018,159150
6.28953,169541
6.29887,117116
6.30820,67002
6.31755,43993
6.32688,33670
6.33622,30991
6.34557,32807
6.35490,29685
6.36423,31135
6.37358,34316
6.38292,43423
6.39227,75530
6.40160,215654
6.41093,755788
6.42028,1700063
6.42962,1941579
6.43895,1219680
6.44830,470921
6.45763,152483
6.46697,69228
6.47632,50305
6.48565,42538
6.49498,38500
6.50433,35635
6.51367,34307
6.52300,36103
6.53235,35592
6.54168,35659
6.55102,34823
6.56037,32595
6.56970,31181
6.57905,31554
6.58838,32734
6.59772,36964
6.60707,40158
6.61640,42334
6.62573,43510
6.63508,43878
6.64442,45754
6.65375,44565
6.66310,43458
6.67243,43862
6.68177,41677
6.69112,38311
6.70045,42647
6.70978,54458
6.71913,59760
6.72847,51076
6.73780,43250
6.74715,38915
6.75648,35737
6.76583,35724
6.77517,33817
6.78450,38157
6.79385,44523
6.80318,54145
6.81252,57351
6.82187,50783
6.83120,40306
6.84053,36118
6.84988,39472
6.85922,44092
6.86855,43848
6.87790,36739
6.88723,33956
6.89657,33911
6.90592,35023
6.91525,42597
6.92460,45736
6.93393,42218
6.94327,38305
6.95262,38223
6.96195,39095
6.97128,40185
6.98063,39271
6.98997,38756
6.99930,37046
7.00865,33622
7.01798,33334
7.02732,33510
7.03667,32989
7.04600,31162
7.05533,27272
7.06468,27688
7.07402,25587
7.08335,27539
7.09270,29323
7.10203,33779
7.11138,36956
7.12072,41878
7.13005,39526
7.13940,37918
7.14873,34524
7.15807,31483
7.16742,26458
7.17675,26386
7.18608,28705
7.19543,28774
7.20477,31356
7.21410,30338
7.22345,36347
7.23278,64132
7.24212,138831
7.25147,222514
7.26080,212321
7.27013,130368
7.27948,73288
7.28882,54686
7.29817,50836
7.30750,46692
7.31683,38922
7.32618,32940
7.33552,30991
7.34485,31782
7.35420,29019
7.36353,27584
7.37287,27335
7.38222,29888
7.39155,48399
7.40088,123826
7.41023,301069
7.41957,458104
7.42890,442115
7.43825,290218
7.44758,143787
7.45692,67397
7.46627,43142
7.47560,49709
7.48495,79266
7.49428,77671
7.50362,61872
7.51297,46368
7.52230,36288
7.53163,31943
7.54098,29429
7.55032,31327
7.55965,30120
7.56900,32812
7.57833,36366
7.58767,37944
7.59702,41360
7.60635,42244
7.61568,47013
7.62503,48359
7.63437,44379
7.64372,42464
7.65305,38245
7.66238,35756
7.67173,33102
7.68107,35684
7.69040,38861
7.69975,36946
7.70908,42711
7.71842,49727
7.72777,48148
7.73710,39437
7.74643,38641
7.75578,43886
7.76512,47993
7.77445,45392
7.78380,44369
7.79313,48994
7.80247,45464
7.81182,42582
7.82115,36716
7.83050,34206
7.83983,34945
7.84917,40628
7.85852,55271
7.86785,101738
7.87718,161040
7.88653,195644
7.89587,152046
7.90520,107460
7.91455,120793
7.92388,195513
7.93322,248934
7.94257,202743
7.95190,141705
7.96123,130763
7.97058,124868
7.97992,133779
7.98925,171120
7.99860,190339
8.00793,147101
8.01728,94165
8.02662,66775
8.03595,61008
8.04530,67664
8.05463,79825
8.06397,75251
8.07332,58213
8.08265,48007
8.09198,55479
8.10133,78562
8.11067,93049
8.12000,86624
8.12935,62065
8.13868,51403
8.14802,46915
8.15737,43940
8.16670,43572
8.17603,41370
8.18538,41853
8.19472,39740
8.20407,38290
8.21340,42279
8.22273,44559
8.23208,52046
8.24142,52218
8.25075,51660
8.26010,54263
8.26943,52759
8.27877,46817
8.28812,41681
8.29745,38870
8.30678,39434
8.31613,42053
8.32547,39929
8.33480,38341
8.34415,37369
8.35348,38153
8.36282,36710
8.37217,33521
8.38150,36030
8.39085,43373
8.40018,49196
8.40952,50502
8.41887,52277
8.42820,52413
8.43753,54720
8.44688,51416
8.45622,49062
8.46555,46613
8.47490,45290
8.48423,43739
8.49357,44527
8.50292,41989
8.51225,41710
8.52158,40478
8.53093,37090
8.54027,38929
8.54962,43151
8.55895,52729
8.56828,64467
8.57763,61629
8.58697,57492
8.59630,54206
8.60565,53537
8.61498,54330
8.62432,52690
8.63367,49237
8.64300,44171
8.65233,42606
8.66168,38434
8.67102,41266
8.68035,44864
8.68970,44883
8.69903,44249
8.70837,45335
8.71772,46416
8.72705,41794
8.73640,38499
8.74573,47455
8.75507,68489
8.76442,90760
8.77375,87106
8.78308,66718
8.79243,52866
8.80177,52905
8.81110,65574
8.82045,80370
8.82978,78364
8.83912,62097
8.84847,49433
8.85780,42711
8.86713,43543
8.87648,51364
8.88582,59011
8.89515,56181
8.90450,52477
8.91383,48327
8.92318,50280
8.93252,52139
8.94185,58140
8.95120,54353
8.96053,48054
8.96987,46546
8.97922,51218
8.98855,53214
8.99788,50579
9.00723,51346
9.01657,49250
9.02590,49182
9.03525,47074
9.04458,48756
9.05392,55985
9.06327,63777
9.07260,70378
9.08193,77174
9.09128,92327
9.10062,99911
9.10997,87992
9.11930,64344
9.12863,51854
9.13798,49439
9.14732,50039
9.15665,48809
9.16600,43879
9.17533,44250
9.18467,46762
9.19402,46569
9.20335,49336
9.21268,57552
9.22203,81479
9.23137,145234
9.24070,217795
9.25005,219460
9.25938,156091
9.26873,92180
9.27807,66720
9.28740,53364
9.29675,52302
9.30608,52758
9.31542,53112
9.32477,65666
9.33410,103486
9.34343,136103
9.35278,124348
9.36212,112190
9.37145,194668
9.38080,336885
9.39013,389813
9.39947,296984
9.40882,205308
9.41815,138612
9.42748,111820
9.43683,109200
9.44617,94708
9.45552,69836
9.46485,52347
9.47418,48316
9.48353,44778
9.49287,47689
9.50220,59919
9.51155,66782
9.52088,63166
9.53022,56710
9.53957,63627
9.54890,79751
9.55823,102684
9.56758,147205
9.57692,191881
9.58625,188542
9.59560,151554
9.60493,129555
9.61427,114042
9.62362,96055
9.63295,73014
9.64230,63897
9.65163,63361
9.66097,57059
9.67032,51005
9.67965,54597
9.68898,52917
9.69833,55104
9.70767,51624
9.71700,49436
9.72635,121226
9.73568,596540
9.74502,2112861
9.75437,4032036
9.76370,4180421
9.77303,2473502
9.78238,982235
9.79172,398484
9.80105,250664
9.81040,190581
9.81973,154802
9.82908,149844
9.83842,171662
9.84775,208732
9.85710,235839
9.86643,206131
9.87577,148856
9.88512,133926
9.89445,157729
9.90378,175003
9.91313,187276
9.92247,294715
9.93180,525474
9.94115,582403
9.95048,388851
9.95982,196210
9.96917,106276
9.97850,118916
9.98783,238232
9.99718,445656
10.00652,492280
10.01587,322746
10.02520,152706
10.03453,89175
10.04388,74252
10.05322,69358
10.06255,84087
10.07190,121645
10.08123,175263
10.09057,186714
10.09992,156880
10.10925,167492
10.11858,636741
10.12793,2577052
10.13727,5765655
10.14660,6110866
10.15595,4101972
10.16528,3832562
10.17462,6300303
10.18397,6887566
10.19330,3833038
10.20265,1022115
10.21198,201106
10.22132,90877
10.23067,86593
10.24000,113868
10.24933,170328
10.25868,181842
10.26802,138602
10.27735,94932
10.28670,72733
10.29603,65129
10.30537,64160
10.31472,62773
10.32405,66218
10.33338,66591
10.34273,68547
10.35207,62009
10.36142,59013
10.37075,58821
10.38008,57503
10.38943,50356
10.39877,48761
10.40810,49371
10.41745,48802
10.42678,53498
10.43612,55617
10.44547,53928
10.45480,55862
10.46413,64001
10.47348,73009
10.48282,71334
10.49215,57796
10.50150,48626
10.51083,45876
10.52017,45450
10.52952,47374
10.53885,48467
10.54820,49898
10.55753,51989
10.56687,55414
10.57622,58343
10.58555,63289
10.59488,64133
10.60423,65294
10.61357,61950
10.62290,56611
10.63225,59013
10.64158,72905
10.65092,82271
10.66027,71724
10.66960,65095
10.67893,70670
10.68828,90842
10.69762,92031
10.70695,80645
10.71630,68785
10.72563,75922
10.73498,78784
10.74432,73380
10.75365,89049
10.76300,177551
10.77233,285609
10.78167,276265
10.79102,187228
10.80035,124164
10.80968,128726
10.81903,140509
10.82837,118060
10.83770,84238
10.84705,63222
10.85638,53160
10.86572,55340
10.87507,59169
10.88440,65856
10.89373,76943
10.90308,79362
10.91242,73886
10.92177,66286
10.93110,69042
10.94043,74600
10.94978,72016
10.95912,63743
10.96845,59358
10.97780,64607
10.98713,59676
10.99647,55098
11.00582,54591
11.01515,57941
11.02448,54344
11.03383,47262
11.04317,45676
11.05250,48086
11.06185,44168
11.07118,43829
11.08053,45636
11.08987,45105
11.09920,47165
11.10855,56289
11.11788,73496
11.12722,79657
11.13657,68474
11.14590,59632
11.15523,58691
11.16458,56777
11.17392,52578
11.18325,50480
11.19260,49004
11.20193,49608
11.21127,51108
11.22062,51569
11.22995,58659
11.23928,63966
11.24863,62065
11.25797,60197
11.26732,72343
11.27665,80454
11.28598,74728
11.29533,59383
11.30467,57820
11.31400,60764
11.32335,59618
11.33268,58498
11.34202,72691
11.35137,105395
11.36070,132461
11.37003,138165
11.37938,116768
11.38872,87188
11.39805,76126
11.40740,90907
11.41673,106537
11.42607,99675
11.43542,77182
11.44475,59988
11.45410,54445
11.46343,60708
11.47277,83841
11.48212,114128
11.49145,112961
11.50078,85421
11.51013,61911
11.51947,53627
11.52880,50592
11.53815,48557
11.54748,50821
11.55682,62956
11.56617,84158
11.57550,155928
11.58483,242285
11.59418,262024
11.60352,202759
11.61285,146070
11.62220,114648
11.63153,103281
11.64088,98999
11.65022,91220
11.65955,82337
11.66890,81612
11.67823,78672
11.68757,75238
11.69692,64750
11.70625,61299
11.71558,59800
11.72493,63358
11.73427,61967
11.74360,67572
11.75295,66608
11.76228,68330
11.77162,68162
11.78097,73545
11.79030,88604
11.79963,102634
11.80898,90899
11.81832,78270
11.82767,74793
11.83700,85363
11.84633,84297
11.85568,79156
11.86502,72237
11.87435,68766
11.88370,73065
11.89303,79537
11.90237,73817
11.91172,72258
11.92105,71123
11.93038,66600
11.93973,73903
11.94907,103290
11.95840,137032
11.96775,132374
11.97708,100985
11.98642,77170
11.99577,66313
12.00510,68983
12.01445,94966
12.02378,122267
12.03312,128899
12.04247,104902
12.05180,84056
12.06113,70479
12.07048,64655
12.07982,60395
12.08915,59638
12.09850,65409
12.10783,67821
12.11717,70359
12.12652,62708
12.13585,61664
12.14518,65446
12.15453,65137
12.16387,72941
12.17322,120277
12.18255,237787
12.19188,318179
12.20123,242903
12.21057,126987
12.21990,80574
12.22925,80644
12.23858,100335
12.24792,108991
12.25727,95222
12.26660,96689
12.27593,178973
12.28528,364035
12.29462,470990
12.30395,342710
12.31330,171318
12.32263,97066
12.33197,81410
12.34132,83286
12.35065,93598
12.36000,88366
12.36933,74080
12.37867,72838
12.38802,86572
12.39735,119001
12.40668,156462
12.41603,157285
12.42537,120973
12.43470,101424
12.44405,89150
12.45338,83487
12.46272,81544
12.47207,89435
12.48140,96551
12.49073,98067
12.50008,97948
12.50942,100784
12.51875,100369
12.52810,97690
12.53743,101641
12.54678,100200
12.55612,93866
12.56545,100301
12.57480,118907
12.58413,135793
12.59347,142848
12.60282,130730
12.61215,105796
12.62148,83807
12.63083,84079
12.64017,100709
12.64950,128085
12.65885,142431
12.66818,131681
12.67752,111924
12.68687,87037
12.69620,71391
12.70553,68642
12.71488,69951
12.72422,79535
12.73357,87157
12.74290,86289
12.75223,88400
12.76158,98841
12.77092,103737
12.78025,90092
12.78960,75303
12.79893,66694
12.80827,70396
12.81762,68310
12.82695,70741
12.83628,69134
12.84563,75017
12.85497,71423
12.86430,69353
12.87365,68087
12.88298,64402
12.89233,64886
12.90167,71961
12.91100,72349
12.92035,69090
12.92968,59560
12.93902,62933
12.94837,68641
12.95770,79322
12.96703,80140
12.97638,72101
12.98572,62902
12.99505,54843
13.00440,54830
13.01373,56847
13.02307,60094
13.03242,75002
13.04175,94064
13.05108,100256
13.06043,81754
13.06977,76743
13.07912,87892
13.08845,94121
13.09778,86720
13.10713,76915
13.11647,73428
13.12580,69713
13.13515,71252
13.14448,79939
13.15382,88300
13.16317,86412
13.17250,85336
13.18183,94745
13.19118,172092
13.20052,779593
13.20985,3299871
13.21920,7635018
13.22853,9472198
13.23787,6285070
13.24722,2287890
13.25655,615961
13.26590,281484
13.27523,187852
13.28457,140796
13.29392,121769
13.30325,103527
13.31258,88769
13.32193,95549
13.33127,108836
13.34060,110491
13.34995,97117
13.35928,99231
13.36862,93195
13.37797,80808
13.38730,73641
13.39663,79547
13.40598,105893
13.41532,115016
13.42465,98372
13.43400,76090
13.44333,81089
13.45268,97596
13.46202,97128
13.47135,88608
13.48070,82715
13.49003,80241
13.49937,75612
13.50872,70630
13.51805,87209
13.52738,167114
13.53673,306562
13.54607,340080
13.55540,219970
13.56475,116920
13.57408,74635
13.58342,63218
13.59277,60695
13.60210,56294
13.61143,57627
13.62078,55147
13.63012,55486
13.63947,61311
13.64880,61933
13.65813,67406
13.66748,68156
13.67682,69144
13.68615,66867
13.69550,68107
13.70483,76567
13.71417,81731
13.72352,74546
13.73285,65970
13.74218,54545
13.75153,48788
13.76087,54605
13.77020,56099
13.77955,57587
13.78888,54847
13.79823,58684
13.80757,71858
13.81690,84603
13.82625,83232
13.83558,70693
13.84492,61827
13.85427,59705
13.86360,64069
13.87293,67816
13.88228,76650
13.89162,84898
13.90095,123049
13.91030,220505
13.91963,454286
13.92897,734769
13.93832,677230
13.94765,360010
13.95698,155912
13.96633,104218
13.97567,90452
13.98502,77106
13.99435,72171
14.00368,72412
14.01303,74372
14.02237,68282
14.03170,61769
14.04105,67710
14.05038,173260
14.05972,1034282
14.06907,4453794
14.07840,1.114683E+07
14.08773,1.758032E+07
14.09708,1.615866E+07
14.10642,6486270
14.11575,1038420
14.12510,165080
14.13443,94753
14.14377,90972
14.15312,92868
14.16245,99142
14.17180,110888
14.18113,127609
14.19047,188482
14.19982,339484
14.20915,459993
14.21848,361399
14.22783,184727
14.23717,89694
14.24650,64767
14.25585,56064
14.26518,62853
14.27452,65904
14.28387,70840
14.29320,68473
14.30253,62693
14.31188,60475
14.32122,74141
14.33055,105916
14.33990,137273
14.34923,135896
14.35858,109484
14.36792,83104
14.37725,64623
14.38660,58581
14.39593,60443
14.40527,62244
14.41462,57089
14.42395,55854
14.43328,51404
14.44263,56512
14.45197,74413
14.46130,117678
14.47065,165880
14.47998,186291
14.48932,152098
14.49867,106817
14.50800,73146
14.51735,59694
14.52668,54016
14.53602,52850
14.54537,58017
14.55470,60866
14.56403,66930
14.57338,68285
14.58272,65382
14.59205,64839
14.60140,58967
14.61073,56402
14.62007,59236
14.62942,58712
14.63875,70548
14.64808,102625
14.65743,160188
14.66677,190195
14.67610,166392
14.68545,110225
14.69478,79464
14.70413,66517
14.71347,58633
14.72280,56035
14.73215,56268
14.74148,61731
14.75082,60680
14.76017,59958
14.76950,59226
14.77883,63362
14.78818,75979
14.79752,94251
14.80685,114955
14.81620,121034
14.82553,99317
14.83487,84749
14.84422,69258
14.85355,61558
14.86288,62258
14.87223,83339
14.88157,110808
14.89092,117731
14.90025,91272
14.90958,70005
14.91893,62115
14.92827,62477
14.93760,62774
14.94695,67337
14.95628,70123
14.96562,79760
14.97497,94318
14.98430,105555
14.99363,98236
15.00298,82457
15.01232,82816
15.02165,92816
15.03100,89053
15.04033,78793
15.04967,76811
15.05902,85363
15.06835,92235
15.07770,95212
15.08703,91923
15.09637,79742
15.10572,65068
15.11505,59055
15.12438,64521
15.13373,84819
15.14307,105809
15.15240,104340
15.16175,79447
15.17108,64023
15.18042,59787
15.18977,62564
15.19910,74629
15.20843,110362
15.21778,175064
15.22712,238619
15.23645,260597
15.24580,217989
15.25513,167609
15.26448,116465
15.27382,84738
15.28315,73004
15.29250,69828
15.30183,67932
15.31117,68354
15.32052,67782
15.32985,70893
15.33918,79566
15.34853,88653
15.35787,89173
15.36720,86778
15.37655,104251
15.38588,114584
15.39522,103132
15.40457,74769
15.41390,60156
15.42323,62976
15.43258,70572
15.44192,77841
15.45127,72841
15.46060,66391
15.46993,61491
15.47928,63081
15.48862,67877
15.49795,79848
15.50730,92031
15.51663,121379
15.52597,178300
15.53532,202246
15.54465,158887
15.55398,106077
15.56333,70708
15.57267,59676
15.58200,59583
15.59135,58083
15.60068,61252
15.61003,66046
15.61937,68760
15.62870,74873
15.63805,84647
15.64738,93732
15.65672,93586
15.66607,96472
15.67540,102814
15.68473,92132
15.69408,78425
15.70342,90062
15.71275,120079
15.72210,134239
15.73143,109811
15.74077,79235
15.75012,77082
15.75945,96947
15.76878,109432
15.77813,108392
15.78747,95242
15.79682,80011
15.80615,82414
15.81548,144192
15.82483,322997
15.83417,620696
15.84350,857927
15.85285,904374
15.86218,688322
15.87152,345934
15.88087,170027
15.89020,128229
15.89953,144122
15.90888,155772
15.91822,150050
15.92755,123386
15.93690,91769
15.94623,77101
15.95557,70239
15.96492,66786
15.97425,72377
15.98360,94823
15.99293,137677
16.00227,179251
16.01162,175313
16.02095,122540
16.03028,82085
16.03963,69179
16.04897,71782
16.05830,75723
16.06765,76724
16.07698,77484
16.08632,77626
16.09567,73737
16.10500,71907
16.11433,75268
16.12368,85096
16.13302,97582
16.14235,92416
16.15170,78827
16.16103,75320
16.17038,77465
16.17972,74797
16.18905,66936
16.19840,69654
16.20773,82980
16.21707,97244
16.22642,107233
16.23575,108738
16.24508,97861
16.25443,87999
16.26377,83072
16.27310,104046
16.28245,260203
16.29178,956715
16.30112,2464976
16.31047,3468112
16.31980,2745267
16.32915,1216795
16.33848,348852
16.34782,112127
16.35717,75337
16.36650,64119
16.37583,57705
16.38518,56058
16.39452,57134
16.40385,59154
16.41320,63168
16.42253,65840
16.43187,70180
16.44122,67752
16.45055,68682
16.45988,80719
16.46923,97043
16.47857,96864
16.48790,83552
16.49725,75430
16.50658,72382
16.51593,73908
16.52527,79424
16.53460,85929
16.54395,80933
16.55328,77317
16.56262,71094
16.57197,69173
16.58130,66844
16.59063,73996
16.59998,73114
16.60932,68228
16.61865,63502
16.62800,71680
16.63733,90752
16.64667,102293
16.65602,103243
16.66535,93580
16.67468,83445
16.68403,77631
16.69337,86411
16.70272,110876
16.71205,123988
16.72138,110013
16.73073,86396
16.74007,81655
16.74940,134713
16.75875,244388
16.76808,285748
16.77742,206395
16.78677,106965
16.79610,74284
16.80543,65197
16.81478,71349
16.82412,77514
16.83345,90178
16.84280,100998
16.85213,104623
16.86147,92685
16.87082,76426
16.88015,65299
16.88950,61855
16.89883,62568
16.90817,73035
16.91752,97480
16.92685,127045
16.93618,125258
16.94553,102798
16.95487,100341
16.96420,114352
16.97355,128785
16.98288,126721
16.99222,103770
17.00157,83195
17.01090,71358
17.02023,71509
17.02958,95692
17.03892,162309
17.04825,217739
17.05760,182489
17.06693,122127
17.07628,93203
17.08562,84778
17.09495,79887
17.10430,79836
17.11363,76504
17.12297,70536
17.13232,71050
17.14165,83797
17.15098,99795
17.16033,91899
17.16967,74061
17.17900,66559
17.18835,67887
17.19768,69116
17.20702,65702
17.21637,61348
17.22570,60839
17.23505,60219
17.24438,62854
17.25372,62474
17.26307,65118
17.27240,69301
17.28173,76498
17.29108,91573
17.30042,94812
17.30975,90826
17.31910,88817
17.32843,97774
17.33777,102959
17.34712,92189
17.35645,78989
17.36578,74029
17.37513,93635
17.38447,210182
17.39380,458220
17.40315,569254
17.41248,394338
17.42183,196220
17.43117,110948
17.44050,90143
17.44985,85337
17.45918,84984
17.46852,86723
17.47787,84737
17.48720,94225
17.49653,220874
17.50588,1066697
17.51522,3782835
17.52455,7584501
17.53390,8328463
17.54323,4552258
17.55257,1190049
17.56192,215053
17.57125,95017
17.58058,94730
17.58993,107269
17.59927,114995
17.60862,107177
17.61795,87837
17.62728,79260
17.63663,78706
17.64597,77887
17.65530,84581
17.66465,91291
17.67398,108182
17.68332,122084
17.69267,128077
17.70200,129984
17.71133,124171
17.72068,112757
17.73002,103935
17.73935,91913
17.74870,84628
17.75803,94701
17.76737,104391
17.77672,112415
17.78605,115413
17.79540,100996
17.80473,92204
17.81407,82024
17.82342,77712
17.83275,72849
17.84208,71859
17.85143,77873
17.86077,91974
17.87010,112626
17.87945,122807
17.88878,109942
17.89812,99460
17.90747,93153
17.91680,82083
17.92613,74181
17.93548,77655
17.94482,80982
17.95417,79184
17.96350,74714
17.97283,70551
17.98218,75877
17.99152,70866
18.00085,69319
18.01020,72417
18.01953,72049
18.02887,73686
18.03822,73814
18.04755,79014
18.05688,90410
18.06623,104123
18.07557,105085
18.08490,89284
18.09425,78720
18.10358,84691
18.11292,117193
18.12227,146239
18.13160,147293
18.14095,125466
18.15028,108368
18.15962,100895
18.16897,96633
18.17830,93649
18.18763,89278
18.19698,84293
18.20632,81874
18.21565,77691
18.22500,76813
18.23433,80285
18.24367,81207
18.25302,77705
18.26235,70706
18.27168,72381
18.28103,77254
18.29037,94796
18.29970,103212
18.30905,111463
18.31838,115620
18.32773,111003
18.33707,107557
18.34640,113502
18.35575,132244
18.36508,151399
18.37442,150577
18.38377,134207
18.39310,134628
18.40243,178502
18.41178,275967
18.42112,314963
18.43045,233875
18.43980,143322
18.44913,113864
18.45847,121566
18.46782,116025
18.47715,94716
18.48648,92257
18.49583,108750
18.50517,143940
18.51452,192068
18.52385,212569
18.53318,191556
18.54253,140570
18.55187,113555
18.56120,112230
18.57055,116547
18.57988,98350
18.58922,87996
18.59857,81377
18.60790,85165
18.61723,101726
18.62658,119708
18.63592,118979
18.64525,116294
18.65460,110730
18.66393,103561
18.67327,98428
18.68262,102418
18.69195,100471
18.70130,99949
18.71063,104917
18.71997,117111
18.72932,125769
18.73865,122360
18.74798,110388
18.75733,98654
18.76667,89109
18.77600,80342
18.78535,75448
18.79468,72295
18.80402,76646
18.81337,76476
18.82270,77105
18.83203,79599
18.84138,78732
18.85072,78286
18.86005,80516
18.86940,77433
18.87873,77668
18.88808,75743
18.89742,73926
18.90675,76483
18.91610,97915
18.92543,125264
18.93477,125841
18.94412,113817
18.95345,109430
18.96278,124146
18.97213,144253
18.98147,154738
18.99080,138546
19.00015,108447
19.00948,92153
19.01882,83090
19.02817,80989
19.03750,86632
19.04685,102080
19.05618,142839
19.06552,205502
19.07487,300213
19.08420,458734
19.09353,622837
19.10288,558756
19.11222,351247
19.12155,179398
19.13090,104635
19.14023,81848
19.14957,74196
19.15892,69153
19.16825,69755
19.17758,68314
19.18693,72213
19.19627,78090
19.20560,91452
19.21495,94104
19.22428,96790
19.23363,98792
19.24297,97471
19.25230,87877
19.26165,81294
19.27098,74569
19.28032,78349
19.28967,90049
19.29900,100040
19.30833,136345
19.31768,207969
19.32702,259191
19.33635,225322
19.34570,149281
19.35503,107518
19.36437,89132
19.37372,75988
19.38305,72744
19.39238,69968
19.40173,71939
19.41107,78631
19.42042,81748
19.42975,77501
19.43908,74286
19.44843,71525
19.45777,69790
19.46710,71868
19.47645,77042
19.48578,81751
19.49512,92227
19.50447,99115
19.51380,89718
19.52313,77924
19.53248,73538
19.54182,75617
19.55115,72682
19.56050,68348
19.56983,74465
19.57917,75545
19.58852,85190
19.59785,92149
19.60720,88184
19.61653,83775
19.62587,75575
19.63522,82623
19.64455,93660
19.65388,99865
19.66323,95870
19.67257,82297
19.68190,79029
19.69125,82482
19.70058,91051
19.70992,95167
19.71927,100554
19.72860,112148
19.73793,141441
19.74728,159523
19.75662,134967
19.76597,105841
19.77530,90504
19.78463,91932
19.79398,95881
19.80332,98742
19.81265,90619
19.82200,82831
19.83133,82432
19.84067,81335
19.85002,77601
19.85935,74181
19.86868,82158
19.87803,117137
19.88737,160975
19.89670,170843
19.90605,128583
19.91538,96940
19.92472,85087
19.93407,84368
19.94340,84668
19.95275,79742
19.96208,80127
19.97142,86906
19.98077,86172
19.99010,80698
19.99943,73539
20.00878,71777
20.01812,72648
20.02745,80740
20.03680,83590
20.04613,86250
20.05547,92934
20.06482,86252
20.07415,79142
20.08348,83752
20.09283,95086
20.10217,94459
20.11150,79023
20.12085,69849
20.13018,65490
20.13953,64699
20.14887,76073
20.15820,95278
20.16755,116525
20.17688,114764
20.18622,95152
20.19557,80221
20.20490,73089
20.21423,73304
20.22358,76475
20.23292,83000
20.24225,83141
20.25160,83798
20.26093,79865
20.27027,75204
20.27962,71315
20.28895,79003
20.29828,92514
20.30763,97542
20.31697,92789
20.32632,81458
20.33565,68797
20.34498,67126
20.35433,67668
20.36367,72259
20.37300,80446
20.38235,80797
20.39168,77259
20.40102,75461
20.41037,71341
20.41970,66036
20.42903,64836
20.43838,71243
20.44772,70909
20.45705,71744
20.46640,79547
20.47573,101299
20.48507,127855
20.49442,129721
20.50375,97036
20.51310,79538
20.52243,76780
20.53177,71334
20.54112,70914
20.55045,77420
20.55978,89406
20.56913,166726
20.57847,433867
20.58780,843642
20.59715,889648
20.60648,508844
20.61582,201508
20.62517,104133
20.63450,100256
20.64383,133335
20.65318,181194
20.66252,191737
20.67187,151674
20.68120,112547
20.69053,96418
20.69988,88951
20.70922,87316
20.71855,83959
20.72790,87944
20.73723,85987
20.74657,82310
20.75592,84837
20.76525,80373
20.77458,78052
20.78393,73919
20.79327,75138
20.80260,83787
20.81195,92433
20.82128,92702
20.83062,85573
20.83997,77962
20.84930,74075
20.85865,74510
20.86798,70430
20.87732,69035
20.88667,69626
20.89600,74310
20.90533,80608
20.91468,84431
20.92402,81612
20.93335,79187
20.94270,71352
20.95203,68925
20.96137,68032
20.97072,64960
20.98005,67527
20.98938,66969
20.99873,68686
21.00807,70176
21.01740,72258
21.02675,72245
21.03608,68579
21.04543,70320
21.05477,69456
21.06410,72195
21.07345,73280
21.08278,71323
21.09212,72676
21.10147,71629
21.11080,74408
21.12013,78844
21.12948,83647
21.13882,91387
21.14815,99680
21.15750,95320
21.16683,88612
21.17617,85875
21.18552,90180
21.19485,104758
21.20418,100535
21.21353,88033
21.22287,77993
21.23222,77855
21.24155,79083
21.25088,75706
21.26023,75463
21.26957,80810
21.27890,110721
21.28825,168473
21.29758,221706
21.30692,215468
21.31627,157712
21.32560,104095
21.33493,86113
21.34428,79236
21.35362,76643
21.36295,80618
21.37230,80675
21.38163,82083
21.39097,81939
21.40032,86962
21.40965,91843
21.41900,91837
21.42833,90045
21.43767,91184
21.44702,89231
21.45635,83154
21.46568,77260
21.47503,75460
21.48437,80869
21.49370,89735
21.50305,90459
21.51238,90297
21.52172,82987
21.53107,77789
21.54040,79206
21.54973,81128
21.55908,88103
21.56842,112419
21.57777,152536
21.58710,181639
21.59643,156701
21.60578,115177
21.61512,94418
21.62445,85457
21.63380,87978
21.64313,90143
21.65247,84769
21.66182,80448
21.67115,79406
21.68048,88460
21.68983,102720
21.69917,109277
21.70850,105803
21.71785,98597
21.72718,96943
21.73652,96256
21.74587,90930
21.75520,84989
21.76455,77932
21.77388,77349
21.78322,73388
21.79257,76669
21.80190,79351
21.81123,86456
21.82058,98367
21.82992,103782
21.83925,100059
21.84860,95550
21.85793,86750
21.86727,79583
21.87662,81110
21.88595,90264
21.89528,102002
21.90463,107751
21.91397,101651
21.92330,90471
21.93265,80728
21.94198,78517
21.95133,80120
21.96067,84377
21.97000,93165
21.97935,104747
21.98868,124011
21.99802,136880
22.00737,135586
22.01670,119020
22.02603,96905
22.03538,87700
22.04472,95385
22.05405,111389
22.06340,115586
22.07273,109680
22.08207,103337
22.09142,103764
22.10075,93813
22.11008,89816
22.11943,85878
22.12877,82624
22.13812,80703
22.14745,82007
22.15678,91402
22.16613,118800
22.17547,144315
22.18480,154428
22.19415,137603
22.20348,107839
22.21282,99685
22.22217,96268
22.23150,101885
22.24083,106445
22.25018,105251
22.25952,97481
22.26885,102285
22.27820,117284
22.28753,153083
22.29687,177560
22.30622,174461
22.31555,148366
22.32490,116555
22.33423,101691
22.34357,95585
22.35292,103935
22.36225,122879
22.37158,134374
22.38093,143094
22.39027,138963
22.39960,136210
22.40895,116804
22.41828,106880
22.42762,106544
22.43697,114165
22.44630,125706
22.45563,122742
22.46498,112297
22.47432,102975
22.48367,100095
22.49300,93297
22.50233,88374
22.51168,86194
22.52102,90913
22.53035,90920
22.53970,88829
22.54903,84527
22.55837,88199
22.56772,97033
22.57705,110724
22.58638,126582
22.59573,124115
22.60507,124654
22.61440,122663
22.62375,121774
22.63308,118225
22.64242,114632
22.65177,103481
22.66110,94692
22.67045,89357
22.67978,91163
22.68912,106524
22.69847,126793
22.70780,131853
22.71713,117484
22.72648,108475
22.73582,115303
22.74515,128596
22.75450,131924
22.76383,127367
22.77317,123347
22.78252,110795
22.79185,109569
22.80118,122358
22.81053,144241
22.81987,149873
22.82920,139012
22.83855,118390
22.84788,116590
22.85723,106007
22.86657,101784
22.87590,104244
22.88525,109242
22.89458,111681
22.90392,109196
22.91327,105901
22.92260,113012
22.93193,122834
22.94128,129138
22.95062,117335
22.95995,107192
22.96930,102781
22.97863,101568
22.98797,91356
22.99732,89685
23.00665,87316
23.01598,83688
23.02533,82341
23.03467,81570
23.04402,87348
23.05335,95789
23.06268,92949
23.07203,95355
23.08137,90750
23.09070,87512
23.10005,86008
23.10938,81673
23.11872,81392
23.12807,81116
23.13740,81989
23.14673,84802
23.15608,85678
23.16542,83481
23.17475,85665
23.18410,84660
23.19343,82841
23.20278,80759
23.21212,82105
23.22145,79290
23.23080,80346
23.24013,83575
23.24947,88081
23.25882,97320
23.26815,104150
23.27748,99170
23.28683,95847
23.29617,87798
23.30550,83229
23.31485,85172
23.32418,89927
23.33352,110703
23.34287,145118
23.35220,154293
23.36153,132059
23.37088,103578
23.38022,93655
23.38957,89515
23.39890,89749
23.40823,91107
23.41758,90764
23.42692,87542
23.43625,85682
23.44560,87313
23.45493,89126
23.46427,90474
23.47362,92878
23.48295,89694
23.49228,86130
23.50163,85681
23.51097,81511
23.52030,82422
23.52965,85811
23.53898,89650
23.54832,91270
23.55767,86265
23.56700,82777
23.57635,82544
23.58568,86676
23.59502,89418
23.60437,86810
23.61370,87210
23.62303,83595
23.63238,80830
23.64172,78863
23.65105,77620
23.66040,77736
23.66973,77937
23.67907,79197
23.68842,82590
23.69775,88725
23.70708,92740
23.71643,98902
23.72577,104777
23.73510,118111
23.74445,124486
23.75378,115141
23.76313,96765
23.77247,84103
23.78180,83475
23.79115,80144
23.80048,80526
23.80982,81206
23.81917,80495
23.82850,83368
23.83783,81562
23.84718,78040
23.85652,78313
23.86585,81451
23.87520,82550
23.88453,83531
23.89387,80702
23.90322,88384
23.91255,86854
23.92188,85659
23.93123,83494
23.94057,81433
23.94992,83104
23.95925,82756
23.96858,81527
23.97793,80879
23.98727,77795
23.99660,78825
24.00595,79308
24.01528,81500
24.02462,84084
24.03397,86154
24.04330,82678
24.05263,78546
24.06198,76454
24.07132,78222
24.08065,83588
24.09000,85457
24.09933,94799
24.10867,81575
24.11802,84331
24.12735,83172
24.13670,79725
24.14603,80355
24.15537,81126
24.16472,85816
24.17405,83365
24.18338,84091
24.19273,85580
24.20207,82943
24.21140,82683
24.22075,81511
24.23008,79126
24.23942,85251
24.24877,87654
24.25810,86357
24.26743,89732
24.27678,89374
24.28612,85499
24.29547,84420
24.30480,89157
24.31413,100806
24.32348,114592
24.33282,127036
24.34215,120395
24.35150,104233
24.36083,94981
24.37017,86863
24.37952,88258
24.38885,91076
24.39818,91608
24.40753,94315
24.41687,93012
24.42620,90666
24.43555,86905
24.44488,88089
24.45422,88092
24.46357,87868
24.47290,87488
24.48225,88011
24.49158,87740
24.50092,91289
24.51027,94851
24.51960,98086
24.52893,95799
24.53828,94868
24.54762,94276
24.55695,98867
24.56630,99471
24.57563,98076
24.58497,93887
24.59432,91078
24.60365,91150
24.61298,99659
24.62233,104888
24.63167,105248
24.64100,100176
24.65035,96832
24.65968,94503
24.66903,105199
24.67837,108034
24.68770,107419
24.69705,103392
24.70638,100993
24.71572,100355
24.72507,100762
24.73440,102404
24.74373,96482
24.75308,91738
24.76242,93257
24.77175,93120
24.78110,90136
24.79043,90740
24.79977,94097
24.80912,92660
24.81845,95811
24.82778,91630
24.83713,95425
24.84647,91513
24.85582,90858
24.86515,93064
24.87448,95391
24.88383,97293
24.89317,97734
24.90250,99855
24.91185,101602
24.92118,103777
24.93052,101368
24.93987,98995
24.94920,104297
24.95853,107149
24.96788,116312
24.97722,114842
24.98655,110988
24.99590,108276
25.00523,104016
25.01458,107789
25.02392,102570
25.03325,98739
25.04260,99477
25.05193,100378
25.06127,95970
25.07062,98420
25.07995,97776
25.08928,102297
25.09863,102513
25.10797,104822
25.11730,104435
25.12665,101567
25.13598,104615
25.14532,109138
25.15467,116901
25.16400,120026
25.17333,116804
25.18268,108654
25.19202,106020
25.20137,107769
25.21070,108259
25.22003,105627
25.22938,103809
25.23872,103819
25.24805,103644
25.25740,105714
25.26673,109640
25.27607,108944
25.28542,111763
25.29475,111141
25.30408,113387
25.31343,114531
25.32277,114750
25.33210,124422
25.34145,137547
25.35078,140073
25.36012,132434
25.36947,129036
25.37880,123219
25.38815,120760
25.39748,114950
25.40682,115257
25.41617,116580
25.42550,113168
25.43483,117916
25.44418,118904
25.45352,118301
25.46285,120158
25.47220,127935
25.48153,148420
25.49087,180635
25.50022,200465
25.50955,188617
25.51888,167611
25.52823,150334
25.53757,141110
25.54690,136171
25.55625,135500
25.56558,131060
25.57493,135549
25.58427,129198
25.59360,126770
25.60295,128959
25.61228,129890
25.62162,122347
25.63097,119454
25.64030,119774
25.64963,128200
25.65898,138406
25.66832,146613
25.67765,147285
25.68700,140131
25.69633,132686
25.70567,132714
25.71502,128668
25.72435,128380
25.73368,129227
25.74303,128191
25.75237,135894
25.76172,130828
25.77105,135907
25.78038,133923
25.78973,133859
25.79907,136010
25.80840,142569
25.81775,146651
25.82708,152239
25.83642,150989
25.84577,157998
25.85510,156881
25.86443,146924
25.87378,145431
25.88312,139989
25.89245,143818
25.90180,143326
25.91113,141514
25.92048,138643
25.92982,141106
25.93915,138354
25.94850,142721
25.95783,148936
25.96717,151669
25.97652,152478
25.98585,142109
25.99518,140633
26.00453,140053
26.01387,138076
26.02320,142432
26.03255,145051
26.04188,150266
26.05122,157448
26.06057,161075
26.06990,161791
26.07923,158090
26.08858,153488
26.09792,149465
26.10727,148329
26.11660,143670
26.12593,144178
26.13528,142569
26.14462,147365
26.15395,157867
26.16330,160036
26.17263,161397
26.18197,161196
26.19132,159936
26.20065,148064
26.20998,145386
26.21933,140188
26.22867,144808
26.23800,142611
26.24735,143921
26.25668,145088
26.26602,142911
26.27537,144236
26.28470,145255
26.29405,144838
26.30338,148661
26.31272,152317
26.32207,156191
26.33140,156700
26.34073,153450
26.35008,153601
26.35942,151610
26.36875,151235
26.37810,147224
26.38743,147610
26.39677,142943
26.40612,141231
26.41545,142143
26.42478,143990
26.43413,144605
26.44347,151512
26.45280,154588
26.46215,161340
26.47148,166982
26.48083,164718
26.49017,158409
26.49950,162901
26.50885,164661
26.51818,161303
26.52752,169009
26.53687,179961
26.54620,188361
26.55553,186421
26.56488,180292
26.57422,175246
26.58355,173503
26.59290,169763
26.60223,173760
26.61157,174510
26.62092,172876
26.63025,169868
26.63960,166779
26.64893,164615
26.65827,167863
26.66762,169205
26.67695,174169
26.68628,165613
26.69563,162805
26.70497,157980
26.71430,154819
26.72365,153649
26.73298,157138
26.74232,159005
26.75167,157361
26.76100,161098
26.77033,159057
26.77968,164169
26.78902,176432
26.79835,176952
26.80770,176484
26.81703,169138
26.82638,164119
26.83572,160918
26.84505,163230
26.85440,160870
26.86373,167130
26.87307,169062
26.88242,162710
26.89175,162848
26.90108,163251
26.91043,160014
26.91977,156040
26.92910,156456
26.93845,159782
26.94778,159445
26.95712,157622
26.96647,158351
26.97580,159060
26.98513,158322
26.99448,159556
27.00382,163255
27.01317,165990
27.02250,166887
27.03183,164273
27.04118,155699
27.05052,168526
27.05985,167657
27.06920,167278
27.07853,164160
27.08787,164933
27.09722,163377
27.10655,164631
27.11588,166968
27.12523,165630
27.13457,170055
27.14390,171534
27.15325,171779
27.16258,174314
27.17192,169582
27.18127,168345
27.19060,164695
27.19995,165666
27.20928,165029
27.21862,163339
27.22797,162472
27.23730,166850
27.24663,170824
27.25598,175635
27.26532,178814
27.27465,185243
27.28400,180914
27.29333,172807
27.30267,166937
27.31202,168710
27.32135,166721
27.33068,167884
27.34003,170726
27.34937,166449
27.35870,168500
27.36805,168266
27.37738,170363
27.38673,173682
27.39607,169879
27.40540,172002
27.41475,172378
27.42408,178967
27.43342,185383
27.44277,184747
27.45210,186948
27.46143,182122
27.47078,182415
27.48012,177606
27.48945,176872
27.49880,183368
27.50813,183338
27.51747,190668
27.52682,190536
27.53615,197771
27.54548,196594
27.55483,202018
27.56417,196596
27.57352,194935
27.58285,192815
27.59218,189227
27.60153,186236
27.61087,183282
27.62020,187424
27.62955,178996
27.63888,182093
27.64822,181766
27.65757,183364
27.66690,185830
27.67623,188594
27.68558,196362
27.69492,191972
27.70425,190678
27.71360,189941
27.72293,187639
27.73228,183553
27.74162,186611
27.75095,181579
27.76030,187586
27.76963,184094
27.77897,185018
27.78832,191151
27.79765,189434
27.80698,190558
27.81633,190039
27.82567,190817
27.83500,191203
27.84435,192361
27.85368,195227
27.86302,193693
27.87237,193404
27.88170,193069
27.89103,189718
27.90038,189763
27.90972,190250
27.91907,196316
27.92840,193398
27.93773,195243
27.94708,194514
27.95642,192064
27.96575,194400
27.97510,193772
27.98443,196756
27.99377,196359
28.00312,197954
28.01245,195857
28.02178,196880
28.03113,196789
28.04047,196864
28.04980,196626
28.05915,200010
28.06848,195357
28.07782,200484
28.08717,202623
28.09650,207228
28.10585,205333
28.11518,213361
28.12452,219358
28.13387,219499
28.14320,222104
28.15253,218148
28.16188,217620
28.17122,215829
28.18055,217927
28.18990,219014
28.19923,214303
28.20857,216381
28.21792,216965
28.22725,218969
28.23658,219933
28.24593,221963
28.25527,220306
28.26460,214917
28.27395,219721
28.28328,220225
28.29263,220278
28.30197,218616
28.31130,219873
28.32065,222973
28.32998,223359
28.33932,225829
28.34867,227228
28.35800,222145
28.36733,228138
28.37668,228137
28.38602,224101
28.39535,231208
28.40470,232805
28.41403,228782
28.42337,230852
28.43272,235035
28.44205,234217
28.45140,236952
28.46073,234781
28.47007,238474
28.47942,236837
28.48875,244109
28.49808,238959
28.50743,242950
28.51677,240977
28.52610,238903
28.53545,247876
28.54478,246271
28.55412,252349
28.56347,254783
28.57280,248661
28.58213,260061
28.59148,266582
28.60082,276346
28.61015,274674
28.61950,276662
28.62883,279139
28.63818,280933
28.64752,279482
28.65685,280836
28.66620,291985
28.67553,336076
28.68487,422532
28.69422,461913
28.70355,431081
28.71288,350820
28.72223,298178
28.73157,276957
28.74090,273883
28.75025,272608
28.75958,277888
28.76892,272338
28.77827,274066
28.78760,270214
28.79693,269944
28.80628,272340
28.81562,273639
28.82497,273322
28.83430,275352
28.84363,273822
28.85298,279222
28.86232,277621
28.87165,278760
28.88100,275298
28.89033,277873
28.89967,282959
28.90902,285034
28.91835,280961
28.92768,283465
28.93703,279111
28.94637,283248
28.95570,285241
28.96505,295154
28.97438,298569
28.98372,299867
28.99307,298843
29.00240,293206
29.01175,295907
29.02108,294316
29.03042,295221
29.03977,307869
29.04910,307147
29.05843,299338
29.06778,301200
29.07712,297918
29.08645,298419
29.09580,294467
29.10513,288943
29.11447,294512
29.12382,293900
29.13315,295834
29.14248,294576
29.15183,294205
29.16117,296912
29.17050,297654
29.17985,294506
29.18918,300048
29.19853,305374
29.20787,315827
29.21720,318862
29.22655,314313
29.23588,312339
29.24522,299998
29.25457,301111
29.26390,300948
29.27323,302896
29.28258,305288
29.29192,301882
29.30125,305587
29.31060,303228
29.31993,301791
29.32927,301220
29.33862,309567
29.34795,304540
29.35728,305061
29.36663,309279
29.37597,302394
29.38532,308616
29.39465,304615
29.40398,307279
29.41333,302248
29.42267,301628
29.43200,305476
29.44135,308959
29.45068,310798
29.46002,313941
29.46937,324727
29.47870,326160
29.48803,323458
29.49738,318825
29.50672,309007
29.51605,305063
29.52540,305185
29.53473,306734
29.54408,308936
29.55342,309536
29.56275,308521
29.57210,309173
29.58143,308576
29.59077,307155
29.60012,309836
29.60945,316208
29.61878,306751
29.62813,314505
29.63747,313254
29.64680,309984
29.65615,313231
29.66548,311785
29.67482,311925
29.68417,312621
29.69350,318412
29.70283,316684
29.71218,313300
29.72152,310676
29.73087,311492
29.74020,316745
29.74953,320049
29.75888,320391
29.76822,316156
29.77755,318283
29.78690,312084
29.79623,318201
29.80557,310641
29.81492,311004
29.82425,308888
29.83358,311128
29.84293,306269
29.85227,305967
29.86160,306359
29.87095,302433
29.88028,314309
29.88962,305321
29.89897,307865
29.90830,315144
29.91765,321825
29.92698,313204
29.93632,318252
29.94567,325994
29.95500,320843
29.96433,322353
29.97368,321028
29.98302,323400
29.99235,328820
30.00170,328244
30.01103,329255
30.02037,326082
30.02972,322397
30.03905,321778
30.04838,316898
30.05773,315614
30.06707,317812
30.07640,316672
30.08575,322361
30.09508,321726
30.10443,317257
30.11377,316165
30.12310,319090
30.13245,325822
30.14178,328441
30.15112,331106
30.16047,339176
30.16980,342978
30.17913,346998
30.18848,343874
30.19782,342730
30.20715,337890
30.21650,334566
30.22583,332488
30.23517,332084
30.24452,325953
30.25385,327138
30.26320,326089
30.27253,321957
30.28187,319944
30.29122,321610
30.30055,321337
30.30988,324601
30.31923,323099
30.32857,323479
30.33790,319091
30.34725,326179
30.35658,319858
30.36592,322380
30.37527,322835
30.38460,326780
30.39393,329258
30.40328,337062
30.41262,348376
30.42195,351686
30.43130,351177
30.44063,340388
30.44998,331017
30.45932,330896
30.46865,329520
30.47800,327666
30.48733,327964
30.49667,330127
30.50602,328693
30.51535,324543
30.52468,327086
30.53403,329158
30.54337,327858
30.55270,323639
30.56205,327627
30.57138,323655
30.58072,322986
30.59007,321896
30.59940,329319
30.60873,327108
30.61808,333195
30.62742,336411
30.63677,341961
30.64610,347667
30.65543,354678
30.66478,362182
30.67412,361796
30.68345,357005
30.69280,345081
30.70213,341203
30.71147,336359
30.72082,334609
30.73015,325695
30.73948,328993
30.74883,326075
30.75817,326854
30.76750,325817
30.77685,325891
30.78618,333499
30.79552,339302
30.80487,343637
30.81420,346064
30.82355,342118
30.83288,347612
30.84222,332024
30.85157,332360
30.86090,338418
30.87023,345649
30.87958,338162
30.88892,334849
30.89825,340160
30.90760,336756
30.91693,345713
30.92627,341414
30.93562,339897
30.94495,338041
30.95428,340557
30.96363,342259
30.97297,338449
30.98230,343385
30.99165,339511
31.00098,338635
31.01033,337780
31.01967,340955
31.02900,330906
31.03835,333115
31.04768,336231
31.05702,327537
31.06637,331876
31.07570,333705
31.08503,332311
31.09438,324550
31.10372,330115
31.11305,327927
31.12240,330512
31.13173,325188
31.14107,336886
31.15042,330453
31.15975,329888
31.16908,336042
31.17843,338469
31.18777,337765
31.19712,338085
31.20645,332338
31.21578,337487
31.22513,331894
31.23447,332671
31.24380,336678
31.25315,330341
31.26248,334263
31.27182,329240
31.28117,326552
31.29050,329552
31.29983,327097
31.30918,326271
31.31852,332453
31.32785,329002
31.33720,329459
31.34653,334842
31.35588,333037
31.36522,333008
