D:\数据\20211123\ZS1E-M-000017.D Tue Nov 23 21:23:27 2021
Start of data points
0.09770,40505
0.10703,41625
0.11637,40071
0.12572,38532
0.13505,41265
0.14438,39962
0.15373,41555
0.16307,38937
0.17240,41985
0.18175,39449
0.19108,39666
0.20042,38629
0.20977,37571
0.21910,39378
0.22845,40245
0.23778,37855
0.24712,37881
0.25647,39292
0.26580,37839
0.27513,37918
0.28448,37684
0.29382,37029
0.30315,36675
0.31250,35778
0.32183,37337
0.33117,37989
0.34052,37914
0.34985,37365
0.35918,38409
0.36853,37341
0.37787,36280
0.38720,37391
0.39655,39089
0.40588,36112
0.41523,33786
0.42457,28339
0.43390,25913
0.44325,21610
0.45258,16083
0.46192,12960
0.47127,13841
0.48060,12595
0.48993,12520
0.49928,11826
0.50862,11383
0.51795,11850
0.52730,10518
0.53663,13017
0.54597,12383
0.55532,10582
0.56465,10461
0.57398,10464
0.58333,9866
0.59267,10618
0.60202,11161
0.61135,10712
0.62068,10839
0.63003,10719
0.63937,10145
0.64870,11984
0.65805,10157
0.66738,10162
0.67672,11555
0.68607,9527
0.69540,9688
0.70473,10940
0.71408,9935
0.72342,10727
0.73275,10464
0.74210,11362
0.75143,10268
0.76077,10545
0.77012,9849
0.77945,10620
0.78880,10452
0.79813,10169
0.80747,10029
0.81682,9619
0.82615,10033
0.83548,9810
0.84483,9420
0.85417,10590
0.86350,9610
0.87285,10042
0.88218,9650
0.89152,9922
0.90087,9800
0.91020,9174
0.91953,9093
0.92888,9413
0.93822,10634
0.94755,9691
0.95690,9623
0.96623,8825
0.97558,9372
0.98492,9761
0.99425,8651
1.00360,8985
1.01293,8895
1.02227,8466
1.03162,8736
1.04095,8729
1.05028,8766
1.05963,9954
1.06897,9528
1.07830,9233
1.08765,8809
1.09698,8373
1.10632,9569
1.11567,9245
1.12500,8588
1.13435,9403
1.14368,9361
1.15302,8326
1.16237,7858
1.17170,7747
1.18103,9388
1.19038,8745
1.19972,9658
1.20905,8482
1.21840,8741
1.22773,9922
1.23707,9255
1.24642,8792
1.25575,8400
1.26508,8712
1.27443,9321
1.28377,9405
1.29310,7837
1.30245,8474
1.31178,8327
1.32113,8640
1.33047,9063
1.33980,7992
1.34915,8820
1.35848,8786
1.36782,8315
1.37717,8896
1.38650,8906
1.39583,9531
1.40518,9260
1.41452,8780
1.42385,8343
1.43320,9457
1.44253,7973
1.45187,7849
1.46122,7677
1.47055,8696
1.47988,9437
1.48923,7988
1.49857,8097
1.50792,8769
1.51725,8698
1.52658,8320
1.53593,8215
1.54527,8486
1.55460,8547
1.56395,8814
1.57328,8230
1.58262,8513
1.59197,11711
1.60130,19468
1.61063,28707
1.61998,33567
1.62932,42071
1.63865,58547
1.64800,69927
1.65733,73170
1.66667,67378
1.67602,57310
1.68535,50710
1.69470,41798
1.70403,31375
1.71337,25173
1.72272,26503
1.73205,30386
1.74138,34049
1.75073,36561
1.76007,37246
1.76940,39039
1.77875,40337
1.78808,42296
1.79742,40328
1.80677,41886
1.81610,41599
1.82543,41372
1.83478,41196
1.84412,40548
1.85347,40190
1.86280,40419
1.87213,47438
1.88148,58915
1.89082,75615
1.90015,99582
1.90950,129614
1.91883,160678
1.92817,229292
1.93752,346315
1.94685,483235
1.95618,570778
1.96553,551535
1.97487,473204
1.98420,371661
1.99355,278750
2.00288,215324
2.01222,178002
2.02157,172052
2.03090,187249
2.04025,173843
2.04958,145938
2.05892,125192
2.06827,102325
2.07760,89193
2.08693,91416
2.09628,173741
2.10562,279115
2.11495,221190
2.12430,147605
2.13363,137132
2.14297,163663
2.15232,168529
2.16165,144247
2.17098,125013
2.18033,120268
2.18967,181074
2.19900,242578
2.20835,200712
2.21768,129009
2.22703,104252
2.23637,118515
2.24570,159305
2.25505,233034
2.26438,994775
2.27372,2122279
2.28307,1990961
2.29240,1336135
2.30173,793663
2.31108,522170
2.32042,475700
2.32975,432640
2.33910,285825
2.34843,181524
2.35777,128454
2.36712,110671
2.37645,105038
2.38578,116725
2.39513,132818
2.40447,130302
2.41382,131021
2.42315,117907
2.43248,106606
2.44183,104371
2.45117,89381
2.46050,81248
2.46985,81259
2.47918,87711
2.48852,88049
2.49787,78622
2.50720,71531
2.51653,67413
2.52588,64621
2.53522,62801
2.54455,62421
2.55390,64362
2.56323,84689
2.57257,1197633
2.58192,1360107
2.59125,1019965
2.60060,678301
2.60993,450698
2.61927,329747
2.62862,312560
2.63795,301959
2.64728,235784
2.65663,171783
2.66597,132561
2.67530,111092
2.68465,95077
2.69398,86106
2.70332,78190
2.71267,77645
2.72200,118963
2.73133,236693
2.74068,376818
2.75002,383690
2.75937,325773
2.76870,341840
2.77803,507680
2.78738,1003082
2.79672,1362760
2.80605,1224286
2.81540,914487
2.82473,690574
2.83407,546162
2.84342,422672
2.85275,330586
2.86208,388505
2.87143,593346
2.88077,633778
2.89010,453911
2.89945,279661
2.90878,187942
2.91812,147228
2.92747,127776
2.93680,114416
2.94615,100724
2.95548,91053
2.96482,82390
2.97417,77818
2.98350,73777
2.99283,74578
3.00218,73058
3.01152,75173
3.02085,76891
3.03020,81437
3.03953,115382
3.04887,261569
3.05822,274346
3.06755,231674
3.07688,193459
3.08623,161925
3.09557,129242
3.10490,100938
3.11425,80181
3.12358,71595
3.13293,67330
3.14227,68104
3.15160,71350
3.16095,91201
3.17028,119565
3.17962,136030
3.18897,131462
3.19830,105115
3.20763,82723
3.21698,76362
3.22632,74191
3.23565,71638
3.24500,70583
3.25433,69133
3.26367,67632
3.27302,65570
3.28235,61924
3.29168,61209
3.30103,61792
3.31037,64113
3.31972,64780
3.32905,61890
3.33838,59531
3.34773,61383
3.35707,57884
3.36640,59542
3.37575,59176
3.38508,55769
3.39442,57743
3.40377,53929
3.41310,60130
3.42243,66975
3.43178,71361
3.44112,67652
3.45045,70538
3.45980,77296
3.46913,81510
3.47848,75236
3.48782,71574
3.49715,74420
3.50650,79262
3.51583,72462
3.52517,65029
3.53452,62579
3.54385,59539
3.55318,69935
3.56253,136759
3.57187,308534
3.58120,456515
3.59055,402782
3.59988,253942
3.60922,156360
3.61857,118026
3.62790,167548
3.63723,153520
3.64658,129190
3.65592,111818
3.66527,95705
3.67460,86047
3.68393,86376
3.69328,83230
3.70262,74309
3.71195,68172
3.72130,68590
3.73063,76930
3.73997,84239
3.74932,76433
3.75865,68497
3.76798,64164
3.77733,61496
3.78667,57177
3.79600,55445
3.80535,59220
3.81468,81935
3.82402,139014
3.83337,189529
3.84270,166826
3.85205,112971
3.86138,76385
3.87072,76816
3.88007,76669
3.88940,79018
3.89873,79241
3.90808,82277
3.91742,88362
3.92675,89348
3.93610,91493
3.94543,101903
3.95477,120955
3.96412,157957
3.97345,171455
3.98278,157803
3.99213,153093
4.00147,157861
4.01080,166519
4.02015,178886
4.02948,187226
4.03883,205632
4.04817,233137
4.05750,262882
4.06685,275036
4.07618,283350
4.08552,273679
4.09487,188029
4.10420,163702
4.11353,146146
4.12288,124917
4.13222,100733
4.14155,85921
4.15090,78262
4.16023,75811
4.16957,74026
4.17892,69701
4.18825,67252
4.19758,67321
4.20693,66978
4.21627,69979
4.22562,68461
4.23495,65558
4.24428,65284
4.25363,67017
4.26297,1901128
4.27230,1648897
4.28165,1264344
4.29098,935882
4.30032,689167
4.30967,499583
4.31900,383634
4.32833,305035
4.33768,252206
4.34702,206679
4.35635,167614
4.36570,137996
4.37503,115683
4.38437,106712
4.39372,102900
4.40305,100236
4.41240,90946
4.42173,82346
4.43107,76201
4.44042,73744
4.44975,69737
4.45908,69417
4.46843,67417
4.47777,70702
4.48710,80027
4.49645,86794
4.50578,81380
4.51512,73440
4.52447,69904
4.53380,69505
4.54313,76470
4.55248,77377
4.56182,75931
4.57117,67683
4.58050,67959
4.58983,64724
4.59918,63201
4.60852,62011
4.61785,62446
4.62720,60417
4.63653,62533
4.64587,68680
4.65522,83261
4.66455,87364
4.67388,89996
4.68323,85160
4.69257,78705
4.70190,72663
4.71125,70762
4.72058,67634
4.72992,67523
4.73927,115373
4.74860,119119
4.75795,102388
4.76728,86844
4.77662,77972
4.78597,76703
4.79530,73058
4.80463,82896
4.81398,80854
4.82332,74976
4.83265,70507
4.84200,68598
4.85133,65588
4.86067,63234
4.87002,65273
4.87935,73501
4.88868,85084
4.89803,91557
4.90737,107484
4.91670,112325
4.92605,106049
4.93538,90006
4.94473,81058
4.95407,70186
4.96340,62486
4.97275,57110
4.98208,56557
4.99142,55405
5.00077,56782
5.01010,60826
5.01943,70683
5.02878,81773
5.03812,91625
5.04745,87113
5.05680,78397
5.06613,71802
5.07547,67566
5.08482,65730
5.09415,63179
5.10348,63647
5.11283,60511
5.12217,59727
5.13152,58851
5.14085,69096
5.15018,82886
5.15953,90747
5.16887,80561
5.17820,67758
5.18755,62538
5.19688,67029
5.20622,75199
5.21557,72925
5.22490,66770
5.23423,64239
5.24358,66527
5.25292,67157
5.26225,66620
5.27160,74278
5.28093,132534
5.29028,268829
5.29962,388148
5.30895,366024
5.31830,270006
5.32763,217559
5.33697,197811
5.34632,155099
5.35565,102632
5.36498,77343
5.37433,69142
5.38367,76130
5.39300,99400
5.40235,131417
5.41168,132065
5.42102,117849
5.43037,99107
5.43970,80882
5.44903,64950
5.45838,57305
5.46772,55530
5.47707,60802
5.48640,64030
5.49573,63125
5.50508,62409
5.51442,61328
5.52375,63656
5.53310,66318
5.54243,66756
5.55177,68443
5.56112,77858
5.57045,82481
5.57978,94275
5.58913,104126
5.59847,115037
5.60780,128036
5.61715,145665
5.62648,152804
5.63582,117329
5.64517,87930
5.65450,77653
5.66385,72787
5.67318,71344
5.68252,73035
5.69187,70086
5.70120,76415
5.71053,79530
5.71988,77440
5.72922,72902
5.73855,68524
5.74790,69932
5.75723,81271
5.76657,85039
5.77592,86747
5.78525,86177
5.79458,80096
5.80393,72449
5.81327,72617
5.82260,78103
5.83195,89691
5.84128,100214
5.85063,92685
5.85997,79193
5.86930,69568
5.87865,65530
5.88798,62603
5.89732,57770
5.90667,60686
5.91600,114359
5.92533,255796
5.93468,375277
5.94402,322233
5.95335,239451
5.96270,195500
5.97203,147663
5.98137,98509
5.99072,72990
6.00005,65551
6.00938,62754
6.01873,58020
6.02807,52718
6.03742,43515
6.04675,39108
6.05608,35897
6.06543,37380
6.07477,37378
6.08410,33670
6.09345,29651
6.10278,27374
6.11212,29037
6.12147,30726
6.13080,35908
6.14013,41724
6.14948,43230
6.15882,37729
6.16815,33174
6.17750,30664
6.18683,31062
6.19618,31072
6.20552,30201
6.21485,29704
6.22420,31193
6.23353,34332
6.24287,41223
6.25222,39565
6.26155,33218
6.27088,34011
6.28023,46942
6.28957,61570
6.29890,55843
6.30825,40664
6.31758,31235
6.32692,27547
6.33627,25843
6.34560,25113
6.35493,26347
6.36428,25214
6.37362,31512
6.38297,55594
6.39230,106460
6.40163,228646
6.41098,678503
6.42032,1362437
6.42965,1466120
6.43900,868723
6.44833,310838
6.45767,100403
6.46702,49538
6.47635,38753
6.48568,35130
6.49503,33576
6.50437,31634
6.51370,30414
6.52305,32868
6.53238,32523
6.54172,32737
6.55107,30025
6.56040,27062
6.56975,26923
6.57908,26610
6.58842,27410
6.59777,31782
6.60710,36764
6.61643,39316
6.62578,38671
6.63512,37484
6.64445,38915
6.65380,40696
6.66313,43762
6.67247,44562
6.68182,42072
6.69115,34019
6.70048,33855
6.70983,37990
6.71917,43706
6.72850,41926
6.73785,37356
6.74718,33947
6.75653,31847
6.76587,30912
6.77520,31469
6.78455,35120
6.79388,43233
6.80322,52620
6.81257,57012
6.82190,48841
6.83123,35194
6.84058,32184
6.84992,36836
6.85925,42972
6.86860,43612
6.87793,36542
6.88727,33591
6.89662,31072
6.90595,37762
6.91530,48123
6.92463,52660
6.93397,47393
6.94332,38371
6.95265,35902
6.96198,34653
6.97133,33808
6.98067,33273
6.99000,34953
6.99935,34167
7.00868,32713
7.01802,31783
7.02737,36858
7.03670,32988
7.04603,28253
7.05538,26273
7.06472,25022
7.07405,24232
7.08340,24003
7.09273,25965
7.10208,30240
7.11142,36643
7.12075,42264
7.13010,40659
7.13943,35970
7.14877,31354
7.15812,28317
7.16745,25755
7.17678,27130
7.18613,25278
7.19547,26588
7.20480,28121
7.21415,29654
7.22348,31426
7.23282,49120
7.24217,98476
7.25150,139950
7.26083,129220
7.27018,91067
7.27952,71100
7.28887,65099
7.29820,60082
7.30753,48107
7.31688,37513
7.32622,27841
7.33555,25752
7.34490,24544
7.35423,25312
7.36357,25846
7.37292,23966
7.38225,27876
7.39158,43195
7.40093,99963
7.41027,205609
7.41960,291646
7.42895,265256
7.43828,174367
7.44762,94805
7.45697,51656
7.46630,34677
7.47565,29723
7.48498,37494
7.49432,49700
7.50367,53951
7.51300,44398
7.52233,37969
7.53168,33196
7.54102,28718
7.55035,27521
7.55970,27707
7.56903,28840
7.57837,31779
7.58772,34397
7.59705,36215
7.60638,41705
7.61573,41387
7.62507,38152
7.63440,35958
7.64375,37279
7.65308,35549
7.66243,31351
7.67177,28500
7.68110,27943
7.69045,27810
7.69978,27745
7.70912,34234
7.71847,38829
7.72780,39865
7.73713,33899
7.74648,31435
7.75582,33018
7.76515,33362
7.77450,35677
7.78383,34456
7.79317,35250
7.80252,37799
7.81185,34972
7.82118,30780
7.83053,28186
7.83987,27079
7.84922,30173
7.85855,44808
7.86788,75040
7.87723,111959
7.88657,115557
7.89590,87000
7.90525,61367
7.91458,73217
7.92392,115126
7.93327,145232
7.94260,111960
7.95193,80423
7.96128,103054
7.97062,126370
7.97995,180119
7.98930,272131
7.99863,276444
8.00798,186646
8.01732,106604
8.02665,66763
8.03600,57672
8.04533,64243
8.05467,80108
8.06402,71100
8.07335,47553
8.08268,34108
8.09203,39507
8.10137,55434
8.11070,66577
8.12005,59073
8.12938,43829
8.13872,37157
8.14807,32312
8.15740,34199
8.16673,32800
8.17608,30623
8.18542,30362
8.19477,29072
8.20410,28509
8.21343,30112
8.22278,31425
8.23212,33378
8.24145,39050
8.25080,43644
8.26013,48502
8.26947,52331
8.27882,49073
8.28815,42101
8.29748,36141
8.30683,34989
8.31617,33172
8.32550,32926
8.33485,29200
8.34418,28937
8.35352,31084
8.36287,29288
8.37220,28262
8.38155,27812
8.39088,30726
8.40022,35847
8.40957,39788
8.41890,43687
8.42823,44796
8.43758,47005
8.44692,45930
8.45625,40811
8.46560,41297
8.47493,45668
8.48427,44598
8.49362,44986
8.50295,46590
8.51228,42649
8.52163,37706
8.53097,35271
8.54030,34596
8.54965,36150
8.55898,41302
8.56833,47152
8.57767,46121
8.58700,41639
8.59635,38627
8.60568,40058
8.61502,45071
8.62437,43847
8.63370,39673
8.64303,39406
8.65238,35355
8.66172,34836
8.67105,38424
8.68040,43745
8.68973,46004
8.69907,45877
8.70842,48115
8.71775,48777
8.72710,41230
8.73643,40439
8.74577,56038
8.75512,96245
8.76445,124773
8.77378,108507
8.78313,75555
8.79247,50383
8.80180,46812
8.81115,62379
8.82048,82889
8.82982,79933
8.83917,61310
8.84850,41024
8.85783,35866
8.86718,39762
8.87652,49549
8.88585,57616
8.89520,59587
8.90453,56322
8.91388,51305
8.92322,50836
8.93255,54266
8.94190,61313
8.95123,55663
8.96057,45976
8.96992,42699
8.97925,45151
8.98858,43563
8.99793,40936
9.00727,44267
9.01660,46549
9.02595,45468
9.03528,41261
9.04462,41915
9.05397,44814
9.06330,50273
9.07263,59481
9.08198,82103
9.09132,109653
9.10067,124462
9.11000,103483
9.11933,66090
9.12868,48636
9.13802,39984
9.14735,38056
9.15670,39980
9.16603,38965
9.17537,41590
9.18472,43023
9.19405,45372
9.20338,51514
9.21273,60665
9.22207,83664
9.23140,139699
9.24075,218646
9.25008,222806
9.25942,147708
9.26877,73814
9.27810,47173
9.28745,40616
9.29678,38975
9.30612,37987
9.31547,45285
9.32480,75802
9.33413,138654
9.34348,181370
9.35282,141257
9.36215,104727
9.37150,152930
9.38083,267380
9.39017,294684
9.39952,233980
9.40885,158702
9.41818,115855
9.42753,106260
9.43687,100703
9.44620,74874
9.45555,50891
9.46488,41696
9.47423,35963
9.48357,38112
9.49290,47108
9.50225,65469
9.51158,70578
9.52092,55638
9.53027,44253
9.53960,46564
9.54893,62123
9.55828,95684
9.56762,161686
9.57695,202701
9.58630,151085
9.59563,96608
9.60497,100558
9.61432,119780
9.62365,96843
9.63300,67110
9.64233,56524
9.65167,56797
9.66102,56615
9.67035,57294
9.67968,54757
9.68903,56582
9.69837,56378
9.70770,44359
9.71705,37558
9.72638,46952
9.73572,116270
9.74507,287757
9.75440,455258
9.76373,415743
9.77308,252607
9.78242,136134
9.79175,92010
9.80110,79799
9.81043,75941
9.81978,86336
9.82912,116705
9.83845,158137
9.84780,219767
9.85713,263352
9.86647,218693
9.87582,133518
9.88515,95221
9.89448,97974
9.90383,108154
9.91317,130028
9.92250,201485
9.93185,247504
9.94118,198917
9.95052,125094
9.95987,76624
9.96920,61046
9.97853,90556
9.98788,202767
9.99722,346540
10.00657,350275
10.01590,213794
10.02523,106716
10.03458,67926
10.04392,54985
10.05325,57436
10.06260,62446
10.07193,82067
10.08127,102859
10.09062,108038
10.09995,101936
10.10928,190699
10.11863,980055
10.12797,3800281
10.13730,7257352
10.14665,6944945
10.15598,4533126
10.16532,5139861
10.17467,8577676
10.18400,8793584
10.19335,4410556
10.20268,1049899
10.21202,188025
10.22137,81402
10.23070,73707
10.24003,84657
10.24938,113015
10.25872,122468
10.26805,92528
10.27740,65259
10.28673,56781
10.29607,57752
10.30542,55700
10.31475,49986
10.32408,49732
10.33343,45972
10.34277,43535
10.35210,42070
10.36145,46233
10.37078,44121
10.38013,46760
10.38947,42601
10.39880,38841
10.40815,40776
10.41748,39152
10.42682,40036
10.43617,43980
10.44550,48277
10.45483,52699
10.46418,64573
10.47352,76273
10.48285,67936
10.49220,50628
10.50153,37859
10.51087,36976
10.52022,36867
10.52955,36184
10.53890,38214
10.54823,42086
10.55757,44239
10.56692,48745
10.57625,58056
10.58558,73526
10.59493,84729
10.60427,90526
10.61360,73993
10.62295,57959
10.63228,64823
10.64162,92656
10.65097,104918
10.66030,75817
10.66963,52605
10.67898,48039
10.68832,56985
10.69765,59649
10.70700,57439
10.71633,64590
10.72568,82436
10.73502,89428
10.74435,76507
10.75370,84558
10.76303,159466
10.77237,255430
10.78172,252801
10.79105,242451
10.80038,507608
10.80973,1067373
10.81907,1303147
10.82840,891031
10.83775,354860
10.84708,114554
10.85642,61528
10.86577,54839
10.87510,56374
10.88443,67075
10.89378,78872
10.90312,79623
10.91247,67116
10.92180,58351
10.93113,65222
10.94048,72524
10.94982,65962
10.95915,52359
10.96850,47045
10.97783,49224
10.98717,45902
10.99652,41085
11.00585,40397
11.01518,39366
11.02453,38580
11.03387,38991
11.04320,38843
11.05255,38919
11.06188,37196
11.07122,36244
11.08057,39033
11.08990,41082
11.09925,41782
11.10858,43685
11.11792,51303
11.12727,50864
11.13660,47693
11.14593,45231
11.15528,43046
11.16462,43044
11.17395,43710
11.18330,42874
11.19263,41327
11.20197,39571
11.21132,38300
11.22065,44089
11.22998,45085
11.23933,46752
11.24867,43226
11.25800,40954
11.26735,48989
11.27668,51630
11.28603,48686
11.29537,45727
11.30470,42463
11.31405,42183
11.32338,40239
11.33272,45899
11.34207,66243
11.35140,99303
11.36073,135283
11.37008,137895
11.37942,99027
11.38875,69311
11.39810,63575
11.40743,77570
11.41677,87760
11.42612,75169
11.43545,58787
11.44480,47200
11.45413,43913
11.46347,63237
11.47282,93971
11.48215,119185
11.49148,104210
11.50083,65243
11.51017,45390
11.51950,39152
11.52885,38546
11.53818,39191
11.54752,38380
11.55687,45845
11.56620,61433
11.57553,90931
11.58488,135480
11.59422,154888
11.60355,132235
11.61290,105068
11.62223,93718
11.63158,95107
11.64092,93528
11.65025,88242
11.65960,83917
11.66893,84754
11.67827,82475
11.68762,69358
11.69695,56681
11.70628,53138
11.71563,53040
11.72497,55055
11.73430,49610
11.74365,49134
11.75298,50618
11.76232,53830
11.77167,55277
11.78100,57074
11.79033,66383
11.79968,76239
11.80902,68077
11.81837,57222
11.82770,51915
11.83703,54831
11.84638,57083
11.85572,56402
11.86505,54792
11.87440,55853
11.88373,66006
11.89307,67857
11.90242,65324
11.91175,64969
11.92108,60412
11.93043,52612
11.93977,57676
11.94910,76001
11.95845,89915
11.96778,84622
11.97712,70460
11.98647,61058
11.99580,58001
12.00515,64354
12.01448,90633
12.02382,121889
12.03317,124396
12.04250,91224
12.05183,67900
12.06118,59202
12.07052,54137
12.07985,52049
12.08920,57026
12.09853,65227
12.10787,68429
12.11722,67168
12.12655,60382
12.13588,56876
12.14523,60967
12.15457,63213
12.16392,75277
12.17325,123481
12.18258,243609
12.19193,312845
12.20127,233545
12.21060,123179
12.21995,77213
12.22928,85868
12.23862,111987
12.24797,120489
12.25730,96524
12.26663,102016
12.27598,218062
12.28532,467306
12.29465,571031
12.30400,368159
12.31333,166335
12.32267,83091
12.33202,66299
12.34135,74774
12.35070,87179
12.36003,83451
12.36937,66743
12.37872,60344
12.38805,75076
12.39738,100482
12.40673,125972
12.41607,123084
12.42540,99076
12.43475,89158
12.44408,81390
12.45342,71220
12.46277,78248
12.47210,89025
12.48143,95073
12.49078,97500
12.50012,96795
12.50945,103552
12.51880,101951
12.52813,100948
12.53748,98900
12.54682,93600
12.55615,84388
12.56550,94335
12.57483,115128
12.58417,137857
12.59352,159870
12.60285,155030
12.61218,122131
12.62153,93994
12.63087,82427
12.64020,87172
12.64955,102706
12.65888,110171
12.66822,99301
12.67757,86087
12.68690,70221
12.69623,60448
12.70558,59867
12.71492,64076
12.72427,74087
12.73360,80479
12.74293,79999
12.75228,80300
12.76162,88928
12.77095,87253
12.78030,73597
12.78963,60091
12.79897,53496
12.80832,52502
12.81765,56645
12.82698,60530
12.83633,65062
12.84567,68810
12.85500,65753
12.86435,60307
12.87368,60876
12.88302,58413
12.89237,61828
12.90170,67756
12.91105,68410
12.92038,60502
12.92972,54463
12.93907,56175
12.94840,62826
12.95773,70762
12.96708,68728
12.97642,61576
12.98575,50776
12.99510,43779
13.00443,42009
13.01377,42827
13.02312,48807
13.03245,66113
13.04178,88373
13.05113,96006
13.06047,75052
13.06980,61502
13.07915,68183
13.08848,74771
13.09783,71139
13.10717,67777
13.11650,63989
13.12585,59331
13.13518,62781
13.14452,76211
13.15387,79714
13.16320,74609
13.17253,76232
13.18188,91932
13.19122,196693
13.20055,921200
13.20990,3763833
13.21923,8296390
13.22857,9751253
13.23792,6059380
13.24725,2093642
13.25660,580085
13.26593,269881
13.27527,163955
13.28462,114675
13.29395,97267
13.30328,87500
13.31263,80021
13.32197,86117
13.33130,97081
13.34065,94655
13.34998,85793
13.35932,85757
13.36867,83462
13.37800,72447
13.38733,67435
13.39668,72906
13.40602,103992
13.41535,113793
13.42470,87215
13.43403,66472
13.44338,74222
13.45272,90658
13.46205,85884
13.47140,71905
13.48073,65805
13.49007,66872
13.49942,64141
13.50875,57011
13.51808,74135
13.52743,161701
13.53677,281613
13.54610,299192
13.55545,181912
13.56478,91919
13.57412,58193
13.58347,53183
13.59280,52786
13.60213,51083
13.61148,50201
13.62082,51250
13.63017,51488
13.63950,60369
13.64883,73087
13.65818,87211
13.66752,92090
13.67685,73738
13.68620,61617
13.69553,52121
13.70487,46785
13.71422,46429
13.72355,50154
13.73288,49147
13.74223,43190
13.75157,42380
13.76090,48397
13.77025,49854
13.77958,49997
13.78892,47577
13.79827,48546
13.80760,58604
13.81695,68711
13.82628,70159
13.83562,56924
13.84497,47779
13.85430,47978
13.86363,50157
13.87298,59502
13.88232,64613
13.89165,74625
13.90100,116972
13.91033,220329
13.91967,466777
13.92902,728065
13.93835,643635
13.94768,324293
13.95703,134834
13.96637,83855
13.97572,72113
13.98505,63138
13.99438,61199
14.00373,67423
14.01307,70983
14.02240,73867
14.03175,77103
14.04108,82514
14.05042,193989
14.05977,1159625
14.06910,5004988
14.07843,1.206759E+07
14.08778,1.785298E+07
14.09712,1.483142E+07
14.10645,5226760
14.11580,820474
14.12513,137381
14.13447,83762
14.14382,77147
14.15315,78893
14.16250,89928
14.17183,102247
14.18117,112568
14.19052,139165
14.19985,218075
14.20918,282972
14.21853,218683
14.22787,114004
14.23720,61395
14.24655,48055
14.25588,42428
14.26522,48187
14.27457,57295
14.28390,63468
14.29323,59394
14.30258,50102
14.31192,51078
14.32125,67750
14.33060,101177
14.33993,138876
14.34928,127470
14.35862,93303
14.36795,70337
14.37730,59189
14.38663,52678
14.39597,53927
14.40532,55125
14.41465,51843
14.42398,46208
14.43333,44555
14.44267,45531
14.45200,63115
14.46135,105436
14.47068,157601
14.48002,177772
14.48937,151643
14.49870,95885
14.50803,63611
14.51738,50548
14.52672,44464
14.53607,43388
14.54540,46296
14.55473,49361
14.56408,51842
14.57342,54038
14.58275,53345
14.59210,51206
14.60143,48803
14.61077,46591
14.62012,47214
14.62945,49974
14.63878,51081
14.64813,56699
14.65747,73123
14.66680,87568
14.67615,90535
14.68548,75295
14.69482,60595
14.70417,51800
14.71350,49314
14.72285,45784
14.73218,48490
14.74152,50237
14.75087,52275
14.76020,50393
14.76953,48508
14.77888,47350
14.78822,49276
14.79755,49786
14.80690,52813
14.81623,52865
14.82557,54358
14.83492,55419
14.84425,53300
14.85358,48765
14.86293,50745
14.87227,75024
14.88162,107875
14.89095,112496
14.90028,81877
14.90963,62355
14.91897,53702
14.92830,50843
14.93765,52437
14.94698,53605
14.95632,57102
14.96567,63050
14.97500,78263
14.98433,86802
14.99368,79737
15.00302,70566
15.01235,77236
15.02170,89220
15.03103,82767
15.04037,70172
15.04972,71764
15.05905,82070
15.06840,87267
15.07773,91032
15.08707,88290
15.09642,67349
15.10575,55529
15.11508,49512
15.12443,58365
15.13377,78883
15.14310,98654
15.15245,92762
15.16178,67085
15.17112,51227
15.18047,45816
15.18980,50823
15.19913,61949
15.20848,96437
15.21782,162121
15.22715,230052
15.23650,248444
15.24583,205238
15.25518,136760
15.26452,91434
15.27385,65054
15.28320,59733
15.29253,59045
15.30187,55777
15.31122,52455
15.32055,51135
15.32988,57998
15.33923,69674
15.34857,75195
15.35790,68332
15.36725,70732
15.37658,87948
15.38592,99293
15.39527,85966
15.40460,64006
15.41393,48212
15.42328,52777
15.43262,62276
15.44197,64928
15.45130,61656
15.46063,50739
15.46998,48140
15.47932,51352
15.48865,56326
15.49800,63202
15.50733,74946
15.51667,113256
15.52602,178026
15.53535,200797
15.54468,145165
15.55403,95387
15.56337,62340
15.57270,49573
15.58205,48193
15.59138,49533
15.60073,49175
15.61007,54896
15.61940,54966
15.62875,58948
15.63808,69123
15.64742,78852
15.65677,81400
15.66610,92787
15.67543,99667
15.68478,87259
15.69412,70215
15.70345,76504
15.71280,103255
15.72213,107995
15.73147,85156
15.74082,65059
15.75015,70755
15.75948,87561
15.76883,100119
15.77817,95991
15.78752,84521
15.79685,70213
15.80618,63014
15.81553,63357
15.82487,71494
15.83420,112815
15.84355,241236
15.85288,397051
15.86222,366777
15.87157,203732
15.88090,105280
15.89023,96336
15.89958,115786
15.90892,130054
15.91825,122977
15.92760,98299
15.93693,72665
15.94627,61514
15.95562,55106
15.96495,57466
15.97430,62114
15.98363,90633
15.99297,128472
16.00232,148645
16.01165,137150
16.02098,93682
16.03033,61349
16.03967,54948
16.04900,55850
16.05835,59219
16.06768,63298
16.07702,65161
16.08637,60713
16.09570,56856
16.10503,55850
16.11438,63801
16.12372,78322
16.13305,87090
16.14240,78536
16.15173,69228
16.16108,60967
16.17042,62377
16.17975,56828
16.18910,54506
16.19843,56559
16.20777,65023
16.21712,84837
16.22645,104201
16.23578,117570
16.24513,110607
16.25447,88567
16.26380,79574
16.27315,104526
16.28248,292829
16.29182,1066225
16.30117,2563400
16.31050,3390880
16.31983,2469704
16.32918,1043125
16.33852,288997
16.34787,91053
16.35720,60600
16.36653,50568
16.37588,47039
16.38522,43707
16.39455,45162
16.40390,46989
16.41323,52115
16.42257,53549
16.43192,56604
16.44125,54331
16.45058,60252
16.45993,72574
16.46927,87390
16.47860,84941
16.48795,68233
16.49728,62981
16.50663,59617
16.51597,66564
16.52530,67522
16.53465,67201
16.54398,63023
16.55332,58387
16.56267,52217
16.57200,48813
16.58133,53845
16.59068,64113
16.60002,69878
16.60935,68828
16.61870,68674
16.62803,80019
16.63737,89517
16.64672,93981
16.65605,83830
16.66538,74073
16.67473,62337
16.68407,60952
16.69342,67204
16.70275,86057
16.71208,90253
16.72143,81546
16.73077,63104
16.74010,66184
16.74945,119120
16.75878,206647
16.76812,227856
16.77747,157419
16.78680,82323
16.79613,58762
16.80548,54484
16.81482,55152
16.82415,63219
16.83350,71722
16.84283,83016
16.85217,78745
16.86152,74473
16.87085,60319
16.88020,56375
16.88953,50364
16.89887,51703
16.90822,60713
16.91755,85738
16.92688,106862
16.93623,104938
16.94557,79782
16.95490,77931
16.96425,87387
16.97358,95851
16.98292,92534
16.99227,76522
17.00160,64111
17.01093,58078
17.02028,55129
17.02962,81190
17.03895,132961
17.04830,163739
17.05763,136232
17.06698,89963
17.07632,73584
17.08565,67986
17.09500,63746
17.10433,65417
17.11367,60348
17.12302,56431
17.13235,57694
17.14168,68998
17.15103,78454
17.16037,67150
17.16970,54517
17.17905,53366
17.18838,53584
17.19772,54837
17.20707,55807
17.21640,49048
17.22573,46155
17.23508,47155
17.24442,47283
17.25377,48310
17.26310,49963
17.27243,54358
17.28178,61831
17.29112,72820
17.30045,76022
17.30980,66767
17.31913,64043
17.32847,68715
17.33782,73001
17.34715,67517
17.35648,57761
17.36583,55359
17.37517,74154
17.38450,162433
17.39385,346248
17.40318,393167
17.41253,266783
17.42187,140972
17.43120,93464
17.44055,74025
17.44988,69773
17.45922,70642
17.46857,69246
17.47790,61801
17.48723,71708
17.49658,196755
17.50592,979848
17.51525,3128505
17.52460,5634587
17.53393,5271761
17.54327,2385710
17.55262,553842
17.56195,118243
17.57128,71622
17.58063,74849
17.58997,85170
17.59932,88369
17.60865,82002
17.61798,66293
17.62733,57915
17.63667,55359
17.64600,60299
17.65535,61219
17.66468,74385
17.67402,87396
17.68337,101096
17.69270,109008
17.70203,109418
17.71138,104848
17.72072,94174
17.73005,80126
17.73940,72893
17.74873,70114
17.75807,76509
17.76742,88175
17.77675,93444
17.78610,92543
17.79543,82921
17.80477,76168
17.81412,71102
17.82345,59471
17.83278,57162
17.84213,55957
17.85147,60695
17.86080,81435
17.87015,97691
17.87948,103907
17.88882,93237
17.89817,85128
17.90750,79040
17.91683,67814
17.92618,61089
17.93552,62430
17.94485,63320
17.95420,62566
17.96353,59215
17.97288,57662
17.98222,58583
17.99155,58278
18.00090,51759
18.01023,57294
18.01957,56752
18.02892,57250
18.03825,56838
18.04758,59255
18.05693,58921
18.06627,62179
18.07560,61365
18.08495,53466
18.09428,53606
18.10362,53287
18.11297,58328
18.12230,60769
18.13163,62033
18.14098,70333
18.15032,69032
18.15967,69195
18.16900,65934
18.17833,62200
18.18768,63834
18.19702,58838
18.20635,56409
18.21570,53412
18.22503,57019
18.23437,57070
18.24372,55035
18.25305,53970
18.26238,49779
18.27173,50978
18.28107,57255
18.29040,69339
18.29975,81008
18.30908,79124
18.31843,81190
18.32777,80689
18.33710,80978
18.34645,86639
18.35578,99269
18.36512,111886
18.37447,109195
18.38380,97576
18.39313,91347
18.40248,96643
18.41182,119897
18.42115,125821
18.43050,103680
18.43983,79108
18.44917,78604
18.45852,85183
18.46785,82574
18.47718,69592
18.48653,65091
18.49587,79847
18.50522,107597
18.51455,147902
18.52388,158424
18.53323,135622
18.54257,101043
18.55190,87896
18.56125,91692
18.57058,92407
18.57992,78788
18.58927,67568
18.59860,60736
18.60793,65430
18.61728,78451
18.62662,93258
18.63595,96273
18.64530,87489
18.65463,81979
18.66397,78635
18.67332,82509
18.68265,94632
18.69200,93890
18.70133,87587
18.71067,93856
18.72002,101246
18.72935,105592
18.73868,98376
18.74803,86271
18.75737,75114
18.76670,67470
18.77605,58395
18.78538,57159
18.79472,54724
18.80407,57436
18.81340,61809
18.82273,64879
18.83208,66873
18.84142,65207
18.85075,61738
18.86010,61719
18.86943,61891
18.87878,57733
18.88812,58099
18.89745,57210
18.90680,66535
18.91613,80988
18.92547,100063
18.93482,99593
18.94415,80558
18.95348,83665
18.96283,96369
18.97217,105012
18.98150,95650
18.99085,85706
19.00018,71571
19.00952,68950
19.01887,68180
19.02820,65631
19.03755,65850
19.04688,82702
19.05622,126893
19.06557,196962
19.07490,288517
19.08423,453436
19.09358,575608
19.10292,499621
19.11225,284467
19.12160,136067
19.13093,78012
19.14027,63219
19.14962,55971
19.15895,56972
19.16828,52295
19.17763,53141
19.18697,56864
19.19630,64544
19.20565,75253
19.21498,80994
19.22433,81216
19.23367,79319
19.24300,74180
19.25235,67900
19.26168,60479
19.27102,59618
19.28037,61230
19.28970,73093
19.29903,84597
19.30838,109008
19.31772,154461
19.32705,187095
19.33640,154438
19.34573,106592
19.35507,79910
19.36442,65747
19.37375,57738
19.38308,55923
19.39243,61411
19.40177,70090
19.41112,88885
19.42045,93543
19.42978,80707
19.43913,64163
19.44847,58359
19.45780,55098
19.46715,55404
19.47648,62453
19.48582,67531
19.49517,77443
19.50450,79819
19.51383,74428
19.52318,64281
19.53252,57116
19.54185,58157
19.55120,58236
19.56053,54504
19.56987,58539
19.57922,63842
19.58855,72853
19.59790,72284
19.60723,70532
19.61657,63405
19.62592,60348
19.63525,66261
19.64458,82960
19.65393,85400
19.66327,74745
19.67260,67534
19.68195,62797
19.69128,72127
19.70062,80589
19.70997,83126
19.71930,89965
19.72863,104788
19.73798,131343
19.74732,146129
19.75665,121965
19.76600,89674
19.77533,76421
19.78468,78118
19.79402,77283
19.80335,76869
19.81270,68875
19.82203,63659
19.83137,62440
19.84072,63642
19.85005,57323
19.85938,59188
19.86873,63104
19.87807,85558
19.88740,115769
19.89675,119856
19.90608,98426
19.91542,77930
19.92477,72301
19.93410,66189
19.94343,64902
19.95278,60732
19.96212,62340
19.97147,65823
19.98080,65435
19.99013,63282
19.99948,58403
20.00882,54725
20.01815,59507
20.02750,63304
20.03683,66278
20.04617,67152
20.05552,68473
20.06485,66168
20.07418,64127
20.08353,66696
20.09287,70059
20.10220,69036
20.11155,61271
20.12088,54226
20.13023,50647
20.13957,52999
20.14890,57926
20.15825,69717
20.16758,84007
20.17692,82477
20.18627,69005
20.19560,61167
20.20493,56424
20.21428,58423
20.22362,60261
20.23295,64784
20.24230,61399
20.25163,61770
20.26097,59163
20.27032,54613
20.27965,55785
20.28898,59853
20.29833,63671
20.30767,64470
20.31702,65185
20.32635,57650
20.33568,52062
20.34503,49293
20.35437,53120
20.36370,55251
20.37305,58472
20.38238,59023
20.39172,56650
20.40107,54697
20.41040,52723
20.41973,50687
20.42908,51075
20.43842,54466
20.44775,55903
20.45710,55926
20.46643,58220
20.47577,75368
20.48512,87867
20.49445,80749
20.50380,68487
20.51313,58867
20.52247,56684
20.53182,55413
20.54115,54410
20.55048,58658
20.55983,68154
20.56917,122253
20.57850,285389
20.58785,503836
20.59718,483503
20.60652,292542
20.61587,121026
20.62520,77824
20.63453,91559
20.64388,145394
20.65322,215580
20.66255,230986
20.67190,163543
20.68123,107752
20.69058,86183
20.69992,73309
20.70925,68443
20.71860,68790
20.72793,66197
20.73727,64639
20.74662,66525
20.75595,64719
20.76528,63210
20.77463,62444
20.78397,59683
20.79330,65069
20.80265,68394
20.81198,71307
20.82132,69766
20.83067,63357
20.84000,60592
20.84935,57412
20.85868,56148
20.86802,54599
20.87737,55538
20.88670,55598
20.89603,62283
20.90538,58724
20.91472,62327
20.92405,63375
20.93340,60355
20.94273,55438
20.95207,52676
20.96142,53440
20.97075,51671
20.98008,53390
20.98943,53536
20.99877,52478
21.00810,53524
21.01745,53489
21.02678,52510
21.03613,49591
21.04547,51536
21.05480,50469
21.06415,55010
21.07348,54567
21.08282,54215
21.09217,53231
21.10150,55042
21.11083,58684
21.12018,61764
21.12952,61942
21.13885,62946
21.14820,58467
21.15753,60348
21.16687,62800
21.17622,66172
21.18555,72663
21.19488,78363
21.20423,74061
21.21357,64910
21.22292,60958
21.23225,57486
21.24158,56400
21.25093,54693
21.26027,57755
21.26960,56933
21.27895,67168
21.28828,79499
21.29762,90720
21.30697,89947
21.31630,74432
21.32563,63747
21.33498,58588
21.34432,55113
21.35365,55578
21.36300,57035
21.37233,57588
21.38167,58083
21.39102,58939
21.40035,60645
21.40970,65524
21.41903,69730
21.42837,70129
21.43772,68950
21.44705,66793
21.45638,63543
21.46573,62166
21.47507,59488
21.48440,64085
21.49375,73621
21.50308,75678
21.51242,78775
21.52177,78142
21.53110,68073
21.54043,63945
21.54978,63173
21.55912,71619
21.56845,96416
21.57780,138474
21.58713,166781
21.59648,142940
21.60582,100353
21.61515,76211
21.62450,73836
21.63383,74087
21.64317,74850
21.65252,69121
21.66185,64477
21.67118,63071
21.68053,73774
21.68987,86647
21.69920,96191
21.70855,95713
21.71788,87131
21.72722,82346
21.73657,79266
21.74590,73203
21.75523,65293
21.76458,60255
21.77392,58649
21.78327,58067
21.79260,59414
21.80193,59843
21.81128,67434
21.82062,74174
21.82995,78664
21.83930,76090
21.84863,72886
21.85797,66963
21.86732,63246
21.87665,66514
21.88598,71560
21.89533,82384
21.90467,89289
21.91400,84192
21.92335,72755
21.93268,65963
21.94203,62827
21.95137,62619
21.96070,62416
21.97005,67279
21.97938,78342
21.98872,98142
21.99807,111548
22.00740,112584
22.01673,93416
22.02608,76012
22.03542,68246
22.04475,71399
22.05410,79712
22.06343,79764
22.07277,79339
22.08212,77079
22.09145,74543
22.10078,72187
22.11013,66467
22.11947,66843
22.12882,65821
22.13815,65053
22.14748,62442
22.15683,71766
22.16617,81003
22.17550,103016
22.18485,110283
22.19418,99795
22.20352,84701
22.21287,74411
22.22220,75577
22.23153,83324
22.24088,85326
22.25022,82711
22.25955,77631
22.26890,74186
22.27823,79353
22.28757,94477
22.29692,108839
22.30625,112185
22.31560,101521
22.32493,83902
22.33427,69935
22.34362,67798
22.35295,71722
22.36228,80963
22.37163,87872
22.38097,88708
22.39030,87895
22.39965,81241
22.40898,75566
22.41832,70425
22.42767,73762
22.43700,78253
22.44633,83866
22.45568,80451
22.46502,77635
22.47437,78264
22.48370,74464
22.49303,73502
22.50238,67313
22.51172,68567
22.52105,70093
22.53040,68215
22.53973,68325
22.54907,68933
22.55842,68842
22.56775,72140
22.57708,77162
22.58643,85812
22.59577,89109
22.60510,88663
22.61445,87232
22.62378,85886
22.63312,83893
22.64247,85014
22.65180,74664
22.66115,68017
22.67048,65861
22.67982,69691
22.68917,78000
22.69850,86278
22.70783,91667
22.71718,83818
22.72652,77063
22.73585,82792
22.74520,92110
22.75453,96839
22.76387,97541
22.77322,90289
22.78255,87460
22.79188,80308
22.80123,81766
22.81057,89459
22.81990,93719
22.82925,88624
22.83858,84523
22.84793,83298
22.85727,81188
22.86660,76474
22.87595,75987
22.88528,79408
22.89462,76463
22.90397,78642
22.91330,77719
22.92263,79923
22.93198,87332
22.94132,83710
22.95065,81176
22.96000,76088
22.96933,78799
22.97867,70863
22.98802,66052
22.99735,65371
23.00668,66922
23.01603,66695
23.02537,65342
23.03472,64240
23.04405,68179
23.05338,67024
23.06273,64446
23.07207,65697
23.08140,65295
23.09075,64678
23.10008,66877
23.10942,62090
23.11877,61785
23.12810,59953
23.13743,59448
23.14678,60651
23.15612,61992
23.16545,65078
23.17480,62756
23.18413,62614
23.19347,62326
23.20282,61502
23.21215,64426
23.22150,62654
23.23083,62490
23.24017,65967
23.24952,71428
23.25885,76569
23.26818,80426
23.27753,80806
23.28687,78748
23.29620,73085
23.30555,69324
23.31488,69367
23.32422,72185
23.33357,81449
23.34290,101886
23.35223,109551
23.36158,94709
23.37092,75556
23.38025,68672
23.38960,67520
23.39893,70343
23.40828,70472
23.41762,70061
23.42695,67936
23.43630,66559
23.44563,68278
23.45497,68454
23.46432,69802
23.47365,68048
23.48298,69726
23.49233,68200
23.50167,65536
23.51100,65298
23.52035,68398
23.52968,69961
23.53902,71420
23.54837,70185
23.55770,65691
23.56705,64293
23.57638,64418
23.58572,68135
23.59507,67757
23.60440,69133
23.61373,69277
23.62308,66414
23.63242,64834
23.64175,61974
23.65110,61481
23.66043,60221
23.66977,63748
23.67912,63908
23.68845,65898
23.69778,70610
23.70713,75465
23.71647,75357
23.72580,76821
23.73515,84448
23.74448,93065
23.75383,91065
23.76317,77031
23.77250,71972
23.78185,69976
23.79118,68858
23.80052,65771
23.80987,64280
23.81920,63229
23.82853,66281
23.83788,62669
23.84722,61925
23.85655,63369
23.86590,68487
23.87523,70183
23.88457,66623
23.89392,62669
23.90325,65168
23.91258,67212
23.92193,61758
23.93127,66457
23.94062,64051
23.94995,64005
23.95928,62994
23.96863,60194
23.97797,60896
23.98730,62450
23.99665,61016
24.00598,61498
24.01532,64878
24.02467,63769
24.03400,64871
24.04333,66379
24.05268,61546
24.06202,62239
24.07135,61128
24.08070,63569
24.09003,64657
24.09937,70779
24.10872,67713
24.11805,64434
24.12740,65156
24.13673,64440
24.14607,65651
24.15542,66587
24.16475,68579
24.17408,65364
24.18343,64254
24.19277,62521
24.20210,64550
24.21145,63939
24.22078,62355
24.23012,64575
24.23947,67521
24.24880,67016
24.25813,68609
24.26748,68043
24.27682,69021
24.28617,67838
24.29550,68484
24.30483,66510
24.31418,69853
24.32352,75786
24.33285,79870
24.34220,81543
24.35153,78158
24.36087,72651
24.37022,68857
24.37955,68439
24.38888,71345
24.39823,70955
24.40757,71350
24.41690,69445
24.42625,72423
24.43558,68965
24.44492,69283
24.45427,67717
24.46360,68134
24.47295,67005
24.48228,66423
24.49162,66981
24.50097,66367
24.51030,67480
24.51963,67930
24.52898,69558
24.53832,68017
24.54765,69452
24.55700,72152
24.56633,68974
24.57567,71154
24.58502,68170
24.59435,68003
24.60368,68821
24.61303,73753
24.62237,77023
24.63170,78056
24.64105,76559
24.65038,69390
24.65973,71210
24.66907,70211
24.67840,70289
24.68775,70523
24.69708,71408
24.70642,72179
24.71577,75196
24.72510,75555
24.73443,73012
24.74378,75645
24.75312,71151
24.76245,71180
24.77180,69132
24.78113,70474
24.79047,70297
24.79982,72014
24.80915,70927
24.81848,71401
24.82783,74725
24.83717,73771
24.84652,74238
24.85585,69838
24.86518,69954
24.87453,73138
24.88387,73367
24.89320,72086
24.90255,74196
24.91188,71766
24.92122,71198
24.93057,70623
24.93990,71989
24.94923,72122
24.95858,73803
24.96792,76896
24.97725,77687
24.98660,75440
24.99593,78132
25.00527,72336
25.01462,72983
25.02395,72970
25.03330,70804
25.04263,72370
25.05197,70715
25.06132,72587
25.07065,72023
25.07998,72770
25.08933,69890
25.09867,71310
25.10800,73436
25.11735,73660
25.12668,76814
25.13602,76908
25.14537,78413
25.15470,83262
25.16403,87113
25.17338,85502
25.18272,79810
25.19207,79975
25.20140,78753
25.21073,79279
25.22008,79576
25.22942,78023
25.23875,77300
25.24810,76096
25.25743,76837
25.26677,77592
25.27612,77312
25.28545,77121
25.29478,77790
25.30413,79202
25.31347,77393
25.32280,82174
25.33215,99254
25.34148,118839
25.35082,118722
25.36017,108827
25.36950,95196
25.37885,89158
25.38818,82276
25.39752,83115
25.40687,85126
25.41620,84380
25.42553,81991
25.43488,83463
25.44422,83602
25.45355,83984
25.46290,82246
25.47223,85167
25.48157,90666
25.49092,100847
25.50025,110950
25.50958,106387
25.51893,100236
25.52827,95601
25.53760,92797
25.54695,90541
25.55628,88155
25.56563,87942
25.57497,87042
25.58430,84263
25.59365,85880
25.60298,85510
25.61232,83463
25.62167,86964
25.63100,84535
25.64033,86657
25.64968,91924
25.65902,94715
25.66835,100920
25.67770,92997
25.68703,89596
25.69637,89412
25.70572,85826
25.71505,84958
25.72438,87088
25.73373,88830
25.74307,88069
25.75242,89794
25.76175,89964
25.77108,92660
25.78043,92958
25.78977,91372
25.79910,93339
25.80845,99216
25.81778,101925
25.82712,99975
25.83647,100167
25.84580,98021
25.85513,97557
25.86448,95186
25.87382,95867
25.88315,95837
25.89250,91570
25.90183,91021
25.91117,91509
25.92052,89794
25.92985,87881
25.93920,93522
25.94853,97127
25.95787,100337
25.96722,99542
25.97655,99175
25.98588,95867
25.99523,96568
26.00457,93249
26.01390,95627
26.02325,91005
26.03258,96353
26.04192,96373
26.05127,98534
26.06060,101872
26.06993,99936
26.07928,99480
26.08862,96538
26.09797,96022
26.10730,95663
26.11663,96042
26.12598,96498
26.13532,95272
26.14465,98310
26.15400,97091
26.16333,100973
26.17267,99485
26.18202,102300
26.19135,100924
26.20068,94484
26.21003,94037
26.21937,92841
26.22870,95356
26.23805,95884
26.24738,92989
26.25672,95726
26.26607,96751
26.27540,94920
26.28475,93425
26.29408,97038
26.30342,99136
26.31277,98190
26.32210,99879
26.33143,105149
26.34078,100926
26.35012,101111
26.35945,98745
26.36880,101992
26.37813,102786
26.38747,100136
26.39682,102670
26.40615,99745
26.41548,98062
26.42483,99036
26.43417,98886
26.44350,103088
26.45285,105928
26.46218,109442
26.47153,113708
26.48087,110489
26.49020,109346
26.49955,108916
26.50888,110770
26.51822,110763
26.52757,114456
26.53690,120415
26.54623,123391
26.55558,126681
26.56492,125455
26.57425,119270
26.58360,115114
26.59293,116832
26.60227,116725
26.61162,118097
26.62095,117076
26.63028,116754
26.63963,117559
26.64897,111878
26.65832,109402
26.66765,111792
26.67698,112177
26.68633,115049
26.69567,116387
26.70500,114283
26.71435,110863
26.72368,110115
26.73302,111841
26.74237,111613
26.75170,113967
26.76103,116800
26.77038,112615
26.77972,112022
26.78905,114293
26.79840,115866
26.80773,115833
26.81707,116952
26.82642,116899
26.83575,120878
26.84510,119903
26.85443,118087
26.86377,123650
26.87312,125590
26.88245,122265
26.89178,120703
26.90113,121660
26.91047,117470
26.91980,115975
26.92915,121081
26.93848,120760
26.94782,115555
26.95717,115436
26.96650,116624
26.97583,118280
26.98518,117569
26.99452,122496
27.00387,123050
27.01320,120358
27.02253,130445
27.03188,123509
27.04122,124300
27.05055,125861
27.05990,124706
27.06923,127541
27.07857,127341
27.08792,123603
27.09725,124586
27.10658,121961
27.11593,126529
27.12527,126295
27.13460,127531
27.14395,125920
27.15328,130631
27.16262,132469
27.17197,130683
27.18130,129868
27.19065,130719
27.19998,131731
27.20932,130371
27.21867,131213
27.22800,133411
27.23733,134942
27.24668,137859
27.25602,147437
27.26535,152520
27.27470,157904
27.28403,152736
27.29337,145023
27.30272,143635
27.31205,144342
27.32138,146697
27.33073,147762
27.34007,148371
27.34940,148394
27.35875,148547
27.36808,149208
27.37743,147793
27.38677,149279
27.39610,149393
27.40545,151805
27.41478,146603
27.42412,151324
27.43347,148424
27.44280,154179
27.45213,154487
27.46148,151431
27.47082,144643
27.48015,147061
27.48950,146260
27.49883,149886
27.50817,148821
27.51752,149666
27.52685,151152
27.53618,153789
27.54553,153435
27.55487,150953
27.56422,155466
27.57355,147848
27.58288,150476
27.59223,145492
27.60157,150108
27.61090,145972
27.62025,144118
27.62958,146474
27.63892,148138
27.64827,150553
27.65760,149161
27.66693,150792
27.67628,156421
27.68562,160446
27.69495,160714
27.70430,163804
27.71363,155095
27.72298,158423
27.73232,154022
27.74165,154948
27.75100,150654
27.76033,153727
27.76967,151268
27.77902,151549
27.78835,151572
27.79768,155219
27.80703,151421
27.81637,151316
27.82570,156465
27.83505,156190
27.84438,151634
27.85372,151319
27.86307,154317
27.87240,155391
27.88173,151173
27.89108,152935
27.90042,153873
27.90977,156900
27.91910,158599
27.92843,158413
27.93778,153571
27.94712,161042
27.95645,159534
27.96580,159497
27.97513,159972
27.98447,159349
27.99382,163908
28.00315,160322
28.01248,161433
28.02183,158124
28.03117,159174
28.04050,163875
28.04985,164586
28.05918,165080
28.06852,168565
28.07787,162994
28.08720,167544
28.09655,164956
28.10588,164510
28.11522,164954
28.12457,167782
28.13390,175244
28.14323,174437
28.15258,171534
28.16192,170832
28.17125,173276
28.18060,172324
28.18993,173523
28.19927,174386
28.20862,170508
28.21795,175749
28.22728,171147
28.23663,177211
28.24597,173782
28.25530,172575
28.26465,171877
28.27398,172589
28.28333,177840
28.29267,177740
28.30200,172996
28.31135,176727
28.32068,177791
28.33002,176921
28.33937,178294
28.34870,180591
28.35803,178652
28.36738,185201
28.37672,181112
28.38605,178913
28.39540,181881
28.40473,178951
28.41407,182666
28.42342,182046
28.43275,184458
28.44208,183386
28.45143,187409
28.46077,186361
28.47012,189168
28.47945,189869
28.48878,190588
28.49813,195877
28.50747,192436
28.51680,197912
28.52615,193386
28.53548,200144
28.54482,196767
28.55417,201797
28.56350,200776
28.57283,206882
28.58218,209778
28.59152,212106
28.60085,212086
28.61020,215403
28.61953,218644
28.62887,222774
28.63822,223865
28.64755,219578
28.65690,225613
28.66623,236516
28.67557,281913
28.68492,361243
28.69425,408994
28.70358,364643
28.71293,297661
28.72227,249091
28.73160,232500
28.74095,225661
28.75028,221753
28.75962,224674
28.76897,222176
28.77830,220643
28.78763,218244
28.79698,216536
28.80632,218976
28.81567,220954
28.82500,224958
28.83433,222548
28.84368,222203
28.85302,221252
28.86235,226223
28.87170,226564
28.88103,221371
28.89037,226962
28.89972,225623
28.90905,225114
28.91838,227497
28.92773,224963
28.93707,224177
28.94640,223945
28.95575,229977
28.96508,229607
28.97442,230743
28.98377,226841
28.99310,228928
29.00245,228467
29.01178,231636
29.02112,231079
29.03047,234461
29.03980,234450
29.04913,239356
29.05848,240401
29.06782,242074
29.07715,235842
29.08650,233176
29.09583,235269
29.10517,235006
29.11452,235568
29.12385,232992
29.13318,235976
29.14253,235765
29.15187,231682
29.16120,231289
29.17055,227349
29.17988,232541
29.18923,234012
29.19857,241593
29.20790,243001
29.21725,248948
29.22658,244650
29.23592,240700
29.24527,236377
29.25460,235306
29.26393,235583
29.27328,233625
29.28262,231505
29.29195,233480
29.30130,235926
29.31063,235028
29.31997,235847
29.32932,235634
29.33865,237962
29.34798,241912
29.35733,239862
29.36667,239053
29.37602,239024
29.38535,240565
29.39468,240676
29.40403,244903
29.41337,243407
29.42270,246980
29.43205,248840
29.44138,253988
29.45072,256228
29.46007,256788
29.46940,263876
29.47873,273322
29.48808,276495
29.49742,265299
29.50675,255848
29.51610,247711
29.52543,252945
29.53478,246361
29.54412,243421
29.55345,248009
29.56280,249007
29.57213,248056
29.58147,248172
29.59082,245442
29.60015,248105
29.60948,250308
29.61883,251219
29.62817,248438
29.63750,249641
29.64685,246987
29.65618,253503
29.66552,249368
29.67487,254123
29.68420,244282
29.69353,249415
29.70288,248767
29.71222,249776
29.72157,249494
29.73090,253583
29.74023,254953
29.74958,256357
29.75892,255098
29.76825,255738
29.77760,257212
29.78693,249504
29.79627,252753
29.80562,247276
29.81495,251659
29.82428,243644
29.83363,249608
29.84297,252860
29.85230,248993
29.86165,250137
29.87098,243498
29.88032,246562
29.88967,245474
29.89900,249449
29.90835,249454
29.91768,249860
29.92702,255903
29.93637,250647
29.94570,252328
29.95503,258032
29.96438,255652
29.97372,258651
29.98305,258294
29.99240,268295
30.00173,266144
30.01107,267183
30.02042,259539
30.02975,249455
30.03908,255158
30.04843,257410
30.05777,258482
30.06710,255547
30.07645,253713
30.08578,245026
30.09513,249263
30.10447,254387
30.11380,248545
30.12315,253698
30.13248,254198
30.14182,255375
30.15117,258033
30.16050,261286
30.16983,260630
30.17918,265532
30.18852,261271
30.19785,262116
30.20720,262890
30.21653,256741
30.22587,263884
30.23522,256297
30.24455,254604
30.25388,259831
30.26323,261475
30.27257,261223
30.28192,257625
30.29125,258814
30.30058,256019
30.30993,262790
30.31927,259940
30.32860,260088
30.33795,257712
30.34728,258451
30.35662,261467
30.36597,254668
30.37530,261945
30.38463,259722
30.39398,259608
30.40332,268675
30.41265,279288
30.42200,285346
30.43133,272822
30.44068,271937
30.45002,261515
30.45935,260421
30.46870,261164
30.47803,255680
30.48737,257515
30.49672,261487
30.50605,264165
30.51538,259148
30.52473,264619
30.53407,263413
30.54340,261737
30.55275,263488
30.56208,263115
30.57142,269763
30.58077,263125
30.59010,264478
30.59943,266263
30.60878,268962
30.61812,269251
30.62747,272227
30.63680,279038
30.64613,279145
30.65548,281756
30.66482,277076
30.67415,285659
30.68350,278627
30.69283,278193
30.70217,278691
30.71152,276362
30.72085,270936
30.73018,268826
30.73953,262814
30.74887,265807
30.75820,263469
30.76755,259701
30.77688,265114
30.78622,263728
30.79557,268147
30.80490,275177
30.81425,274146
30.82358,274173
30.83292,271548
30.84227,271919
30.85160,274642
30.86093,276031
30.87028,271194
30.87962,275717
30.88895,279798
30.89830,279559
30.90763,274244
30.91697,283267
30.92632,278493
30.93565,285111
30.94498,282747
30.95433,280943
30.96367,287426
30.97300,291621
30.98235,290118
30.99168,291447
31.00103,290807
31.01037,291507
31.01970,284236
31.02905,282515
31.03838,282515
31.04772,282766
31.05707,289941
31.06640,281154
31.07573,277141
31.08508,280139
31.09442,278140
31.10375,276292
31.11310,275661
31.12243,273117
31.13177,273683
31.14112,276297
31.15045,271264
31.15980,282036
31.16913,274590
31.17847,283598
31.18782,281423
31.19715,280270
31.20648,283082
31.21583,276618
31.22517,281873
31.23450,285911
31.24385,292371
31.25318,284437
31.26252,285609
31.27187,286489
31.28120,286313
31.29053,285280
31.29988,280259
31.30922,281845
31.31855,280437
31.32790,279309
31.33723,281476
31.34658,285758
31.35592,281160
31.36525,275311
