D:\数据\20211216\ZS1E-TJ-000219.D Thu Dec 16 11:48:00 2021
Start of data points
0.09750,31817
0.10683,33514
0.11618,35619
0.12552,34457
0.13485,34361
0.14420,34144
0.15353,34595
0.16287,34161
0.17222,33412
0.18155,32469
0.19090,32738
0.20023,32863
0.20957,31617
0.21892,31731
0.22825,30862
0.23758,30829
0.24693,30907
0.25627,31025
0.26560,30410
0.27495,29815
0.28428,30163
0.29362,30027
0.30297,30612
0.31230,31030
0.32163,30010
0.33098,30340
0.34032,30988
0.34965,31035
0.35900,29530
0.36833,29677
0.37768,31054
0.38702,30006
0.39635,29329
0.40570,30052
0.41503,30389
0.42437,27128
0.43372,22071
0.44305,20521
0.45238,18542
0.46173,11157
0.47107,8572
0.48040,7785
0.48975,8081
0.49908,7605
0.50842,8068
0.51777,7439
0.52710,7170
0.53643,7010
0.54578,7546
0.55512,7320
0.56447,7294
0.57380,7429
0.58313,7022
0.59248,7605
0.60182,6036
0.61115,6743
0.62050,6907
0.62983,6408
0.63917,6225
0.64852,6616
0.65785,6714
0.66718,6298
0.67653,6902
0.68587,6484
0.69520,6440
0.70455,6980
0.71388,5673
0.72323,6156
0.73257,6220
0.74190,7062
0.75125,6723
0.76058,6654
0.76992,6297
0.77927,6199
0.78860,6086
0.79793,6733
0.80728,5999
0.81662,6663
0.82595,5949
0.83530,6447
0.84463,7018
0.85397,6179
0.86332,6074
0.87265,5552
0.88198,6329
0.89133,5921
0.90067,6927
0.91002,6345
0.91935,5896
0.92868,6125
0.93803,6539
0.94737,5853
0.95670,6154
0.96605,5585
0.97538,5990
0.98472,6320
0.99407,6371
1.00340,6143
1.01273,6142
1.02208,5458
1.03142,6466
1.04075,5842
1.05010,6196
1.05943,6156
1.06877,6214
1.07812,5768
1.08745,5628
1.09680,6209
1.10613,5486
1.11547,5801
1.12482,6378
1.13415,5570
1.14348,5837
1.15283,6076
1.16217,5846
1.17150,6370
1.18085,6275
1.19018,5894
1.19952,6298
1.20887,5273
1.21820,5399
1.22753,5518
1.23688,6377
1.24622,6234
1.25555,5970
1.26490,5504
1.27423,5319
1.28358,5394
1.29292,6016
1.30225,6180
1.31160,5582
1.32093,5984
1.33027,6071
1.33962,6000
1.34895,5861
1.35828,5796
1.36763,5871
1.37697,5572
1.38630,5746
1.39565,5571
1.40498,5598
1.41432,5533
1.42367,5925
1.43300,5795
1.44235,5873
1.45168,5651
1.46102,6081
1.47037,5758
1.47970,5865
1.48903,5876
1.49838,6128
1.50772,6140
1.51705,5518
1.52640,5739
1.53573,5631
1.54507,6228
1.55442,5797
1.56375,5956
1.57308,5937
1.58243,5228
1.59177,7249
1.60110,12184
1.61045,20037
1.61978,27474
1.62913,32775
1.63847,48591
1.64780,71458
1.65715,87927
1.66648,91325
1.67582,78137
1.68517,63694
1.69450,51564
1.70383,40345
1.71318,30660
1.72252,24357
1.73185,24238
1.74120,27802
1.75053,29321
1.75987,33347
1.76922,36178
1.77855,35885
1.78788,36443
1.79723,37640
1.80657,36460
1.81592,37712
1.82525,37917
1.83458,36521
1.84393,36501
1.85327,37731
1.86260,38219
1.87195,45272
1.88128,77028
1.89062,149478
1.89997,239165
1.90930,296616
1.91863,324155
1.92798,479503
1.93732,870728
1.94665,1428278
1.95600,1840266
1.96533,1850284
1.97467,1537034
1.98402,1169354
1.99335,890855
2.00270,752157
2.01203,702463
2.02137,680202
2.03072,592863
2.04005,441456
2.04938,306350
2.05873,224898
2.06807,167154
2.07740,124117
2.08675,101388
2.09608,88786
2.10542,81339
2.11477,84000
2.12410,88303
2.13343,87041
2.14278,91645
2.15212,96738
2.16145,98905
2.17080,93790
2.18013,104385
2.18948,170554
2.19882,256271
2.20815,219620
2.21750,147561
2.22683,128004
2.23617,170141
2.24552,315161
2.25485,1191794
2.26418,2789897
2.27353,2830072
2.28287,2016946
2.29220,1240949
2.30155,966510
2.31088,3407938
2.32022,1.091607E+07
2.32957,1.364426E+07
2.33890,8924188
2.34823,4113863
2.35758,1754205
2.36692,812571
2.37627,460780
2.38560,340996
2.39493,272143
2.40428,219600
2.41362,190932
2.42295,214856
2.43230,296970
2.44163,281429
2.45097,204390
2.46032,157049
2.46965,166797
2.47898,213322
2.48833,207069
2.49767,158957
2.50700,122068
2.51635,98481
2.52568,88887
2.53503,80543
2.54437,81779
2.55370,92077
2.56305,98772
2.57238,122846
2.58172,198324
2.59107,195285
2.60040,172356
2.60973,162919
2.61908,183736
2.62842,205635
2.63775,195107
2.64710,171225
2.65643,156970
2.66577,143929
2.67512,129432
2.68445,105168
2.69378,86131
2.70313,77497
2.71247,82577
2.72182,117835
2.73115,164718
2.74048,194069
2.74983,227400
2.75917,268739
2.76850,311749
2.77785,393512
2.78718,503993
2.79652,567690
2.80587,502995
2.81520,281191
2.82453,217905
2.83388,187937
2.84322,160157
2.85255,149365
2.86190,164173
2.87123,187562
2.88057,221732
2.88992,190974
2.89925,149999
2.90860,122374
2.91793,111075
2.92727,98531
2.93662,89516
2.94595,80147
2.95528,76825
2.96463,71839
2.97397,71757
2.98330,70940
2.99265,72165
3.00198,73925
3.01132,75571
3.02067,79664
3.03000,77051
3.03933,78059
3.04868,113110
3.05802,152114
3.06735,192048
3.07670,209685
3.08603,181384
3.09538,129261
3.10472,89388
3.11405,72510
3.12340,65533
3.13273,67951
3.14207,70821
3.15142,73863
3.16075,81574
3.17008,83298
3.17943,77708
3.18877,69440
3.19810,62365
3.20745,62356
3.21678,60176
3.22612,59502
3.23547,60080
3.24480,56240
3.25415,59641
3.26348,61818
3.27282,60006
3.28217,56844
3.29150,58821
3.30083,63460
3.31018,65816
3.31952,62420
3.32885,56585
3.33820,56842
3.34753,58097
3.35687,57771
3.36622,56904
3.37555,54059
3.38488,49989
3.39423,51204
3.40357,50337
3.41290,61705
3.42225,75683
3.43158,74565
3.44093,69287
3.45027,77736
3.45960,91302
3.46895,85748
3.47828,76790
3.48762,69239
3.49697,68297
3.50630,65178
3.51563,60656
3.52498,59837
3.53432,57060
3.54365,62078
3.55300,110243
3.56233,268122
3.57167,445735
3.58102,443641
3.59035,295289
3.59968,177108
3.60903,236143
3.61837,230419
3.62772,191994
3.63705,163800
3.64638,137366
3.65573,118831
3.66507,109583
3.67440,106997
3.68375,101776
3.69308,92291
3.70242,79439
3.71177,74633
3.72110,85206
3.73043,90681
3.73978,82432
3.74912,72257
3.75845,66967
3.76780,63499
3.77713,57774
3.78647,55592
3.79582,54320
3.80515,55009
3.81450,66269
3.82383,80126
3.83317,76920
3.84252,69161
3.85185,65484
3.86118,64380
3.87053,60544
3.87987,61087
3.88920,72782
3.89855,84493
3.90788,94994
3.91722,89051
3.92657,83269
3.93590,86722
3.94523,111402
3.95458,183987
3.96392,183336
3.97325,138282
3.98260,97675
3.99193,74511
4.00128,67462
4.01062,82104
4.01995,88744
4.02930,175899
4.03863,580585
4.04797,1229191
4.05732,1337352
4.06665,872150
4.07598,462953
4.08533,284713
4.09467,216848
4.10400,172795
4.11335,130054
4.12268,96994
4.13202,74841
4.14137,70434
4.15070,67479
4.16005,65947
4.16938,62322
4.17872,59752
4.18807,56574
4.19740,56927
4.20673,57526
4.21608,58098
4.22542,60280
4.23475,57827
4.24410,57500
4.25343,55737
4.26277,56695
4.27212,61004
4.28145,66375
4.29078,67467
4.30013,71094
4.30947,77247
4.31880,101216
4.32815,134579
4.33748,137341
4.34683,104612
4.35617,79386
4.36550,64901
4.37485,56622
4.38418,56972
4.39352,59366
4.40287,61801
4.41220,57519
4.42153,53663
4.43088,52792
4.44022,49512
4.44955,52566
4.45890,69147
4.46823,111346
4.47757,156003
4.48692,157597
4.49625,117539
4.50558,80663
4.51493,63182
4.52427,57251
4.53362,53954
4.54295,57445
4.55228,61278
4.56163,60629
4.57097,62241
4.58030,59613
4.58965,55135
4.59898,53002
4.60832,52926
4.61767,51018
4.62700,49654
4.63633,51886
4.64568,56366
4.65502,69774
4.66435,71318
4.67370,70749
4.68303,77544
4.69237,127934
4.70172,200213
4.71105,217742
4.72040,152783
4.72973,93264
4.73907,64080
4.74842,56441
4.75775,53034
4.76708,55356
4.77643,60191
4.78577,59428
4.79510,56488
4.80445,57130
4.81378,57533
4.82312,59560
4.83247,58122
4.84180,63269
4.85113,61497
4.86048,59902
4.86982,63971
4.87917,71205
4.88850,72236
4.89783,63277
4.90718,55197
4.91652,51536
4.92585,51091
4.93520,54057
4.94453,61831
4.95387,61339
4.96322,57600
4.97255,53342
4.98188,50232
4.99123,50523
5.00057,69369
5.00990,82451
5.01925,83510
5.02858,83494
5.03792,81773
5.04727,72170
5.05660,67101
5.06595,63083
5.07528,66860
5.08462,71896
5.09397,74948
5.10330,71217
5.11263,62936
5.12198,59708
5.13132,57514
5.14065,55160
5.15000,58415
5.15933,61466
5.16867,60951
5.17802,57636
5.18735,56623
5.19668,65084
5.20603,72821
5.21537,66987
5.22470,60461
5.23405,59699
5.24338,61620
5.25273,62239
5.26207,62445
5.27140,96478
5.28075,224442
5.29008,405965
5.29942,451523
5.30877,314902
5.31810,161965
5.32743,89855
5.33678,69664
5.34612,62180
5.35545,61939
5.36480,61303
5.37413,62150
5.38347,65205
5.39282,71849
5.40215,88038
5.41148,76469
5.42083,66571
5.43017,57944
5.43952,53874
5.44885,54403
5.45818,51395
5.46753,52906
5.47687,51973
5.48620,55461
5.49555,58141
5.50488,58634
5.51422,57309
5.52357,58747
5.53290,66124
5.54223,62716
5.55158,59629
5.56092,52352
5.57025,55865
5.57960,62765
5.58893,66100
5.59827,67107
5.60762,60561
5.61695,53453
5.62630,49796
5.63563,50529
5.64497,53958
5.65432,56720
5.66365,86213
5.67298,97609
5.68233,101692
5.69167,94315
5.70100,87920
5.71035,86724
5.71968,88688
5.72902,84859
5.73837,84984
5.74770,100404
5.75703,132546
5.76638,160970
5.77572,158448
5.78507,126997
5.79440,98812
5.80373,84385
5.81308,78672
5.82242,78200
5.83175,81171
5.84110,87145
5.85043,75898
5.85977,63153
5.86912,55287
5.87845,52984
5.88778,49735
5.89713,48391
5.90647,51398
5.91580,71275
5.92515,99583
5.93448,118626
5.94382,138053
5.95317,164163
5.96250,152235
5.97185,114327
5.98118,84083
5.99052,64575
5.99987,57256
6.00920,52634
6.01853,47111
6.02788,43407
6.03722,39910
6.04655,40357
6.05590,41494
6.06523,40980
6.07457,41561
6.08392,38279
6.09325,34147
6.10258,32658
6.11193,32491
6.12127,36444
6.13060,50957
6.13995,68545
6.14928,65724
6.15863,49345
6.16797,37979
6.17730,33998
6.18665,31458
6.19598,31027
6.20532,29770
6.21467,30838
6.22400,36858
6.23333,44328
6.24268,44720
6.25202,43943
6.26135,40605
6.27070,43193
6.28003,52275
6.28937,55903
6.29872,48942
6.30805,39272
6.31738,33414
6.32673,33613
6.33607,32423
6.34542,33933
6.35475,33899
6.36408,33767
6.37343,34497
6.38277,44620
6.39210,73302
6.40145,231504
6.41078,653744
6.42012,1028141
6.42947,860237
6.43880,420891
6.44813,152567
6.45748,66639
6.46682,50449
6.47615,45250
6.48550,41259
6.49483,36190
6.50417,35424
6.51352,36759
6.52285,37189
6.53220,35636
6.54153,33923
6.55087,30818
6.56022,30968
6.56955,30975
6.57888,33081
6.58823,34151
6.59757,38366
6.60690,38728
6.61625,37464
6.62558,39097
6.63492,41980
6.64427,40548
6.65360,43569
6.66293,44871
6.67228,42339
6.68162,39737
6.69097,45722
6.70030,57310
6.70963,56791
6.71898,53895
6.72832,44790
6.73765,40664
6.74700,37500
6.75633,34028
6.76567,34563
6.77502,34081
6.78435,38662
6.79368,43727
6.80303,44607
6.81237,42145
6.82170,37012
6.83105,35537
6.84038,35383
6.84972,40982
6.85907,42797
6.86840,42565
6.87775,36939
6.88708,32178
6.89642,31903
6.90577,32574
6.91510,34387
6.92443,34715
6.93378,32406
6.94312,32004
6.95245,31900
6.96180,32765
6.97113,34933
6.98047,34852
6.98982,33932
6.99915,31601
7.00848,30729
7.01783,30413
7.02717,28373
7.03650,27667
7.04585,24613
7.05518,23074
7.06453,22701
7.07387,23219
7.08320,25075
7.09255,29237
7.10188,35351
7.11122,42205
7.12057,43821
7.12990,40424
7.13923,35796
7.14858,29577
7.15792,28247
7.16725,28744
7.17660,28382
7.18593,28816
7.19527,29237
7.20462,29552
7.21395,30121
7.22328,36090
7.23263,62062
7.24197,101309
7.25132,116551
7.26065,88372
7.26998,54173
7.27933,41849
7.28867,35217
7.29800,32299
7.30735,30134
7.31668,26719
7.32602,24440
7.33537,25218
7.34470,24969
7.35403,24303
7.36338,25382
7.37272,26293
7.38205,30213
7.39140,54231
7.40073,131123
7.41007,232135
7.41942,258055
7.42875,196752
7.43810,115286
7.44743,60584
7.45677,38279
7.46612,31315
7.47545,32979
7.48478,40879
7.49413,41109
7.50347,36569
7.51280,29973
7.52215,25465
7.53148,24825
7.54082,24515
7.55017,24821
7.55950,26128
7.56883,30656
7.57818,36160
7.58752,37208
7.59687,38050
7.60620,39840
7.61553,42142
7.62488,41933
7.63422,38517
7.64355,36510
7.65290,32354
7.66223,30446
7.67157,31682
7.68092,34002
7.69025,34066
7.69958,33251
7.70893,32321
7.71827,32120
7.72760,29976
7.73695,31609
7.74628,39701
7.75562,43306
7.76497,42717
7.77430,39312
7.78365,38448
7.79298,37216
7.80232,35249
7.81167,30241
7.82100,27756
7.83033,26757
7.83968,30325
7.84902,35785
7.85835,54678
7.86770,94647
7.87703,122280
7.88637,108738
7.89572,77313
7.90505,61871
7.91438,80777
7.92373,115592
7.93307,116758
7.94240,86506
7.95175,94788
7.96108,108638
7.97043,92858
7.97977,68544
7.98910,53182
7.99845,45270
8.00778,41440
8.01712,37992
8.02647,38931
8.03580,45344
8.04513,54567
8.05448,57688
8.06382,47015
8.07315,35868
8.08250,38872
8.09183,63711
8.10117,100483
8.11052,98998
8.11985,69691
8.12918,44179
8.13853,33993
8.14787,34037
8.15722,32744
8.16655,30737
8.17588,31777
8.18523,32008
8.19457,34369
8.20390,33404
8.21325,33286
8.22258,34362
8.23192,35721
8.24127,38956
8.25060,39185
8.25993,37261
8.26928,33637
8.27862,32824
8.28795,30131
8.29730,28800
8.30663,30938
8.31598,33285
8.32532,33035
8.33465,33293
8.34400,33036
8.35333,32333
8.36267,29613
8.37202,27784
8.38135,39021
8.39068,45853
8.40003,50087
8.40937,52280
8.41870,52976
8.42805,52520
8.43738,44842
8.44672,39506
8.45607,35836
8.46540,34022
8.47473,34200
8.48408,34485
8.49342,33876
8.50277,31530
8.51210,31418
8.52143,29877
8.53078,32304
8.54012,34818
8.54945,37583
8.55880,45638
8.56813,47329
8.57747,46581
8.58682,47304
8.59615,45446
8.60548,46291
8.61483,42936
8.62417,41064
8.63350,37993
8.64285,36694
8.65218,34436
8.66152,34771
8.67087,34642
8.68020,33616
8.68955,32149
8.69888,32370
8.70822,32041
8.71757,31036
8.72690,31272
8.73623,29310
8.74558,31379
8.75492,33249
8.76425,35188
8.77360,36755
8.78293,38089
8.79227,45769
8.80162,69343
8.81095,105657
8.82028,119049
8.82963,87124
8.83897,50910
8.84830,36777
8.85765,30839
8.86698,30964
8.87633,33428
8.88567,33975
8.89500,34024
8.90435,31834
8.91368,33783
8.92302,33584
8.93237,32552
8.94170,31745
8.95103,30802
8.96038,30837
8.96972,29934
8.97905,30784
8.98840,30933
8.99773,33455
9.00707,36852
9.01642,37070
9.02575,38208
9.03508,34704
9.04443,31996
9.05377,32408
9.06312,33141
9.07245,35359
9.08178,35207
9.09113,38339
9.10047,37346
9.10980,36375
9.11915,37346
9.12848,39734
9.13782,41793
9.14717,47601
9.15650,43996
9.16583,37462
9.17518,32903
9.18452,32782
9.19385,32656
9.20320,33664
9.21253,40193
9.22187,62398
9.23122,88699
9.24055,94991
9.24990,73946
9.25923,61210
9.26857,53130
9.27792,47974
9.28725,44126
9.29658,44676
9.30593,41415
9.31527,40576
9.32460,41286
9.33395,43886
9.34328,44784
9.35262,53051
9.36197,104835
9.37130,211512
9.38063,297741
9.38998,251653
9.39932,166971
9.40867,107917
9.41800,75252
9.42733,67496
9.43668,64228
9.44602,55517
9.45535,45838
9.46470,36974
9.47403,35720
9.48337,33375
9.49272,34794
9.50205,38608
9.51138,39410
9.52073,40414
9.53007,43712
9.53940,48577
9.54875,52747
9.55808,62819
9.56742,68678
9.57677,64518
9.58610,48214
9.59545,39752
9.60478,38960
9.61412,43054
9.62347,49268
9.63280,49820
9.64213,46705
9.65148,42744
9.66082,41471
9.67015,40705
9.67950,37505
9.68883,38554
9.69817,34694
9.70752,33172
9.71685,40136
9.72618,90971
9.73553,283718
9.74487,647462
9.75420,814067
9.76355,591714
9.77288,314127
9.78223,158817
9.79157,108464
9.80090,86402
9.81025,70460
9.81958,65415
9.82892,68172
9.83827,75377
9.84760,79015
9.85693,70121
9.86628,61494
9.87562,58667
9.88495,71930
9.89430,92626
9.90363,107160
9.91297,103221
9.92232,106844
9.93165,109982
9.94100,101371
9.95033,86836
9.95967,76107
9.96902,76556
9.97835,105513
9.98768,186444
9.99703,246542
10.00637,208107
10.01570,127601
10.02505,73306
10.03438,55219
10.04372,47269
10.05307,48129
10.06240,59618
10.07173,79449
10.08108,89890
10.09042,80655
10.09975,63147
10.10910,63736
10.11843,124752
10.12778,267110
10.13712,370534
10.14645,333829
10.15580,469840
10.16513,980270
10.17447,1254079
10.18382,747933
10.19315,258309
10.20248,81328
10.21183,51415
10.22117,51500
10.23050,61548
10.23985,91447
10.24918,121814
10.25852,109305
10.26787,73954
10.27720,52015
10.28653,45757
10.29588,45262
10.30522,44500
10.31457,45076
10.32390,45726
10.33323,43770
10.34258,42757
10.35192,40854
10.36125,43789
10.37060,42942
10.37993,40682
10.38927,35488
10.39862,35948
10.40795,35930
10.41728,34942
10.42663,37923
10.43597,39493
10.44530,42328
10.45465,46324
10.46398,58819
10.47332,71091
10.48267,64500
10.49200,49590
10.50135,41279
10.51068,38830
10.52002,38008
10.52937,37124
10.53870,39197
10.54803,38158
10.55738,41154
10.56672,41774
10.57605,40934
10.58540,39682
10.59473,38023
10.60407,36704
10.61342,36082
10.62275,40147
10.63208,47359
10.64143,53710
10.65077,49364
10.66010,45489
10.66945,44065
10.67878,51830
10.68813,54980
10.69747,54064
10.70680,48449
10.71615,53190
10.72548,59871
10.73482,56240
10.74417,60985
10.75350,104286
10.76283,189427
10.77218,223898
10.78152,174451
10.79085,143198
10.80020,203455
10.80953,288625
10.81887,270586
10.82822,156169
10.83755,77234
10.84688,50212
10.85623,47134
10.86557,47346
10.87492,57563
10.88425,70937
10.89358,74196
10.90293,63503
10.91227,52103
10.92160,46178
10.93095,47173
10.94028,45966
10.94962,45618
10.95897,45275
10.96830,47187
10.97763,47603
10.98698,44011
10.99632,41037
11.00565,36979
11.01500,41462
11.02433,39353
11.03368,42392
11.04302,42475
11.05235,41253
11.06170,41537
11.07103,43176
11.08037,44215
11.08972,42514
11.09905,45727
11.10838,57770
11.11773,69381
11.12707,68588
11.13640,57254
11.14575,54417
11.15508,52210
11.16442,46695
11.17377,45132
11.18310,42300
11.19243,39990
11.20178,38515
11.21112,37690
11.22047,39395
11.22980,40917
11.23913,40954
11.24848,41068
11.25782,44957
11.26715,53732
11.27650,53300
11.28583,48157
11.29517,41674
11.30452,39831
11.31385,39753
11.32318,43043
11.33253,57005
11.34187,77250
11.35120,87545
11.36055,90537
11.36988,89450
11.37922,77451
11.38857,62243
11.39790,58770
11.40725,65685
11.41658,64312
11.42592,54052
11.43527,45374
11.44460,41338
11.45393,40540
11.46328,45954
11.47262,58140
11.48195,59062
11.49130,50034
11.50063,41614
11.50997,37373
11.51932,38322
11.52865,38065
11.53798,38195
11.54733,43724
11.55667,50401
11.56600,88321
11.57535,146441
11.58468,176829
11.59403,160257
11.60337,115912
11.61270,88602
11.62205,72348
11.63138,60956
11.64072,57372
11.65007,56854
11.65940,61850
11.66873,60520
11.67808,55925
11.68742,49053
11.69675,46137
11.70610,44289
11.71543,45890
11.72477,45388
11.73412,42189
11.74345,41380
11.75280,39890
11.76213,43164
11.77147,45721
11.78082,51873
11.79015,60321
11.79948,58766
11.80883,52504
11.81817,49165
11.82750,52472
11.83685,54376
11.84618,54674
11.85552,52776
11.86487,48391
11.87420,47306
11.88353,46203
11.89288,46978
11.90222,43805
11.91155,41328
11.92090,41090
11.93023,42796
11.93958,52659
11.94892,66965
11.95825,72705
11.96760,61888
11.97693,47386
11.98627,39413
11.99562,41310
12.00495,51600
12.01428,74797
12.02363,88361
12.03297,79120
12.04230,63634
12.05165,57775
12.06098,49646
12.07032,44244
12.07967,38401
12.08900,42045
12.09833,42848
12.10768,47628
12.11702,47766
12.12637,47628
12.13570,46790
12.14503,46015
12.15438,50418
12.16372,61087
12.17305,105005
12.18240,161827
12.19173,147752
12.20107,93000
12.21042,60416
12.21975,51327
12.22908,53160
12.23843,60370
12.24777,55687
12.25710,49923
12.26645,62583
12.27578,114242
12.28512,174526
12.29447,166258
12.30380,95501
12.31315,63835
12.32248,56314
12.33182,54402
12.34117,55777
12.35050,50357
12.35983,49766
12.36918,46498
12.37852,50483
12.38785,55739
12.39720,61654
12.40653,56798
12.41587,53091
12.42522,50009
12.43455,48383
12.44388,43707
12.45323,44251
12.46257,48043
12.47190,50079
12.48125,53662
12.49058,54381
12.49993,57101
12.50927,58415
12.51860,58826
12.52795,60147
12.53728,58855
12.54662,58288
12.55597,61574
12.56530,65230
12.57463,64690
12.58398,60123
12.59332,50364
12.60265,47941
12.61200,50235
12.62133,56775
12.63067,69415
12.64002,90877
12.64935,100960
12.65868,94459
12.66803,78475
12.67737,63622
12.68672,51627
12.69605,45627
12.70538,42826
12.71473,46659
12.72407,50657
12.73340,50269
12.74275,46988
12.75208,47910
12.76142,48462
12.77077,46804
12.78010,43077
12.78943,43521
12.79878,45164
12.80812,46413
12.81745,48028
12.82680,48442
12.83613,50932
12.84548,48294
12.85482,42541
12.86415,42633
12.87350,39887
12.88283,40959
12.89217,45871
12.90152,47278
12.91085,47806
12.92018,46325
12.92953,41802
12.93887,40370
12.94820,44733
12.95755,49150
12.96688,49080
12.97622,45611
12.98557,42977
12.99490,45494
13.00423,50069
13.01358,49293
13.02292,54933
13.03227,62767
13.04160,70949
13.05093,62271
13.06028,55095
13.06962,58857
13.07895,62500
13.08830,58081
13.09763,55078
13.10697,49246
13.11632,48251
13.12565,50467
13.13498,55589
13.14433,62280
13.15367,64625
13.16300,66273
13.17235,67510
13.18168,64806
13.19102,73853
13.20037,159099
13.20970,375631
13.21905,554220
13.22838,459495
13.23772,246450
13.24707,146013
13.25640,131684
13.26573,112979
13.27508,98340
13.28442,94219
13.29375,90946
13.30310,80438
13.31243,75645
13.32177,75340
13.33112,76672
13.34045,73115
13.34978,70898
13.35913,68657
13.36847,61002
13.37780,54164
13.38715,55766
13.39648,63930
13.40583,71659
13.41517,66446
13.42450,58059
13.43385,59792
13.44318,71239
13.45252,74945
13.46187,66868
13.47120,63510
13.48053,62781
13.48988,62261
13.49922,54610
13.50855,55811
13.51790,82830
13.52723,138612
13.53657,171822
13.54592,138100
13.55525,83533
13.56460,58902
13.57393,51624
13.58327,46939
13.59262,43262
13.60195,45431
13.61128,42797
13.62063,43013
13.62997,44544
13.63930,45701
13.64865,50900
13.65798,52955
13.66732,53897
13.67667,47567
13.68600,45807
13.69533,43222
13.70468,41952
13.71402,43093
13.72335,40670
13.73270,40172
13.74203,41303
13.75138,42055
13.76072,44438
13.77005,51393
13.77940,52560
13.78873,53854
13.79807,60464
13.80742,67074
13.81675,71451
13.82608,63465
13.83543,58615
13.84477,56014
13.85410,56011
13.86345,60843
13.87278,66456
13.88212,70708
13.89147,82653
13.90080,109085
13.91013,168009
13.91948,241567
13.92882,242202
13.93817,167563
13.94750,96207
13.95683,75052
13.96618,73139
13.97552,67413
13.98485,60297
13.99420,59628
14.00353,59794
14.01287,57631
14.02222,52566
14.03155,53274
14.04088,75225
14.05023,305528
14.05957,1521151
14.06890,4417152
14.07825,6483508
14.08758,4977323
14.09692,1850527
14.10627,356820
14.11560,91575
14.12495,64791
14.13428,59290
14.14362,56555
14.15297,57201
14.16230,61474
14.17163,63916
14.18098,72098
14.19032,92206
14.19965,129851
14.20900,121582
14.21833,85865
14.22767,55892
14.23702,45639
14.24635,42646
14.25568,45066
14.26503,45351
14.27437,49664
14.28370,48675
14.29305,47073
14.30238,43800
14.31173,47924
14.32107,60581
14.33040,75419
14.33975,81423
14.34908,74788
14.35842,62545
14.36777,52574
14.37710,47990
14.38643,45571
14.39578,47004
14.40512,46485
14.41445,45757
14.42380,43224
14.43313,42587
14.44247,45917
14.45182,57980
14.46115,78793
14.47050,93102
14.47983,86442
14.48917,69841
14.49852,55866
14.50785,49635
14.51718,43544
14.52653,40569
14.53587,41834
14.54520,45661
14.55455,48660
14.56388,51297
14.57322,52399
14.58257,51671
14.59190,50752
14.60123,48005
14.61058,43377
14.61992,44499
14.62925,47715
14.63860,58699
14.64793,81755
14.65728,98534
14.66662,103474
14.67595,89765
14.68530,71032
14.69463,59842
14.70397,54635
14.71332,50344
14.72265,50137
14.73198,51653
14.74133,52624
14.75067,53250
14.76000,54028
14.76935,56284
14.77868,59950
14.78802,57686
14.79737,57738
14.80670,54114
14.81603,50360
14.82538,51319
14.83472,51395
14.84407,47862
14.85340,46676
14.86273,52998
14.87208,65694
14.88142,75082
14.89075,71521
14.90010,60559
14.90943,51827
14.91877,50641
14.92812,50478
14.93745,50326
14.94678,51339
14.95613,51911
14.96547,55621
14.97480,58162
14.98415,58770
14.99348,54688
15.00282,53154
15.01217,60745
15.02150,65199
15.03085,59318
15.04018,55878
15.04952,58994
15.05887,64467
15.06820,63694
15.07753,62766
15.08688,56080
15.09622,50314
15.10555,48480
15.11490,51144
15.12423,59927
15.13357,73259
15.14292,77124
15.15225,64697
15.16158,55870
15.17093,51325
15.18027,51085
15.18962,57782
15.19895,68038
15.20828,92901
15.21763,117191
15.22697,125004
15.23630,103088
15.24565,77363
15.25498,60138
15.26432,53747
15.27367,50686
15.28300,51521
15.29233,53605
15.30168,50770
15.31102,48830
15.32035,50469
15.32970,59687
15.33903,66861
15.34837,69305
15.35772,64374
15.36705,67914
15.37640,75005
15.38573,73616
15.39507,59152
15.40442,48878
15.41375,47991
15.42308,51612
15.43243,55183
15.44177,54135
15.45110,50790
15.46045,48356
15.46978,45977
15.47912,48075
15.48847,51156
15.49780,51915
15.50713,59431
15.51648,79958
15.52582,96728
15.53515,89409
15.54450,70907
15.55383,56526
15.56318,49589
15.57252,47464
15.58185,47926
15.59120,46022
15.60053,45733
15.60987,46521
15.61922,49960
15.62855,57173
15.63788,66912
15.64723,75014
15.65657,77130
15.66590,80209
15.67525,76837
15.68458,71366
15.69392,73666
15.70327,89197
15.71260,106537
15.72193,98595
15.73128,75065
15.74062,64012
15.74997,70726
15.75930,79549
15.76863,80733
15.77798,75646
15.78732,65282
15.79665,60828
15.80600,67667
15.81533,94111
15.82467,155030
15.83402,246318
15.84335,322930
15.85268,313462
15.86203,209329
15.87137,117848
15.88070,86830
15.89005,87897
15.89938,96200
15.90872,97679
15.91807,86605
15.92740,75486
15.93675,64054
15.94608,57307
15.95542,55540
15.96477,54633
15.97410,61940
15.98343,77142
15.99278,103212
16.00212,109841
16.01145,95625
16.02080,72120
16.03013,61004
16.03947,60447
16.04882,63310
16.05815,64364
16.06748,67258
16.07683,65643
16.08617,60046
16.09550,62506
16.10485,65760
16.11418,69953
16.12353,76472
16.13287,80547
16.14220,73828
16.15155,68631
16.16088,66288
16.17022,64409
16.17957,61518
16.18890,60778
16.19823,68367
16.20758,73154
16.21692,75380
16.22625,80095
16.23560,84327
16.24493,82850
16.25427,76633
16.26362,72161
16.27295,73871
16.28230,93039
16.29163,156068
16.30097,247876
16.31032,268566
16.31965,187125
16.32898,107816
16.33833,73168
16.34767,60295
16.35700,52447
16.36635,47868
16.37568,51170
16.38502,53221
16.39437,54086
16.40370,55526
16.41303,58442
16.42238,61392
16.43172,60774
16.44105,59811
16.45040,65785
16.45973,71842
16.46908,72588
16.47842,67593
16.48775,61388
16.49710,59034
16.50643,59814
16.51577,66017
16.52512,70145
16.53445,68644
16.54378,66730
16.55313,60848
16.56247,57996
16.57180,55334
16.58115,58033
16.59048,59004
16.59982,56182
16.60917,53514
16.61850,59348
16.62783,65149
16.63718,73104
16.64652,77290
16.65587,70903
16.66520,65714
16.67453,60532
16.68388,62139
16.69322,73449
16.70255,90375
16.71190,88977
16.72123,71552
16.73057,63152
16.73992,77491
16.74925,127871
16.75858,169218
16.76793,154027
16.77727,95963
16.78660,69624
16.79595,61027
16.80528,64873
16.81462,71558
16.82397,81017
16.83330,93447
16.84265,96150
16.85198,89165
16.86132,76377
16.87067,66294
16.88000,59886
16.88933,58980
16.89868,64668
16.90802,76010
16.91735,99166
16.92670,107787
16.93603,94643
16.94537,83668
16.95472,84198
16.96405,89821
16.97338,87440
16.98273,78733
16.99207,70451
17.00142,62551
17.01075,59540
17.02008,66489
17.02943,99538
17.03877,146173
17.04810,144204
17.05745,103651
17.06678,77082
17.07612,70676
17.08547,66224
17.09480,60955
17.10413,62091
17.11348,55218
17.12282,56300
17.13215,59595
17.14150,63258
17.15083,64528
17.16017,58569
17.16952,53248
17.17885,57820
17.18820,58475
17.19753,56942
17.20687,57568
17.21622,54949
17.22555,53175
17.23488,54515
17.24423,54105
17.25357,58123
17.26290,61559
17.27225,64264
17.28158,68276
17.29092,68937
17.30027,69161
17.30960,63222
17.31893,62246
17.32828,65424
17.33762,63436
17.34695,58061
17.35630,56899
17.36563,57697
17.37498,76040
17.38432,124034
17.39365,172416
17.40300,160072
17.41233,118766
17.42167,89184
17.43102,76044
17.44035,70452
17.44968,68967
17.45903,68598
17.46837,67892
17.47770,68707
17.48705,84229
17.49638,264866
17.50572,991327
17.51507,2212231
17.52440,2528439
17.53373,1501232
17.54308,471385
17.55242,134376
17.56177,76930
17.57110,77520
17.58043,83539
17.58978,84246
17.59912,78848
17.60845,68286
17.61780,60634
17.62713,62357
17.63647,64840
17.64582,65387
17.65515,67730
17.66448,78464
17.67383,94360
17.68317,108104
17.69250,114829
17.70185,120901
17.71118,138111
17.72052,165845
17.72987,172151
17.73920,130038
17.74855,91451
17.75788,85001
17.76722,95583
17.77657,105696
17.78590,99932
17.79523,86837
17.80458,74734
17.81392,67897
17.82325,66066
17.83260,64708
17.84193,66044
17.85127,69004
17.86062,84632
17.86995,93269
17.87928,94038
17.88863,86544
17.89797,75723
17.90732,64507
17.91665,61443
17.92598,61657
17.93533,65229
17.94467,62971
17.95400,64992
17.96335,65690
17.97268,70200
17.98202,69934
17.99137,64375
18.00070,58335
18.01003,57544
18.01938,59128
18.02872,59187
18.03805,64209
18.04740,72417
18.05673,83302
18.06607,89691
18.07542,77507
18.08475,62406
18.09410,60195
18.10343,67914
18.11277,76917
18.12212,84286
18.13145,80623
18.14078,74638
18.15013,71447
18.15947,69027
18.16880,71484
18.17815,69921
18.18748,68074
18.19682,61651
18.20617,59414
18.21550,58593
18.22483,58404
18.23418,62368
18.24352,62401
18.25285,64520
18.26220,68429
18.27153,75590
18.28088,89939
18.29022,101387
18.29955,108239
18.30890,117038
18.31823,115390
18.32757,100564
18.33692,88361
18.34625,97793
18.35558,113045
18.36493,121512
18.37427,113451
18.38360,97882
18.39295,93619
18.40228,89562
18.41162,89205
18.42097,87319
18.43030,80573
18.43963,93545
18.44898,112811
18.45832,107557
18.46767,89022
18.47700,72707
18.48633,73320
18.49568,85553
18.50502,108766
18.51435,128552
18.52370,144261
18.53303,131967
18.54237,100749
18.55172,86753
18.56105,86935
18.57038,86627
18.57973,79022
18.58907,72970
18.59840,69302
18.60775,73502
18.61708,78503
18.62642,85671
18.63577,94936
18.64510,112722
18.65445,104651
18.66378,86091
18.67312,77470
18.68247,77207
18.69180,81661
18.70113,84026
18.71048,82703
18.71982,85417
18.72915,87767
18.73850,89170
18.74783,82491
18.75717,75965
18.76652,70164
18.77585,61917
18.78518,59204
18.79453,61200
18.80387,61373
18.81322,60709
18.82255,62088
18.83188,63619
18.84123,62775
18.85057,60370
18.85990,57380
18.86925,56969
18.87858,55464
18.88792,55030
18.89727,56056
18.90660,67620
18.91593,80109
18.92528,86316
18.93462,79395
18.94395,76914
18.95330,78890
18.96263,87781
18.97197,95192
18.98132,94353
18.99065,82828
19.00000,73984
19.00933,66434
19.01867,65791
19.02802,64941
19.03735,69651
19.04668,79872
19.05603,106832
19.06537,126702
19.07470,142624
19.08405,168376
19.09338,189241
19.10272,157766
19.11207,108751
19.12140,75891
19.13073,62591
19.14008,54831
19.14942,52556
19.15875,52168
19.16810,52141
19.17743,51648
19.18678,55584
19.19612,58507
19.20545,63079
19.21480,67396
19.22413,67313
19.23347,69100
19.24282,65025
19.25215,59449
19.26148,58450
19.27083,59377
19.28017,63852
19.28950,74180
19.29885,81101
19.30818,99635
19.31752,132896
19.32687,130671
19.33620,104500
19.34553,77500
19.35488,64425
19.36422,59435
19.37357,58512
19.38290,57194
19.39223,52908
19.40158,58282
19.41092,61277
19.42025,58420
19.42960,53670
19.43893,52997
19.44827,50088
19.45762,50834
19.46695,53818
19.47628,57009
19.48563,58109
19.49497,61034
19.50430,59210
19.51365,57558
19.52298,53747
19.53232,55948
19.54167,56555
19.55100,54636
19.56035,53283
19.56968,52640
19.57902,58408
19.58837,62271
19.59770,64001
19.60703,62571
19.61638,59682
19.62572,61182
19.63505,62419
19.64440,69349
19.65373,68456
19.66307,59517
19.67242,53921
19.68175,58895
19.69108,63207
19.70043,69675
19.70977,75109
19.71912,73096
19.72845,83330
19.73778,92944
19.74713,90127
19.75647,75986
19.76580,62175
19.77515,63750
19.78448,64657
19.79382,64777
19.80317,60498
19.81250,60518
19.82183,57481
19.83118,56003
19.84052,56253
19.84985,53594
19.85920,54202
19.86853,63454
19.87787,81615
19.88722,91381
19.89655,81809
19.90590,66040
19.91523,56368
19.92457,56601
19.93392,55871
19.94325,54364
19.95258,54587
19.96193,57615
19.97127,58481
19.98060,54740
19.98995,55719
19.99928,52337
20.00862,50136
20.01797,54698
20.02730,55608
20.03663,58972
20.04598,59975
20.05532,60737
20.06465,57117
20.07400,58361
20.08333,59058
20.09268,59749
20.10202,56835
20.11135,52145
20.12070,48972
20.13003,47527
20.13937,50188
20.14872,57284
20.15805,66926
20.16738,69990
20.17673,64229
20.18607,57460
20.19540,51505
20.20475,52669
20.21408,55860
20.22342,65991
20.23277,138441
20.24210,482050
20.25143,1055249
20.26078,1193382
20.27012,695748
20.27947,257889
20.28880,94837
20.29813,62528
20.30748,57151
20.31682,54537
20.32615,51759
20.33550,50025
20.34483,49472
20.35417,49386
20.36352,53224
20.37285,56104
20.38218,53950
20.39153,52303
20.40087,50815
20.41020,51046
20.41955,49146
20.42888,50937
20.43823,50435
20.44757,50939
20.45690,52553
20.46625,58726
20.47558,64702
20.48492,64533
20.49427,58227
20.50360,56684
20.51293,54852
20.52228,54419
20.53162,54229
20.54095,56291
20.55030,57483
20.55963,69599
20.56897,115893
20.57832,232027
20.58765,291059
20.59698,225494
20.60633,127048
20.61567,74564
20.62502,64125
20.63435,63306
20.64368,69777
20.65303,77955
20.66237,73978
20.67170,63051
20.68105,62001
20.69038,61198
20.69972,59098
20.70907,60909
20.71840,59732
20.72773,57855
20.73708,58679
20.74642,58233
20.75575,55458
20.76510,52296
20.77443,52385
20.78377,52722
20.79312,60206
20.80245,61854
20.81180,63586
20.82113,61495
20.83047,58519
20.83982,54557
20.84915,54282
20.85848,50929
20.86783,51270
20.87717,47108
20.88650,51376
20.89585,54159
20.90518,61693
20.91452,59116
20.92387,57344
20.93320,53862
20.94253,50220
20.95188,50913
20.96122,49110
20.97055,46942
20.97990,47626
20.98923,49291
20.99858,49530
21.00792,50117
21.01725,50215
21.02660,50472
21.03593,50622
21.04527,51554
21.05462,52561
21.06395,52888
21.07328,50719
21.08263,51733
21.09197,50132
21.10130,51081
21.11065,55342
21.11998,55844
21.12932,56395
21.13867,54150
21.14800,56179
21.15733,59365
21.16668,59457
21.17602,61989
21.18537,81073
21.19470,119497
21.20403,190258
21.21338,239253
21.22272,210258
21.23205,133608
21.24140,86488
21.25073,67002
21.26007,59468
21.26942,59865
21.27875,62086
21.28808,63914
21.29743,68095
21.30677,64615
21.31610,58393
21.32545,58761
21.33478,55757
21.34412,55484
21.35347,54379
21.36280,53296
21.37215,54664
21.38148,53822
21.39082,53214
21.40017,56069
21.40950,56844
21.41883,57101
21.42818,57661
21.43752,58142
21.44685,58199
21.45620,60345
21.46553,58142
21.47487,55858
21.48422,59494
21.49355,58849
21.50288,58870
21.51223,58842
21.52157,57053
21.53092,55507
21.54025,54922
21.54958,56614
21.55893,62808
21.56827,75983
21.57760,90358
21.58695,94147
21.59628,82933
21.60562,70967
21.61497,70046
21.62430,64312
21.63363,64755
21.64298,64029
21.65232,63956
21.66165,58985
21.67100,58880
21.68033,67982
21.68967,72333
21.69902,72837
21.70835,68706
21.71770,77740
21.72703,86302
21.73637,92942
21.74572,83618
21.75505,72473
21.76438,66391
21.77373,61633
21.78307,65835
21.79240,65707
21.80175,70751
21.81108,82587
21.82042,98029
21.82977,107634
21.83910,99290
21.84843,83861
21.85778,73747
21.86712,71426
21.87645,80483
21.88580,83605
21.89513,86821
21.90448,88792
21.91382,88972
21.92315,87964
21.93250,84010
21.94183,81608
21.95117,87005
21.96052,85431
21.96985,84714
21.97918,83163
21.98853,88644
21.99787,94519
22.00720,85191
22.01655,76095
22.02588,68916
22.03522,65729
22.04457,72252
22.05390,75431
22.06323,75434
22.07258,73570
22.08192,72096
22.09127,72345
22.10060,77108
22.10993,81346
22.11928,77891
22.12862,74849
22.13795,71191
22.14730,73265
22.15663,81859
22.16597,88625
22.17532,96068
22.18465,94464
22.19398,90782
22.20333,96109
22.21267,109192
22.22200,114863
22.23135,104062
22.24068,93683
22.25003,77929
22.25937,75308
22.26870,72615
22.27805,82242
22.28738,95637
22.29672,116451
22.30607,147037
22.31540,201758
22.32473,209150
22.33408,173321
22.34342,126848
22.35275,104364
22.36210,96563
22.37143,94456
22.38077,94718
22.39012,93083
22.39945,85490
22.40878,79627
22.41813,75311
22.42747,73225
22.43682,79302
22.44615,87198
22.45548,97458
22.46483,105685
22.47417,102931
22.48350,98532
22.49285,119323
22.50218,255933
22.51152,664316
22.52087,1011772
22.53020,885824
22.53953,517875
22.54888,302326
22.55822,314976
22.56755,419585
22.57690,422261
22.58623,357911
22.59557,339179
22.60492,318681
22.61425,239458
22.62360,168459
22.63293,125105
22.64227,104225
22.65162,95710
22.66095,93348
22.67028,106350
22.67963,125632
22.68897,135421
22.69830,124718
22.70765,114816
22.71698,101789
22.72632,108277
22.73567,113220
22.74500,110468
22.75433,104714
22.76368,101959
22.77302,100438
22.78235,97848
22.79170,90175
22.80103,92487
22.81038,105172
22.81972,120353
22.82905,136997
22.83840,141606
22.84773,143471
22.85707,136556
22.86642,137481
22.87575,176873
22.88508,256600
22.89443,296787
22.90377,263512
22.91310,199914
22.92245,150332
22.93178,126687
22.94112,115835
22.95047,104855
22.95980,95213
22.96913,95258
22.97848,110751
22.98782,128636
22.99717,133666
23.00650,118152
23.01583,97039
23.02518,88776
23.03452,101050
23.04385,131456
23.05320,139761
23.06253,120421
23.07187,102823
23.08122,102231
23.09055,105663
23.09988,102109
23.10923,91257
23.11857,77920
23.12790,72571
23.13725,84015
23.14658,127057
23.15593,213405
23.16527,284020
23.17460,302132
23.18395,275283
23.19328,232426
23.20262,209890
23.21197,200448
23.22130,190492
23.23063,171998
23.23998,144348
23.24932,114303
23.25865,100255
23.26800,100067
23.27733,102489
23.28667,106281
23.29602,108308
23.30535,111899
23.31468,105176
23.32403,98815
23.33337,104030
23.34272,105530
23.35205,96861
23.36138,80935
23.37073,70290
23.38007,69604
23.38940,75363
23.39875,101102
23.40808,128135
23.41742,125758
23.42677,104154
23.43610,85433
23.44543,77655
23.45478,72772
23.46412,70569
23.47345,69400
23.48280,70112
23.49213,71547
23.50147,63926
23.51082,64016
23.52015,58782
23.52950,61179
23.53883,61006
23.54817,62006
23.55752,63886
23.56685,65757
23.57618,74770
23.58553,82089
23.59487,84067
23.60420,78001
23.61355,69253
23.62288,65721
23.63222,60284
23.64157,61937
23.65090,61461
23.66023,65086
23.66958,70224
23.67892,73973
23.68825,73666
23.69760,75105
23.70693,76065
23.71628,78220
23.72562,82621
23.73495,84067
23.74430,84380
23.75363,77686
23.76297,71628
23.77232,73944
23.78165,75167
23.79098,75108
23.80033,72891
23.80967,66935
23.81900,63608
23.82835,61246
23.83768,60443
23.84702,60700
23.85637,61745
23.86570,69015
23.87505,81202
23.88438,92473
23.89372,98774
23.90307,100526
23.91240,90741
23.92173,77376
23.93108,71796
23.94042,68349
23.94975,68386
23.95910,70640
23.96843,68884
23.97777,70771
23.98712,72272
23.99645,69824
24.00578,65683
24.01513,64625
24.02447,58175
24.03380,56820
24.04315,57378
24.05248,56176
24.06183,61119
24.07117,64054
24.08050,66240
24.08985,64115
24.09918,67913
24.10852,72807
24.11787,79579
24.12720,78554
24.13653,73442
24.14588,65852
24.15522,65346
24.16455,64245
24.17390,60688
24.18323,59451
24.19257,58481
24.20192,59112
24.21125,59245
24.22058,61023
24.22993,62886
24.23927,71937
24.24862,71716
24.25795,73443
24.26728,69015
24.27663,66821
24.28597,61213
24.29530,60014
24.30465,63819
24.31398,68779
24.32332,69950
24.33267,69836
24.34200,68487
24.35133,62479
24.36068,61407
24.37002,58986
24.37935,60630
24.38870,60048
24.39803,62907
24.40737,61715
24.41672,58966
24.42605,61793
24.43540,60667
24.44473,58893
24.45407,60685
24.46342,59110
24.47275,59941
24.48208,60385
24.49143,59473
24.50077,60942
24.51010,62634
24.51945,64159
24.52878,60637
24.53812,60751
24.54747,72105
24.55680,102284
24.56613,130913
24.57548,136224
24.58482,105859
24.59415,82440
24.60350,67657
24.61283,66362
24.62218,65108
24.63152,62463
24.64085,58939
24.65020,56762
24.65953,57028
24.66887,60500
24.67822,61479
24.68755,61021
24.69688,58018
24.70623,58067
24.71557,57171
24.72490,57901
24.73425,54376
24.74358,56784
24.75292,53567
24.76227,55633
24.77160,52664
24.78093,53783
24.79028,52799
24.79962,52049
24.80897,55369
24.81830,53661
24.82763,53973
24.83698,53493
24.84632,53260
24.85565,53472
24.86500,51770
24.87433,52916
24.88367,53922
24.89302,53354
24.90235,56387
24.91168,54534
24.92103,55813
24.93037,54567
24.93970,52722
24.94905,52499
24.95838,53628
24.96773,55557
24.97707,55318
24.98640,55442
24.99575,53901
25.00508,53657
25.01442,53951
25.02377,53847
25.03310,52413
25.04243,54984
25.05178,53883
25.06112,54242
25.07045,53357
25.07980,53108
25.08913,54927
25.09847,52618
25.10782,53634
25.11715,55215
25.12648,53306
25.13583,55921
25.14517,59141
25.15452,62927
25.16385,63295
25.17318,60720
25.18253,59907
25.19187,58467
25.20120,57683
25.21055,57266
25.21988,54420
25.22922,56101
25.23857,54111
25.24790,57366
25.25723,59808
25.26658,61651
25.27592,61858
25.28525,59421
25.29460,59575
25.30393,60885
25.31327,65944
25.32262,97464
25.33195,152014
25.34130,207116
25.35063,195629
25.35997,141284
25.36932,103144
25.37865,90967
25.38798,84550
25.39733,78925
25.40667,80335
25.41600,80884
25.42535,77229
25.43468,78612
25.44402,80818
25.45337,81767
25.46270,81279
25.47203,82294
25.48138,90018
25.49072,88214
25.50005,93078
25.50940,93019
25.51873,93698
25.52808,90872
25.53742,95558
25.54675,93908
25.55610,89980
25.56543,89095
25.57477,88957
25.58412,83410
25.59345,80609
25.60278,80177
25.61213,76887
25.62147,77217
25.63080,77306
25.64015,76682
25.64948,76851
25.65882,83468
25.66817,86843
25.67750,83742
25.68685,78338
25.69618,73138
25.70552,72200
25.71487,73735
25.72420,71729
25.73353,69672
25.74288,72481
25.75222,72878
25.76155,73112
25.77090,70663
25.78023,71844
25.78957,70066
25.79892,73436
25.80825,74570
25.81758,77774
25.82693,75886
25.83627,77476
25.84560,77735
25.85495,76822
25.86428,71744
25.87363,68960
25.88297,66753
25.89230,65454
25.90165,67843
25.91098,67100
25.92032,66444
25.92967,67365
25.93900,68349
25.94833,70062
25.95768,73654
25.96702,71424
25.97635,71974
25.98570,70144
25.99503,71404
26.00437,68463
26.01372,65114
26.02305,66305
26.03238,66899
26.04173,68161
26.05107,70005
26.06042,70576
26.06975,68101
26.07908,69269
26.08843,71004
26.09777,68749
26.10710,65775
26.11645,68739
26.12578,76919
26.13512,93103
26.14447,117602
26.15380,134375
26.16313,123221
26.17248,105107
26.18182,94696
26.19115,84047
26.20050,76550
26.20983,73654
26.21917,67819
26.22852,66981
26.23785,66559
26.24720,68887
26.25653,68747
26.26587,66787
26.27522,66759
26.28455,63513
26.29388,64881
26.30323,68400
26.31257,65971
26.32190,65727
26.33125,66996
26.34058,66245
26.34992,66653
26.35927,65435
26.36860,66299
26.37793,62351
26.38728,62547
26.39662,64424
26.40595,64047
26.41530,65638
26.42463,70062
26.43398,73590
26.44332,71773
26.45265,68212
26.46200,68253
26.47133,69133
26.48067,65616
26.49002,64003
26.49935,64438
26.50868,65594
26.51803,67543
26.52737,68461
26.53670,67642
26.54605,69574
26.55538,70466
26.56472,67167
26.57407,68233
26.58340,66316
26.59273,68071
26.60208,69442
26.61142,74011
26.62077,73122
26.63010,68961
26.63943,63153
26.64878,65043
26.65812,65278
26.66745,66520
26.67680,65652
26.68613,67258
26.69547,63478
26.70482,63898
26.71415,63040
26.72348,63035
26.73283,64147
26.74217,64185
26.75150,61952
26.76085,63913
26.77018,68458
26.77953,68746
26.78887,70684
26.79820,68663
26.80755,67903
26.81688,65625
26.82622,64223
26.83557,68252
26.84490,66897
26.85423,67637
26.86358,67562
26.87292,64800
26.88225,64994
26.89160,62838
26.90093,63076
26.91027,62481
26.91962,62348
26.92895,63709
26.93828,64199
26.94763,62386
26.95697,61947
26.96632,64013
26.97565,64164
26.98498,64658
26.99433,63805
27.00367,69031
27.01300,69612
27.02235,69400
27.03168,70850
27.04102,68910
27.05037,69350
27.05970,69141
27.06903,69545
27.07838,70675
27.08772,67046
27.09705,67639
27.10640,66576
27.11573,66855
27.12507,67597
27.13442,68095
27.14375,71496
27.15310,68670
27.16243,70410
27.17177,66857
27.18112,65860
27.19045,67320
27.19978,64382
27.20913,65812
27.21847,63307
27.22780,65275
27.23715,65982
27.24648,72170
27.25582,74029
27.26517,81282
27.27450,76265
27.28383,73509
27.29318,68832
27.30252,68323
27.31185,66784
27.32120,66124
27.33053,66434
27.33988,66373
27.34922,62753
27.35855,64215
27.36790,64519
27.37723,63165
27.38657,65179
27.39592,65909
27.40525,64810
27.41458,67593
27.42393,69734
27.43327,75850
27.44260,77956
27.45195,75966
27.46128,70838
27.47062,71297
27.47997,71672
27.48930,73218
27.49865,77644
27.50798,84943
27.51732,89861
27.52667,91288
27.53600,91861
27.54533,93914
27.55468,89202
27.56402,87651
27.57335,83775
27.58270,81962
27.59203,83684
27.60137,79248
27.61072,75350
27.62005,73940
27.62938,72058
27.63873,73463
27.64807,72095
27.65740,75578
27.66675,92558
27.67608,122917
27.68543,151104
27.69477,149070
27.70410,122132
27.71345,96626
27.72278,84311
27.73212,80986
27.74147,80728
27.75080,76493
27.76013,76552
27.76948,73453
27.77882,75558
27.78815,73376
27.79750,74173
27.80683,72692
27.81617,73640
27.82552,72703
27.83485,71010
27.84418,70478
27.85353,73168
27.86287,70749
27.87222,71269
27.88155,72712
27.89088,73498
27.90023,71066
27.90957,71704
27.91890,72649
27.92825,71726
27.93758,74073
27.94692,76943
27.95627,69818
27.96560,69869
27.97493,70949
27.98428,69836
27.99362,70961
28.00295,71337
28.01230,69462
28.02163,69394
28.03097,68439
28.04032,67947
28.04965,69102
28.05900,68998
28.06833,69199
28.07767,69498
28.08702,69408
28.09635,72500
28.10568,73330
28.11503,80370
28.12437,92999
28.13370,111065
28.14305,108589
28.15238,95572
28.16172,84397
28.17107,79944
28.18040,76003
28.18973,74594
28.19908,73681
28.20842,76169
28.21775,73866
28.22710,71933
28.23643,75055
28.24578,71918
28.25512,70393
28.26445,74087
28.27380,70623
28.28313,67265
28.29247,74808
28.30182,73242
28.31115,70291
28.32048,72291
28.32983,72091
28.33917,71139
28.34850,72981
28.35785,72321
28.36718,70998
28.37652,71812
28.38587,71497
28.39520,71958
28.40455,73645
28.41388,74222
28.42322,72352
28.43257,73865
28.44190,73172
28.45123,72964
28.46058,72675
28.46992,72215
28.47925,71541
28.48860,70537
28.49793,70078
28.50727,74818
28.51662,73793
28.52595,77235
28.53528,74458
28.54463,76708
28.55397,74713
28.56330,75688
28.57265,76787
28.58198,75927
28.59133,81687
28.60067,84903
28.61000,87826
28.61935,87104
28.62868,83685
28.63802,83330
28.64737,80064
28.65670,81160
28.66603,90916
28.67538,116791
28.68472,144373
28.69405,151799
28.70340,134086
28.71273,107211
28.72207,91074
28.73142,86232
28.74075,83511
28.75008,80547
28.75943,80466
28.76877,79941
28.77812,80651
28.78745,81687
28.79678,80982
28.80613,77206
28.81547,82757
28.82480,77581
28.83415,78957
28.84348,77907
28.85282,79579
28.86217,78502
28.87150,77013
28.88083,79790
28.89018,79323
28.89952,79865
28.90885,78116
28.91820,80532
28.92753,78813
28.93687,77238
28.94622,80665
28.95555,81857
28.96490,86204
28.97423,87734
28.98357,89133
28.99292,89448
29.00225,87801
29.01158,83083
29.02093,83524
29.03027,86690
29.03960,88445
29.04895,87368
29.05828,87546
29.06762,85927
29.07697,84458
29.08630,83582
29.09563,84155
29.10498,80755
29.11432,81847
29.12367,80401
29.13300,82737
29.14233,83902
29.15168,80441
29.16102,81181
29.17035,80772
29.17970,81858
29.18903,85151
29.19837,100424
29.20772,112868
29.21705,118691
29.22638,114723
29.23573,101730
29.24507,95674
29.25440,90869
29.26375,88582
29.27308,92518
29.28242,87746
29.29177,86228
29.30110,83749
29.31045,84842
29.31978,85877
29.32912,83990
29.33847,84151
29.34780,84396
29.35713,86287
29.36648,85901
29.37582,85113
29.38515,86571
29.39450,86073
29.40383,84303
29.41317,86336
29.42252,84294
29.43185,85638
29.44118,83625
29.45053,88536
29.45987,90706
29.46920,90099
29.47855,89930
29.48788,91505
29.49723,85815
29.50657,85474
29.51590,85452
29.52525,85860
29.53458,85722
29.54392,84410
29.55327,84449
29.56260,82312
29.57193,81466
29.58128,83000
29.59062,82066
29.59995,82189
29.60930,84380
29.61863,83900
29.62797,81814
29.63732,79189
29.64665,82563
29.65598,81109
29.66533,81937
29.67467,82555
29.68402,79882
29.69335,83164
29.70268,79393
29.71203,81191
29.72137,83473
29.73070,84711
29.74005,88128
29.74938,88067
29.75872,86074
29.76807,84917
29.77740,84393
29.78673,86840
29.79608,84828
29.80542,82159
29.81475,83202
29.82410,79867
29.83343,81689
29.84277,79730
29.85212,80431
29.86145,80241
29.87080,81944
29.88013,82626
29.88947,82165
29.89882,81390
29.90815,83391
29.91748,83461
29.92683,83413
29.93617,85566
29.94550,82360
29.95485,82820
29.96418,85883
29.97352,86951
29.98287,90334
29.99220,94287
30.00153,94871
30.01088,90633
30.02022,87024
30.02955,86528
30.03890,85017
30.04823,85325
30.05758,82797
30.06692,83536
30.07625,85023
30.08560,83137
30.09493,84922
30.10427,83629
30.11362,87163
30.12295,86882
30.13228,93520
30.14163,95707
30.15097,98834
30.16030,105874
30.16965,102856
30.17898,103138
30.18832,103887
30.19767,103132
30.20700,97448
30.21635,97996
30.22568,96562
30.23502,93716
30.24437,91827
30.25370,92290
30.26303,88151
30.27238,86922
30.28172,88861
30.29105,87086
30.30040,87737
30.30973,88544
30.31907,87320
30.32842,85980
30.33775,82615
30.34708,85684
30.35643,85321
30.36577,83090
30.37510,86943
30.38445,89936
30.39378,92577
30.40313,107702
30.41247,115534
30.42180,117848
30.43115,110171
30.44048,101377
30.44982,98257
30.45917,94058
30.46850,91800
30.47783,93171
30.48718,89503
30.49652,93991
30.50585,89880
30.51520,88815
30.52453,85838
30.53387,86799
30.54322,84670
30.55255,87524
30.56188,86317
30.57123,84263
30.58057,85569
30.58992,87314
30.59925,87155
30.60858,88993
30.61793,93037
30.62727,98618
30.63660,103150
30.64595,109701
30.65528,111121
30.66462,115276
30.67397,112516
30.68330,107045
30.69263,105205
30.70198,100313
30.71132,99966
30.72065,95435
30.73000,93840
30.73933,93963
30.74867,90845
30.75802,90731
30.76735,92473
30.77670,90643
30.78603,92221
30.79537,92289
30.80472,94266
30.81405,93970
30.82338,93611
30.83273,93718
30.84207,93725
30.85140,93023
30.86075,93751
30.87008,96291
30.87942,97543
30.88877,93432
30.89810,96501
30.90743,98066
30.91678,97327
30.92612,100232
30.93547,96799
30.94480,100947
30.95413,99541
30.96348,101688
30.97282,99446
30.98215,97656
30.99150,97513
31.00083,96258
31.01017,95563
31.01952,92906
31.02885,94732
31.03818,90650
31.04753,93040
31.05687,93942
31.06620,94782
31.07555,90915
31.08488,91023
31.09422,91179
31.10357,90087
31.11290,91729
31.12225,92702
31.13158,93188
31.14092,95804
31.15027,94744
31.15960,95845
31.16893,94529
31.17828,97431
31.18762,97625
31.19695,96365
31.20630,97308
31.21563,97066
31.22497,94437
31.23432,93298
31.24365,91227
31.25298,92435
31.26233,93221
31.27167,92205
31.28100,89241
31.29035,87991
31.29968,88499
31.30903,90266
31.31837,91163
31.32770,90422
31.33705,89278
31.34638,90567
31.35572,91191
31.36507,90092
