D:\数据\20211223\ZS1E-Z-000186.D Thu Dec 23 22:12:52 2021
Start of data points
0.09768,26110
0.10703,25806
0.11637,26201
0.12570,26760
0.13505,27476
0.14438,26605
0.15372,25559
0.16307,27426
0.17240,25897
0.18173,25408
0.19108,27096
0.20042,25609
0.20975,26185
0.21910,25195
0.22843,26072
0.23777,27058
0.24712,25740
0.25645,24962
0.26578,24667
0.27513,25336
0.28447,25480
0.29382,24683
0.30315,24812
0.31248,25993
0.32183,24979
0.33117,24138
0.34050,26392
0.34985,24801
0.35918,24450
0.36852,25579
0.37787,26016
0.38720,25740
0.39653,25299
0.40588,24799
0.41522,25139
0.42455,24941
0.43390,25089
0.44323,24009
0.45257,21756
0.46192,17922
0.47125,12585
0.48060,7498
0.48993,5212
0.49927,6052
0.50862,5595
0.51795,5946
0.52728,5453
0.53663,4976
0.54597,5735
0.55530,5823
0.56465,4903
0.57398,5128
0.58332,4616
0.59267,4898
0.60200,4512
0.61133,4453
0.62068,4773
0.63002,5242
0.63937,4644
0.64870,4567
0.65803,4710
0.66738,4823
0.67672,4159
0.68605,3979
0.69540,4507
0.70473,3838
0.71407,4411
0.72342,4411
0.73275,4448
0.74208,4555
0.75143,4888
0.76077,3954
0.77010,5530
0.77945,4362
0.78878,4627
0.79812,4492
0.80747,4224
0.81680,4457
0.82615,4441
0.83548,4619
0.84482,4552
0.85417,4302
0.86350,4754
0.87283,5265
0.88218,4907
0.89152,3695
0.90085,4195
0.91020,4464
0.91953,4060
0.92887,4193
0.93822,4473
0.94755,4188
0.95688,4379
0.96623,3805
0.97557,4323
0.98490,3832
0.99425,4328
1.00358,4403
1.01293,4155
1.02227,4126
1.03160,4997
1.04095,3745
1.05028,4253
1.05962,4226
1.06897,4351
1.07830,3802
1.08763,4155
1.09698,3839
1.10632,3961
1.11565,3574
1.12500,4339
1.13433,4004
1.14367,4396
1.15302,3804
1.16235,4291
1.17168,4162
1.18103,4062
1.19037,4128
1.19972,3945
1.20905,4196
1.21838,4521
1.22773,3991
1.23707,4754
1.24640,4145
1.25575,4210
1.26508,4273
1.27442,4105
1.28377,4293
1.29310,4743
1.30243,4115
1.31178,4359
1.32112,3693
1.33045,3931
1.33980,3577
1.34913,4584
1.35847,4485
1.36782,4065
1.37715,4813
1.38650,4606
1.39583,4115
1.40517,4040
1.41452,3999
1.42385,4258
1.43318,3971
1.44253,3793
1.45187,3976
1.46120,3846
1.47055,3943
1.47988,3822
1.48922,3882
1.49857,4137
1.50790,4703
1.51723,4093
1.52658,4104
1.53592,3428
1.54525,3535
1.55460,4073
1.56393,4061
1.57328,3863
1.58262,3690
1.59195,3867
1.60130,3983
1.61063,5865
1.61997,11281
1.62932,18067
1.63865,24224
1.64798,30262
1.65733,42740
1.66667,56286
1.67600,60729
1.68535,55964
1.69468,46067
1.70402,37348
1.71337,26161
1.72270,17677
1.73205,19072
1.74138,21586
1.75072,23830
1.76007,25621
1.76940,28149
1.77873,29795
1.78808,30261
1.79742,32075
1.80675,32687
1.81610,33067
1.82543,31116
1.83477,32166
1.84412,30183
1.85345,30103
1.86278,30875
1.87213,34714
1.88147,42521
1.89080,53391
1.90015,70819
1.90948,93673
1.91883,126102
1.92817,187753
1.93750,304191
1.94685,451628
1.95618,556613
1.96552,554064
1.97487,467203
1.98420,341388
1.99353,234978
2.00288,171348
2.01222,147849
2.02155,175525
2.03090,197256
2.04023,180931
2.04957,159611
2.05892,128542
2.06825,109619
2.07758,189572
2.08693,1454216
2.09627,5454189
2.10562,6388760
2.11495,3650005
2.12428,1605569
2.13363,719977
2.14297,433657
2.15230,320519
2.16165,228895
2.17098,176127
2.18032,156950
2.18967,203681
2.19900,229851
2.20833,171329
2.21768,116052
2.22702,104826
2.23635,143745
2.24570,190664
2.25503,828053
2.26437,2481246
2.27372,2655000
2.28305,1880677
2.29240,1139369
2.30173,738479
2.31107,1014591
2.32042,2091353
2.32975,2181416
2.33908,1250971
2.34843,575306
2.35777,284135
2.36710,174849
2.37645,165908
2.38578,231571
2.39512,255265
2.40447,210333
2.41380,159327
2.42313,123224
2.43248,104193
2.44182,91572
2.45117,79427
2.46050,87521
2.46983,108966
2.47918,117546
2.48852,97153
2.49785,76159
2.50720,64475
2.51653,57258
2.52587,53149
2.53522,53402
2.54455,56433
2.55388,73336
2.56323,104289
2.57257,336102
2.58190,401896
2.59125,325598
2.60058,250006
2.60992,202453
2.61927,196526
2.62860,191219
2.63795,157214
2.64728,126286
2.65662,112678
2.66597,97554
2.67530,85965
2.68463,73290
2.69398,68150
2.70332,61884
2.71265,69245
2.72200,99193
2.73133,137620
2.74067,147650
2.75002,155720
2.75935,170053
2.76868,185545
2.77803,202744
2.78737,237210
2.79670,244144
2.80605,204941
2.81538,185696
2.82473,204607
2.83407,191739
2.84340,165304
2.85275,181853
2.86208,226918
2.87142,222786
2.88077,199807
2.89010,161332
2.89943,123392
2.90878,99703
2.91812,88383
2.92745,80108
2.93680,69183
2.94613,63029
2.95547,55124
2.96482,53606
2.97415,51191
2.98348,51141
2.99283,52052
3.00217,55864
3.01152,57314
3.02085,60117
3.03018,59863
3.03953,86609
3.04887,150088
3.05820,172163
3.06755,178278
3.07688,161895
3.08622,124369
3.09557,88576
3.10490,66372
3.11423,54547
3.12358,51221
3.13292,51592
3.14225,53748
3.15160,58313
3.16093,71840
3.17027,79673
3.17962,75476
3.18895,67142
3.19830,56957
3.20763,52408
3.21697,56681
3.22632,57401
3.23565,55455
3.24498,52834
3.25433,50299
3.26367,49129
3.27300,47197
3.28235,45488
3.29168,50265
3.30102,56811
3.31037,63822
3.31970,56752
3.32903,50652
3.33838,46791
3.34772,47009
3.35707,48081
3.36640,45451
3.37573,44392
3.38508,43319
3.39442,42578
3.40375,43821
3.41310,54558
3.42243,61916
3.43177,62339
3.44112,61210
3.45045,69742
3.45978,79545
3.46913,72608
3.47847,62187
3.48780,59577
3.49715,59733
3.50648,53758
3.51582,52438
3.52517,48177
3.53450,46088
3.54385,52563
3.55318,101871
3.56252,241799
3.57187,402306
3.58120,402729
3.59053,269674
3.59988,155707
3.60922,104466
3.61855,164101
3.62790,147169
3.63723,122962
3.64657,101621
3.65592,84879
3.66525,74858
3.67458,77391
3.68393,74159
3.69327,67702
3.70260,58667
3.71195,54778
3.72128,61457
3.73063,67720
3.73997,62885
3.74930,57131
3.75865,53861
3.76798,49192
3.77732,47533
3.78667,44558
3.79600,52024
3.80533,112452
3.81468,277079
3.82402,434764
3.83335,388453
3.84270,224908
3.85203,115488
3.86137,70939
3.87072,56725
3.88005,57343
3.88938,57350
3.89873,63006
3.90807,65731
3.91742,65239
3.92675,64280
3.93608,66796
3.94543,73117
3.95477,87196
3.96410,112088
3.97345,107789
3.98278,86682
3.99212,66584
4.00147,56430
4.01080,50863
4.02013,50022
4.02948,52567
4.03882,58953
4.04815,65838
4.05750,68730
4.06683,65710
4.07618,70202
4.08552,89638
4.09485,108810
4.10420,108060
4.11353,88350
4.12287,67918
4.13222,57084
4.14155,51504
4.15088,51412
4.16023,51577
4.16957,50657
4.17890,47715
4.18825,45500
4.19758,42731
4.20692,46818
4.21627,49513
4.22560,49379
4.23493,46746
4.24428,44605
4.25362,44309
4.26297,41800
4.27230,44853
4.28163,45062
4.29098,59739
4.30032,55442
4.30965,50642
4.31900,51546
4.32833,53374
4.33767,58391
4.34702,61243
4.35635,56907
4.36568,50402
4.37503,45993
4.38437,46439
4.39370,51488
4.40305,54979
4.41238,50838
4.42172,46331
4.43107,42178
4.44040,40608
4.44975,40860
4.45908,41016
4.46842,44412
4.47777,56219
4.48710,64324
4.49643,62897
4.50578,53610
4.51512,48638
4.52445,45261
4.53380,44772
4.54313,44876
4.55247,50323
4.56182,49660
4.57115,47291
4.58048,43547
4.58983,42938
4.59917,43691
4.60850,42725
4.61785,44669
4.62718,41465
4.63653,41858
4.64587,46455
4.65520,52865
4.66455,56024
4.67388,56948
4.68322,53746
4.69257,49682
4.70190,46592
4.71123,46003
4.72058,43746
4.72992,41001
4.73925,43629
4.74860,56811
4.75793,59477
4.76727,56894
4.77662,52843
4.78595,51338
4.79528,47285
4.80463,47457
4.81397,47374
4.82332,46567
4.83265,47903
4.84198,53210
4.85133,51350
4.86067,48445
4.87000,46325
4.87935,46794
4.88868,47709
4.89802,45756
4.90737,43728
4.91670,41247
4.92603,43617
4.93538,43249
4.94472,43668
4.95405,45183
4.96340,44056
4.97273,42548
4.98207,39514
4.99142,40021
5.00075,41475
5.01010,44994
5.01943,49461
5.02877,51098
5.03812,55039
5.04745,52741
5.05678,49642
5.06613,46779
5.07547,47208
5.08480,47419
5.09415,49097
5.10348,50046
5.11282,45740
5.12217,44066
5.13150,44154
5.14083,44421
5.15018,44884
5.15952,43935
5.16887,42692
5.17820,41703
5.18753,45298
5.19688,50746
5.20622,59252
5.21555,60092
5.22490,52101
5.23423,50656
5.24357,53278
5.25292,56544
5.26225,54202
5.27158,73597
5.28093,162246
5.29027,324996
5.29960,425808
5.30895,323817
5.31828,173862
5.32762,87351
5.33697,58969
5.34630,51204
5.35565,48387
5.36498,48212
5.37432,47524
5.38367,50202
5.39300,53970
5.40233,56376
5.41168,53181
5.42102,48678
5.43035,46309
5.43970,42528
5.44903,42959
5.45837,41403
5.46772,42319
5.47705,42787
5.48638,45400
5.49573,44452
5.50507,46318
5.51440,46302
5.52375,45616
5.53308,50186
5.54243,48733
5.55177,49918
5.56110,54110
5.57045,56096
5.57978,59663
5.58912,55252
5.59847,49989
5.60780,45650
5.61713,43013
5.62648,43303
5.63582,41642
5.64515,41047
5.65450,41717
5.66383,42482
5.67317,43122
5.68252,45124
5.69185,44882
5.70118,49219
5.71053,53156
5.71987,53239
5.72922,53524
5.73855,49465
5.74788,52867
5.75723,61340
5.76657,63645
5.77590,58568
5.78525,57183
5.79458,55879
5.80392,51328
5.81327,47176
5.82260,45032
5.83193,50153
5.84128,57844
5.85062,59046
5.85995,51434
5.86930,46560
5.87863,44127
5.88798,39404
5.89732,34143
5.90665,33874
5.91600,44061
5.92533,66327
5.93467,83543
5.94402,75197
5.95335,74587
5.96268,81524
5.97203,73917
5.98137,61054
5.99070,51468
6.00005,46821
6.00938,45952
6.01872,42533
6.02807,36554
6.03740,32022
6.04673,27023
6.05608,27249
6.06542,26392
6.07477,25415
6.08410,23157
6.09343,20554
6.10278,19640
6.11212,21157
6.12145,25215
6.13080,33238
6.14013,38290
6.14947,37193
6.15882,27879
6.16815,19152
6.17748,17547
6.18683,17420
6.19617,17680
6.20550,17644
6.21485,16926
6.22418,20455
6.23352,22785
6.24287,25483
6.25220,23555
6.26155,19640
6.27088,21571
6.28022,32260
6.28957,42772
6.29890,39457
6.30823,28945
6.31758,21913
6.32692,17337
6.33625,16174
6.34560,16120
6.35493,16886
6.36427,16311
6.37362,18297
6.38295,28476
6.39228,53851
6.40163,162182
6.41097,535500
6.42030,1026237
6.42965,989314
6.43898,531731
6.44833,178725
6.45767,58176
6.46700,28937
6.47635,26437
6.48568,22169
6.49502,20442
6.50437,19078
6.51370,19612
6.52303,20575
6.53238,20949
6.54172,18770
6.55105,17663
6.56040,16486
6.56973,17856
6.57907,18282
6.58842,18721
6.59775,19510
6.60708,19662
6.61643,19301
6.62577,20213
6.63512,22362
6.64445,23356
6.65378,23781
6.66313,26981
6.67247,26713
6.68180,26398
6.69115,23432
6.70048,22117
6.70982,23521
6.71917,28081
6.72850,26330
6.73783,26373
6.74718,23026
6.75652,20812
6.76585,19795
6.77520,20649
6.78453,21406
6.79388,28351
6.80322,36001
6.81255,38465
6.82190,31532
6.83123,22290
6.84057,20544
6.84992,21496
6.85925,25764
6.86858,27082
6.87793,23678
6.88727,21309
6.89660,20404
6.90595,19464
6.91528,22208
6.92462,23699
6.93397,21111
6.94330,20383
6.95263,21201
6.96198,20196
6.97132,20504
6.98067,19772
6.99000,20552
6.99933,19498
7.00868,18575
7.01802,19404
7.02735,22555
7.03670,21553
7.04603,18044
7.05537,15396
7.06472,14498
7.07405,14323
7.08338,14098
7.09273,15621
7.10207,20352
7.11140,25038
7.12075,28400
7.13008,28445
7.13942,22615
7.14877,19939
7.15810,17757
7.16745,15733
7.17678,15584
7.18612,15081
7.19547,16873
7.20480,16572
7.21413,18109
7.22348,23717
7.23282,46267
7.24215,98127
7.25150,134898
7.26083,110242
7.27017,64741
7.27952,41172
7.28885,33377
7.29818,27060
7.30753,23627
7.31687,20446
7.32620,17723
7.33555,16032
7.34488,17116
7.35423,18000
7.36357,16464
7.37290,15758
7.38225,18886
7.39158,35823
7.40092,92225
7.41027,194744
7.41960,257822
7.42893,227036
7.43828,134389
7.44762,65459
7.45695,33260
7.46630,21866
7.47563,29829
7.48497,57706
7.49432,56177
7.50365,44621
7.51300,32121
7.52233,23683
7.53167,19365
7.54102,17317
7.55035,17820
7.55968,18543
7.56903,21055
7.57837,22485
7.58770,22417
7.59705,22714
7.60638,21352
7.61572,22241
7.62507,22274
7.63440,24943
7.64373,25055
7.65308,22426
7.66242,20097
7.67175,18154
7.68110,17890
7.69043,20539
7.69978,19680
7.70912,21295
7.71845,23133
7.72780,22143
7.73713,22208
7.74647,22273
7.75582,25010
7.76515,29012
7.77448,29322
7.78383,27389
7.79317,26762
7.80250,25175
7.81185,24959
7.82118,20719
7.83052,19707
7.83987,19131
7.84920,21729
7.85853,37005
7.86788,69973
7.87722,109040
7.88657,107720
7.89590,73709
7.90523,51175
7.91458,67489
7.92392,109842
7.93325,122799
7.94260,87200
7.95193,55554
7.96127,64505
7.97062,72939
7.97995,62317
7.98928,47920
7.99863,37896
8.00797,32724
8.01730,27294
8.02665,26931
8.03598,30553
8.04532,39296
8.05467,43725
8.06400,39626
8.07335,28402
8.08268,23274
8.09202,25880
8.10137,35779
8.11070,41730
8.12003,36633
8.12938,27940
8.13872,24920
8.14805,21929
8.15740,20562
8.16673,19265
8.17607,20173
8.18542,18287
8.19475,19196
8.20408,19635
8.21343,22214
8.22277,22036
8.23210,24253
8.24145,27267
8.25078,32533
8.26013,31723
8.26947,29483
8.27880,25411
8.28815,21629
8.29748,20623
8.30682,19671
8.31617,20430
8.32550,19692
8.33483,18960
8.34418,19949
8.35352,19368
8.36285,18795
8.37220,17407
8.38153,17677
8.39087,19673
8.40022,25959
8.40955,29399
8.41890,29680
8.42823,29016
8.43757,27404
8.44692,25689
8.45625,24150
8.46558,23168
8.47493,23662
8.48427,24560
8.49360,24104
8.50295,22858
8.51228,20452
8.52162,20055
8.53097,19907
8.54030,19616
8.54963,21904
8.55898,22066
8.56832,22710
8.57765,21570
8.58700,23077
8.59633,24528
8.60568,27697
8.61502,29035
8.62435,27935
8.63370,25867
8.64303,22972
8.65237,22783
8.66172,23605
8.67105,24972
8.68038,25466
8.68973,23402
8.69907,24229
8.70840,23565
8.71775,24715
8.72708,23113
8.73642,21598
8.74577,21326
8.75510,23976
8.76443,24732
8.77378,27779
8.78312,27052
8.79247,26361
8.80180,35901
8.81113,54391
8.82048,68667
8.82982,58654
8.83915,40151
8.84850,26497
8.85783,23853
8.86717,23149
8.87652,23387
8.88585,24147
8.89518,25115
8.90453,24447
8.91387,25029
8.92320,25523
8.93255,25227
8.94188,24758
8.95122,23446
8.96057,20970
8.96990,21612
8.97925,22392
8.98858,24062
8.99792,23638
9.00727,25344
9.01660,26128
9.02593,25742
9.03528,25258
9.04462,24487
9.05395,25951
9.06330,28092
9.07263,29558
9.08197,32757
9.09132,35145
9.10065,32909
9.10998,30915
9.11933,27335
9.12867,25356
9.13802,27516
9.14735,28703
9.15668,29050
9.16603,24378
9.17537,22778
9.18470,23791
9.19405,22684
9.20338,23606
9.21272,26034
9.22207,31772
9.23140,47557
9.24073,58952
9.25008,53327
9.25942,41020
9.26875,31290
9.27810,29090
9.28743,27116
9.29677,26375
9.30612,25573
9.31545,26493
9.32480,31078
9.33413,36339
9.34347,40423
9.35282,39301
9.36215,60214
9.37148,129262
9.38083,218548
9.39017,223234
9.39950,159935
9.40885,100811
9.41818,70110
9.42752,57503
9.43687,51406
9.44620,43477
9.45553,33200
9.46488,26697
9.47422,25511
9.48355,24855
9.49290,24678
9.50223,29732
9.51158,31227
9.52092,26182
9.53025,25119
9.53960,30210
9.54893,38795
9.55827,45771
9.56762,60598
9.57695,61009
9.58628,45380
9.59563,31195
9.60497,31850
9.61430,31079
9.62365,28153
9.63298,27645
9.64232,28164
9.65167,30170
9.66100,33376
9.67033,33316
9.67968,32860
9.68902,30297
9.69837,29409
9.70770,26436
9.71703,25676
9.72638,41322
9.73572,123096
9.74505,332695
9.75440,527070
9.76373,470117
9.77307,275402
9.78242,146684
9.79175,99984
9.80108,78607
9.81043,65261
9.81977,56551
9.82910,60985
9.83845,65170
9.84778,68548
9.85712,64284
9.86647,54669
9.87580,48103
9.88515,54105
9.89448,70247
9.90382,78506
9.91317,70837
9.92250,65485
9.93183,66035
9.94118,59986
9.95052,48057
9.95985,40334
9.96920,38532
9.97853,51806
9.98787,95007
9.99722,148464
10.00655,143384
10.01588,96944
10.02523,57351
10.03457,39923
10.04390,33180
10.05325,32471
10.06258,40728
10.07193,55896
10.08127,71483
10.09060,67828
10.09995,55614
10.10928,59645
10.11862,139171
10.12797,365108
10.13730,592068
10.14663,579427
10.15598,658954
10.16532,1378399
10.17465,2043891
10.18400,1519713
10.19333,550984
10.20267,130131
10.21202,45544
10.22135,37681
10.23070,37187
10.24003,44602
10.24937,57827
10.25872,62418
10.26805,50034
10.27738,37824
10.28673,34032
10.29607,33595
10.30540,32915
10.31475,33456
10.32408,32665
10.33342,32037
10.34277,29910
10.35210,31101
10.36143,33004
10.37078,31865
10.38012,31702
10.38945,28696
10.39880,27922
10.40813,26138
10.41748,26909
10.42682,28617
10.43615,32507
10.44550,31838
10.45483,36274
10.46417,41899
10.47352,43882
10.48285,37336
10.49218,30016
10.50153,25430
10.51087,24845
10.52020,24892
10.52955,24421
10.53888,25825
10.54822,27826
10.55757,29938
10.56690,28731
10.57623,30371
10.58558,32918
10.59492,36740
10.60427,38437
10.61360,37484
10.62293,35200
10.63228,38663
10.64162,42771
10.65095,41337
10.66030,34566
10.66963,32860
10.67897,35343
10.68832,41640
10.69765,39105
10.70698,35082
10.71633,38350
10.72567,43368
10.73500,44260
10.74435,40923
10.75368,57966
10.76302,112650
10.77237,161836
10.78170,166477
10.79105,300274
10.80038,862308
10.80972,1592917
10.81907,1629498
10.82840,884852
10.83773,287151
10.84708,83575
10.85642,45678
10.86575,45908
10.87510,54654
10.88443,75716
10.89377,83688
10.90312,70848
10.91245,49257
10.92178,39400
10.93113,37766
10.94047,36842
10.94982,34203
10.95915,32895
10.96848,33060
10.97783,33873
10.98717,31294
10.99650,27931
11.00585,27575
11.01518,26920
11.02452,27737
11.03387,26930
11.04320,29308
11.05253,29014
11.06188,28437
11.07122,30574
11.08055,34327
11.08990,32525
11.09923,29050
11.10857,30935
11.11792,39015
11.12725,39230
11.13660,37641
11.14593,35069
11.15527,36224
11.16462,34383
11.17395,36073
11.18328,36244
11.19263,32675
11.20197,30532
11.21130,26953
11.22065,28738
11.22998,28655
11.23932,32656
11.24867,29393
11.25800,29979
11.26733,33751
11.27668,35585
11.28602,32680
11.29535,28149
11.30470,28384
11.31403,28535
11.32338,29624
11.33272,34060
11.34205,39385
11.35140,51673
11.36073,58760
11.37007,57755
11.37942,46068
11.38875,38214
11.39808,38857
11.40743,46948
11.41677,47323
11.42610,40295
11.43545,33861
11.44478,29954
11.45412,28996
11.46347,33232
11.47280,41877
11.48213,49338
11.49148,41320
11.50082,31094
11.51017,26390
11.51950,27059
11.52883,26490
11.53818,26440
11.54752,31539
11.55685,41329
11.56620,54162
11.57553,81536
11.58487,113549
11.59422,113766
11.60355,90335
11.61288,66397
11.62223,50609
11.63157,43034
11.64090,38602
11.65025,38169
11.65958,41673
11.66892,44452
11.67827,41883
11.68760,36501
11.69695,34067
11.70628,32932
11.71562,31585
11.72497,30322
11.73430,29971
11.74363,30626
11.75298,30847
11.76232,32405
11.77165,30409
11.78100,33058
11.79033,40666
11.79967,42307
11.80902,39203
11.81835,34419
11.82768,35894
11.83703,35893
11.84637,35802
11.85572,34849
11.86505,34889
11.87438,36575
11.88373,38439
11.89307,36503
11.90240,33462
11.91175,32669
11.92108,31527
11.93042,31143
11.93977,36968
11.94910,45395
11.95843,50975
11.96778,43952
11.97712,34632
11.98645,29659
11.99580,31164
12.00513,36554
12.01447,46526
12.02382,55928
12.03315,55204
12.04250,44207
12.05183,37860
12.06117,34098
12.07052,30954
12.07985,28958
12.08918,28458
12.09853,28276
12.10787,31273
12.11720,30944
12.12655,28973
12.13588,30837
12.14522,31819
12.15457,33682
12.16390,40081
12.17323,62501
12.18258,95770
12.19192,101159
12.20125,69310
12.21060,44781
12.21993,38067
12.22928,42203
12.23862,44431
12.24795,41893
12.25730,36964
12.26663,42180
12.27597,79226
12.28532,136460
12.29465,149771
12.30398,98927
12.31333,56394
12.32267,42389
12.33200,37851
12.34135,38666
12.35068,39878
12.36002,37331
12.36937,33447
12.37870,34403
12.38803,37627
12.39738,38230
12.40672,38143
12.41607,34378
12.42540,33894
12.43473,33011
12.44408,31733
12.45342,32718
12.46275,32956
12.47210,35308
12.48143,39553
12.49077,38857
12.50012,37519
12.50945,37805
12.51878,38213
12.52813,38034
12.53747,39740
12.54680,39729
12.55615,39899
12.56548,41637
12.57483,46956
12.58417,44690
12.59350,39381
12.60285,34904
12.61218,31839
12.62152,33732
12.63087,37038
12.64020,46941
12.64953,54334
12.65888,54851
12.66822,53327
12.67755,44208
12.68690,35666
12.69623,30721
12.70557,27064
12.71492,29714
12.72425,31931
12.73358,30773
12.74293,30245
12.75227,32350
12.76162,33818
12.77095,34080
12.78028,31055
12.78963,29707
12.79897,30419
12.80830,32719
12.81765,33912
12.82698,32413
12.83632,30790
12.84567,29972
12.85500,28183
12.86433,27881
12.87368,28320
12.88302,26557
12.89235,28094
12.90170,31832
12.91103,33183
12.92037,28481
12.92972,28600
12.93905,28596
12.94840,28337
12.95773,28818
12.96707,31328
12.97642,30272
12.98575,26256
12.99508,25223
13.00443,27573
13.01377,29473
13.02310,32281
13.03245,39887
13.04178,44961
13.05112,42436
13.06047,34359
13.06980,32259
13.07913,36838
13.08848,36246
13.09782,34555
13.10715,35271
13.11650,30904
13.12583,33364
13.13518,36324
13.14452,41483
13.15385,43600
13.16320,48517
13.17253,60339
13.18187,67351
13.19122,86234
13.20055,221196
13.20988,587328
13.21923,952030
13.22857,845056
13.23790,425900
13.24725,164975
13.25658,106980
13.26592,81386
13.27527,63002
13.28460,56753
13.29393,51581
13.30328,46725
13.31262,49024
13.32197,54191
13.33130,52480
13.34063,47212
13.34998,44202
13.35932,42563
13.36865,40285
13.37800,36571
13.38733,33973
13.39667,41180
13.40602,48291
13.41535,44528
13.42468,37091
13.43403,34958
13.44337,42634
13.45270,46609
13.46205,42833
13.47138,37972
13.48072,39219
13.49007,39314
13.49940,38187
13.50875,37051
13.51808,55875
13.52742,95167
13.53677,128512
13.54610,107823
13.55543,66124
13.56478,43947
13.57412,34073
13.58345,32382
13.59280,30456
13.60213,28324
13.61147,26680
13.62082,29020
13.63015,36627
13.63948,57056
13.64883,92028
13.65817,107069
13.66752,89563
13.67685,57109
13.68618,39961
13.69553,33756
13.70487,33627
13.71420,31670
13.72355,30707
13.73288,28014
13.74222,27713
13.75157,28464
13.76090,27793
13.77023,30248
13.77958,28768
13.78892,27870
13.79825,32276
13.80760,38977
13.81693,42294
13.82627,38535
13.83562,33747
13.84495,29785
13.85430,30363
13.86363,31785
13.87297,34619
13.88232,37306
13.89165,49691
13.90098,78421
13.91033,135053
13.91967,220413
13.92900,257386
13.93835,176371
13.94768,85721
13.95702,52131
13.96637,45704
13.97570,42134
13.98503,38015
13.99438,36642
14.00372,38914
14.01305,38228
14.02240,37488
14.03173,33939
14.04108,48131
14.05042,214264
14.05975,1193143
14.06910,3817109
14.07843,6401637
14.08777,5392429
14.09712,2209283
14.10645,466669
14.11578,93539
14.12513,54790
14.13447,44517
14.14380,44924
14.15315,45237
14.16248,47163
14.17182,48184
14.18117,51300
14.19050,66628
14.19983,90875
14.20918,98711
14.21852,71303
14.22787,44982
14.23720,33307
14.24653,30805
14.25588,31022
14.26522,31175
14.27455,33757
14.28390,32393
14.29323,31083
14.30257,30525
14.31192,31828
14.32125,39009
14.33058,51082
14.33993,56964
14.34927,51381
14.35860,41266
14.36795,34400
14.37728,29178
14.38663,28095
14.39597,29228
14.40530,28627
14.41465,28752
14.42398,27096
14.43332,27300
14.44267,27138
14.45200,32170
14.46133,43415
14.47068,56662
14.48002,55967
14.48935,48045
14.49870,38466
14.50803,32015
14.51737,29393
14.52672,26464
14.53605,26088
14.54538,29832
14.55473,30251
14.56407,33919
14.57342,35492
14.58275,35179
14.59208,31064
14.60143,29710
14.61077,29355
14.62010,29008
14.62945,29664
14.63878,33128
14.64812,46189
14.65747,65717
14.66680,72558
14.67613,64487
14.68548,48988
14.69482,38610
14.70415,34780
14.71350,32637
14.72283,32655
14.73217,30987
14.74152,32320
14.75085,33242
14.76020,34146
14.76953,32341
14.77887,33493
14.78822,35445
14.79755,36759
14.80688,34159
14.81623,35245
14.82557,34201
14.83490,33861
14.84425,31911
14.85358,29950
14.86292,31278
14.87227,40609
14.88160,49424
14.89093,45197
14.90028,38716
14.90962,33281
14.91895,33520
14.92830,33198
14.93763,31747
14.94698,30650
14.95632,31155
14.96565,31878
14.97500,32352
14.98433,34126
14.99367,31994
15.00302,33780
15.01235,38262
15.02168,40586
15.03103,36575
15.04037,33948
15.04970,35408
15.05905,39399
15.06838,38734
15.07772,37257
15.08707,34302
15.09640,31053
15.10573,28114
15.11508,30277
15.12442,34745
15.13377,41974
15.14310,45812
15.15243,38331
15.16178,33041
15.17112,29743
15.18045,28906
15.18980,30783
15.19913,38102
15.20847,53846
15.21782,76689
15.22715,84806
15.23648,71403
15.24583,52771
15.25517,41640
15.26450,34392
15.27385,33545
15.28318,35030
15.29253,31009
15.30187,29477
15.31120,29670
15.32055,32211
15.32988,33858
15.33922,41068
15.34857,41194
15.35790,39119
15.36723,40246
15.37658,45666
15.38592,46829
15.39525,40994
15.40460,31138
15.41393,29741
15.42327,31006
15.43262,34196
15.44195,32423
15.45128,32942
15.46063,30793
15.46997,30205
15.47932,29360
15.48865,32515
15.49798,33910
15.50733,37718
15.51667,49121
15.52600,60245
15.53535,62203
15.54468,49719
15.55402,38093
15.56337,29927
15.57270,30590
15.58203,29222
15.59138,29046
15.60072,30556
15.61005,31033
15.61940,30317
15.62873,32932
15.63807,36675
15.64742,38782
15.65675,38508
15.66610,40528
15.67543,39221
15.68477,36248
15.69412,35836
15.70345,44119
15.71278,51658
15.72213,49153
15.73147,40596
15.74080,34843
15.75015,36232
15.75948,43434
15.76882,46936
15.77817,45635
15.78750,39110
15.79683,35763
15.80618,36080
15.81552,38882
15.82485,50007
15.83420,82683
15.84353,143378
15.85288,183879
15.86222,140343
15.87155,78227
15.88090,53878
15.89023,53013
15.89957,58233
15.90892,64086
15.91825,58529
15.92758,46236
15.93693,38163
15.94627,34849
15.95560,33001
15.96495,33446
15.97428,36836
15.98362,46798
15.99297,57757
16.00230,63157
16.01165,55634
16.02098,42477
16.03032,36498
16.03967,37426
16.04900,39281
16.05833,40151
16.06768,40729
16.07702,39424
16.08635,36623
16.09570,34687
16.10503,35703
16.11437,38068
16.12372,42373
16.13305,42924
16.14238,41346
16.15173,37564
16.16107,37468
16.17040,35509
16.17975,33546
16.18908,32842
16.19843,36855
16.20777,42451
16.21710,50244
16.22645,62230
16.23578,69115
16.24512,70001
16.25447,59776
16.26380,51667
16.27313,53953
16.28248,96625
16.29182,238324
16.30115,455382
16.31050,500401
16.31983,314093
16.32917,129134
16.33852,55188
16.34785,37417
16.35718,32492
16.36653,29233
16.37587,30724
16.38522,33463
16.39455,32709
16.40388,33974
16.41323,33893
16.42257,34229
16.43190,35405
16.44125,34889
16.45058,36670
16.45992,42823
16.46927,45265
16.47860,44008
16.48793,49402
16.49728,52034
16.50662,46133
16.51595,43446
16.52530,41282
16.53463,41422
16.54397,37422
16.55332,34771
16.56265,33388
16.57200,31878
16.58133,34015
16.59067,34533
16.60002,35391
16.60935,35059
16.61868,36583
16.62803,40958
16.63737,44718
16.64670,49910
16.65605,44057
16.66538,40318
16.67472,37375
16.68407,36954
16.69340,41748
16.70273,47713
16.71208,48406
16.72142,40085
16.73075,35152
16.74010,41319
16.74943,72691
16.75878,100714
16.76812,89258
16.77745,56704
16.78680,37936
16.79613,31874
16.80547,32891
16.81482,34039
16.82415,38365
16.83348,44456
16.84283,47412
16.85217,43467
16.86150,39812
16.87085,32954
16.88018,34633
16.88952,32164
16.89887,34723
16.90820,42494
16.91753,51046
16.92688,55007
16.93622,47745
16.94557,46853
16.95490,49170
16.96423,52552
16.97358,51066
16.98292,47541
16.99225,40848
17.00160,36519
17.01093,34001
17.02027,39163
17.02962,58302
17.03895,84982
17.04828,88040
17.05763,64323
17.06697,45024
17.07630,38482
17.08565,37278
17.09498,35750
17.10433,35570
17.11367,35670
17.12300,34849
17.13235,39298
17.14168,45770
17.15102,45781
17.16037,40747
17.16970,33837
17.17903,33722
17.18838,36041
17.19772,36156
17.20705,34724
17.21640,30846
17.22573,31126
17.23507,29621
17.24442,30143
17.25375,31682
17.26308,33029
17.27243,37427
17.28177,43138
17.29112,46796
17.30045,45439
17.30978,42155
17.31913,44205
17.32847,45742
17.33780,43922
17.34715,37602
17.35648,34047
17.36582,33507
17.37517,50746
17.38450,90698
17.39383,143440
17.40318,137866
17.41252,87840
17.42185,55382
17.43120,44660
17.44053,41462
17.44987,39394
17.45922,39899
17.46855,37515
17.47790,39624
17.48723,52982
17.49657,172077
17.50592,741519
17.51525,1780193
17.52458,2372285
17.53393,1501265
17.54327,497348
17.55260,115354
17.56195,51524
17.57128,47434
17.58062,50629
17.58997,52790
17.59930,50404
17.60863,42878
17.61798,36969
17.62732,36883
17.63665,36006
17.64600,37351
17.65533,39922
17.66468,42916
17.67402,45275
17.68335,50707
17.69270,56310
17.70203,58392
17.71137,50570
17.72072,47178
17.73005,43539
17.73938,38602
17.74873,38649
17.75807,44664
17.76740,48454
17.77675,52815
17.78608,49577
17.79542,44310
17.80477,43409
17.81410,41169
17.82345,36458
17.83278,34313
17.84212,34854
17.85147,38871
17.86080,47509
17.87013,55219
17.87948,55863
17.88882,49593
17.89815,41916
17.90750,37819
17.91683,34451
17.92617,34852
17.93552,34873
17.94485,33974
17.95418,35874
17.96353,35870
17.97287,37011
17.98220,35934
17.99155,35667
18.00088,34733
18.01023,34434
18.01957,35256
18.02890,35587
18.03825,35029
18.04758,37543
18.05692,39940
18.06627,41422
18.07560,37829
18.08493,34520
18.09428,32638
18.10362,32816
18.11295,35504
18.12230,37590
18.13163,36772
18.14097,39080
18.15032,37758
18.15965,37596
18.16898,35454
18.17833,37501
18.18767,36537
18.19702,34339
18.20635,31085
18.21568,32044
18.22503,32465
18.23437,33938
18.24370,32699
18.25305,32266
18.26238,30602
18.27172,31603
18.28107,36068
18.29040,39671
18.29973,42275
18.30908,46529
18.31842,45979
18.32775,41843
18.33710,46071
18.34643,48947
18.35577,52423
18.36512,55337
18.37445,50913
18.38380,47477
18.39313,45046
18.40247,48556
18.41182,48579
18.42115,46598
18.43048,43541
18.43983,42599
18.44917,46159
18.45850,46694
18.46785,43096
18.47718,37042
18.48652,38448
18.49587,45567
18.50520,59154
18.51453,70053
18.52388,72011
18.53322,58340
18.54255,49591
18.55190,47604
18.56123,48753
18.57058,46049
18.57992,42116
18.58925,37515
18.59860,38253
18.60793,40778
18.61727,43795
18.62662,44531
18.63595,45093
18.64528,44502
18.65463,43958
18.66397,41970
18.67330,40962
18.68265,41495
18.69198,43132
18.70132,44397
18.71067,43952
18.72000,45277
18.72935,46438
18.73868,44544
18.74802,39990
18.75737,39514
18.76670,36906
18.77603,33885
18.78538,31277
18.79472,31138
18.80405,32950
18.81340,32894
18.82273,35226
18.83207,35397
18.84142,33974
18.85075,31695
18.86008,32265
18.86943,31238
18.87877,31412
18.88810,31620
18.89745,31075
18.90678,35992
18.91613,43133
18.92547,45674
18.93480,42438
18.94415,41040
18.95348,39181
18.96282,45408
18.97217,46964
18.98150,46842
18.99083,40635
19.00018,36064
19.00952,33878
19.01885,34997
19.02820,33384
19.03753,36182
19.04687,44567
19.05622,58822
19.06555,77183
19.07488,98886
19.08423,139066
19.09357,159532
19.10292,132538
19.11225,78944
19.12158,48180
19.13093,34127
19.14027,32799
19.14960,30421
19.15895,29249
19.16828,30345
19.17762,30025
19.18697,31577
19.19630,35251
19.20563,37573
19.21498,39193
19.22432,40395
19.23365,38273
19.24300,38126
19.25233,35126
19.26167,40100
19.27102,48420
19.28035,52418
19.28970,51107
19.29903,45914
19.30837,52144
19.31772,62507
19.32705,62750
19.33638,53516
19.34573,41580
19.35507,35914
19.36440,32800
19.37375,29869
19.38308,31553
19.39242,32230
19.40177,34762
19.41110,35783
19.42043,36491
19.42978,34376
19.43912,30560
19.44847,29799
19.45780,30157
19.46713,31758
19.47648,33849
19.48582,39469
19.49515,37330
19.50450,36594
19.51383,35894
19.52317,33293
19.53252,33651
19.54185,33525
19.55118,31507
19.56053,29799
19.56987,30400
19.57920,34882
19.58855,36856
19.59788,37395
19.60722,36024
19.61657,34838
19.62590,34479
19.63525,37786
19.64458,39339
19.65392,40919
19.66327,38241
19.67260,33845
19.68193,35257
19.69128,37673
19.70062,40070
19.70995,46521
19.71930,49188
19.72863,54429
19.73797,59899
19.74732,60493
19.75665,48551
19.76598,41599
19.77533,41874
19.78467,40111
19.79400,38888
19.80335,38622
19.81268,35249
19.82203,33142
19.83137,33490
19.84070,33090
19.85005,31387
19.85938,31224
19.86872,36617
19.87807,48492
19.88740,57791
19.89673,54568
19.90608,43413
19.91542,36994
19.92475,35847
19.93410,34942
19.94343,34650
19.95277,32693
19.96212,31946
19.97145,33302
19.98078,33655
19.99013,32044
19.99947,30009
20.00882,29265
20.01815,31332
20.02748,33744
20.03683,33399
20.04617,35970
20.05550,35541
20.06485,34997
20.07418,33819
20.08352,36473
20.09287,35954
20.10220,35185
20.11153,31677
20.12088,29688
20.13022,30849
20.13955,31342
20.14890,35597
20.15823,41209
20.16757,43817
20.17692,39901
20.18625,35324
20.19560,31663
20.20493,29420
20.21427,31702
20.22362,32607
20.23295,32784
20.24228,32254
20.25163,31429
20.26097,29599
20.27030,30237
20.27965,31252
20.28898,32161
20.29832,34932
20.30767,34249
20.31700,31370
20.32633,29487
20.33568,29526
20.34502,28624
20.35435,28844
20.36370,31095
20.37303,31999
20.38238,32208
20.39172,31591
20.40105,31396
20.41040,30729
20.41973,29154
20.42907,30076
20.43842,31178
20.44775,30861
20.45708,30852
20.46643,34145
20.47577,37893
20.48510,42950
20.49445,36844
20.50378,34496
20.51312,29709
20.52247,29405
20.53180,30707
20.54115,33149
20.55048,36524
20.55982,42534
20.56917,78260
20.57850,168384
20.58783,231933
20.59718,186194
20.60652,96024
20.61585,52687
20.62520,42113
20.63453,42820
20.64387,51030
20.65322,60620
20.66255,55877
20.67188,48287
20.68123,43395
20.69057,41479
20.69990,39464
20.70925,38432
20.71858,38375
20.72793,38928
20.73727,40055
20.74660,37824
20.75595,37361
20.76528,36164
20.77462,33051
20.78397,33726
20.79330,35847
20.80263,39781
20.81198,38942
20.82132,36137
20.83065,34194
20.84000,33147
20.84933,33333
20.85867,32899
20.86802,33708
20.87735,31053
20.88668,32188
20.89603,33219
20.90537,38064
20.91472,39780
20.92405,38207
20.93338,36890
20.94273,34055
20.95207,33301
20.96140,31854
20.97075,30018
20.98008,29713
20.98942,28497
20.99877,31284
21.00810,32309
21.01743,31173
21.02678,30336
21.03612,30792
21.04545,29967
21.05480,29903
21.06413,29651
21.07347,30658
21.08282,29930
21.09215,30215
21.10150,31531
21.11083,34661
21.12017,33878
21.12952,34196
21.13885,34492
21.14818,32819
21.15753,32839
21.16687,35043
21.17620,38421
21.18555,52377
21.19488,58008
21.20422,53390
21.21357,43034
21.22290,38345
21.23223,36915
21.24158,33870
21.25092,32869
21.26027,33180
21.26960,35871
21.27893,43105
21.28828,49058
21.29762,50284
21.30695,46456
21.31630,37877
21.32563,35744
21.33497,34391
21.34432,35174
21.35365,35470
21.36298,34885
21.37233,33465
21.38167,33763
21.39100,36596
21.40035,36027
21.40968,37449
21.41902,37608
21.42837,39034
21.43770,38619
21.44705,35982
21.45638,35756
21.46572,31446
21.47507,32859
21.48440,36302
21.49373,38550
21.50308,39594
21.51242,38204
21.52175,35997
21.53110,36767
21.54043,35805
21.54977,34582
21.55912,40554
21.56845,47403
21.57778,60642
21.58713,61340
21.59647,51323
21.60580,44134
21.61515,39745
21.62448,38000
21.63383,39467
21.64317,39243
21.65250,38198
21.66185,35186
21.67118,39389
21.68052,46663
21.68987,50825
21.69920,48258
21.70853,45568
21.71788,44757
21.72722,45011
21.73655,42425
21.74590,37422
21.75523,35647
21.76457,31991
21.77392,31828
21.78325,31936
21.79258,32612
21.80193,35964
21.81127,39033
21.82062,49065
21.82995,45879
21.83928,44638
21.84863,39068
21.85797,35774
21.86730,33230
21.87665,35361
21.88598,41279
21.89532,43971
21.90467,46555
21.91400,44397
21.92333,38926
21.93268,35623
21.94202,33625
21.95135,36607
21.96070,36123
21.97003,40510
21.97937,49296
21.98872,56673
21.99805,61625
22.00740,57104
22.01673,47174
22.02607,38218
22.03542,41002
22.04475,45753
22.05408,49717
22.06343,50351
22.07277,48249
22.08210,47183
22.09145,42916
22.10078,39727
22.11012,37393
22.11947,38976
22.12880,36576
22.13813,39746
22.14748,39594
22.15682,44610
22.16617,55031
22.17550,59547
22.18483,57147
22.19418,47858
22.20352,42952
22.21285,42122
22.22220,46220
22.23153,50151
22.24087,53917
22.25022,49274
22.25955,44340
22.26888,46526
22.27823,51435
22.28757,63342
22.29690,66726
22.30625,63641
22.31558,52913
22.32492,45671
22.33427,41638
22.34360,40922
22.35295,47028
22.36228,55625
22.37162,56172
22.38097,57036
22.39030,54251
22.39963,50441
22.40898,43251
22.41832,41476
22.42765,44294
22.43700,50003
22.44633,50071
22.45567,46671
22.46502,42619
22.47435,43182
22.48368,40481
22.49303,39256
22.50237,38294
22.51170,39438
22.52105,39973
22.53038,39660
22.53973,37015
22.54907,38710
22.55840,38432
22.56775,45302
22.57708,48754
22.58642,51191
22.59577,48674
22.60510,48049
22.61443,49438
22.62378,50017
22.63312,54386
22.64245,49503
22.65180,44592
22.66113,40785
22.67047,41107
22.67982,43516
22.68915,49002
22.69848,54467
22.70783,51088
22.71717,46205
22.72652,47316
22.73585,57485
22.74518,57918
22.75453,60145
22.76387,55221
22.77320,55258
22.78255,52376
22.79188,50640
22.80122,57115
22.81057,63547
22.81990,62170
22.82923,54994
22.83858,51209
22.84792,48919
22.85725,48063
22.86660,46322
22.87593,47077
22.88528,47572
22.89462,46929
22.90395,44404
22.91330,47434
22.92263,48714
22.93197,54475
22.94132,53050
22.95065,48254
22.95998,45309
22.96933,47164
22.97867,46607
22.98800,44218
22.99735,41227
23.00668,36792
23.01602,36883
23.02537,37923
23.03470,38322
23.04403,39643
23.05338,39171
23.06272,39198
23.07207,39861
23.08140,38968
23.09073,37816
23.10008,38514
23.10942,36882
23.11875,36217
23.12810,35857
23.13743,35256
23.14677,35429
23.15612,35982
23.16545,36398
23.17478,36561
23.18413,36985
23.19347,35262
23.20280,33863
23.21215,34165
23.22148,35997
23.23082,37086
23.24017,37819
23.24950,39645
23.25885,41614
23.26818,44419
23.27752,44749
23.28687,41108
23.29620,37701
23.30553,37088
23.31488,37127
23.32422,41903
23.33355,46244
23.34290,56286
23.35223,53939
23.36157,48260
23.37092,41481
23.38025,41250
23.38958,40147
23.39893,38883
23.40827,38002
23.41760,36099
23.42695,38814
23.43628,38767
23.44563,38687
23.45497,39195
23.46430,38611
23.47365,39101
23.48298,38994
23.49232,36491
23.50167,34868
23.51100,33985
23.52033,35943
23.52968,36143
23.53902,35591
23.54835,34879
23.55770,34186
23.56703,34204
23.57637,34782
23.58572,36688
23.59505,35803
23.60438,36096
23.61373,34402
23.62307,33647
23.63242,33333
23.64175,33413
23.65108,33738
23.66043,32668
23.66977,31936
23.67910,36042
23.68845,38350
23.69778,38282
23.70712,38670
23.71647,39642
23.72580,41534
23.73513,39437
23.74448,38132
23.75382,38395
23.76315,34474
23.77250,33681
23.78183,32733
23.79117,33419
23.80052,33665
23.80985,34552
23.81920,32892
23.82853,32359
23.83787,32608
23.84722,32946
23.85655,33386
23.86588,34560
23.87523,33114
23.88457,32432
23.89390,33114
23.90325,32715
23.91258,33321
23.92192,34007
23.93127,32652
23.94060,33336
23.94993,32295
23.95928,33011
23.96862,32128
23.97797,32680
23.98730,34264
23.99663,30802
24.00598,33429
24.01532,33092
24.02465,33652
24.03400,34738
24.04333,33626
24.05267,33914
24.06202,32173
24.07135,32218
24.08068,33541
24.09003,34919
24.09937,33980
24.10870,32992
24.11805,33187
24.12738,31117
24.13672,33293
24.14607,32008
24.15540,32433
24.16475,33280
24.17408,33382
24.18342,32272
24.19277,30572
24.20210,32316
24.21143,30584
24.22078,31580
24.23012,33073
24.23945,33883
24.24880,36660
24.25813,32662
24.26747,33580
24.27682,34780
24.28615,33628
24.29548,33328
24.30483,36043
24.31417,37410
24.32350,40657
24.33285,39155
24.34218,40246
24.35153,34675
24.36087,33426
24.37020,34858
24.37955,36577
24.38888,35183
24.39822,36150
24.40757,35133
24.41690,35785
24.42623,33672
24.43558,36693
24.44492,34486
24.45425,33580
24.46360,34072
24.47293,36271
24.48227,32839
24.49162,34081
24.50095,33420
24.51028,33119
24.51963,34231
24.52897,34328
24.53832,34182
24.54765,35904
24.55698,35181
24.56633,35777
24.57567,32968
24.58500,34373
24.59435,34403
24.60368,33977
24.61302,34984
24.62237,34261
24.63170,35909
24.64103,35770
24.65038,33049
24.65972,32769
24.66905,33584
24.67840,34433
24.68773,33137
24.69708,34697
24.70642,33190
24.71575,34354
24.72510,32610
24.73443,33299
24.74377,33929
24.75312,34227
24.76245,34021
24.77178,33884
24.78113,33191
24.79047,31400
24.79980,33329
24.80915,33713
24.81848,33440
24.82782,34646
24.83717,32540
24.84650,32884
24.85583,33803
24.86518,34105
24.87452,37331
24.88387,36490
24.89320,36909
24.90253,36446
24.91188,35561
24.92122,35078
24.93055,34658
24.93990,36554
24.94923,36770
24.95857,36022
24.96792,36470
24.97725,34588
24.98658,34344
24.99593,34546
25.00527,35934
25.01460,35520
25.02395,35846
25.03328,34453
25.04262,34251
25.05197,32742
25.06130,33485
25.07065,32704
25.07998,33537
25.08932,32677
25.09867,35175
25.10800,34336
25.11733,34476
25.12668,34511
25.13602,34844
25.14535,37189
25.15470,37032
25.16403,37620
25.17337,38223
25.18272,35129
25.19205,35530
25.20138,35075
25.21073,35367
25.22007,36223
25.22940,35427
25.23875,33956
25.24808,34876
25.25743,35284
25.26677,36953
25.27610,34489
25.28545,37239
25.29478,39237
25.30412,38797
25.31347,42632
25.32280,68162
25.33213,103793
25.34148,116892
25.35082,95503
25.36015,67106
25.36950,55972
25.37883,49345
25.38817,45437
25.39752,44598
25.40685,46169
25.41618,42894
25.42553,43290
25.43487,43669
25.44422,43605
25.45355,45631
25.46288,45575
25.47223,45950
25.48157,49528
25.49090,52764
25.50025,54318
25.50958,53027
25.51892,50516
25.52827,49869
25.53760,48429
25.54693,46789
25.55628,49795
25.56562,46792
25.57495,46414
25.58430,44124
25.59363,45803
25.60297,43435
25.61232,42251
25.62165,44854
25.63100,42066
25.64033,42582
25.64967,45884
25.65902,47268
25.66835,46748
25.67768,43702
25.68703,44719
25.69637,43027
25.70570,42018
25.71505,40289
25.72438,43694
25.73372,43472
25.74307,43408
25.75240,44576
25.76173,43224
25.77108,43353
25.78042,41277
25.78977,44303
25.79910,46618
25.80843,52406
25.81778,55930
25.82712,50889
25.83645,46789
25.84580,43324
25.85513,42089
25.86447,41579
25.87382,41855
25.88315,42645
25.89248,40748
25.90183,41260
25.91117,40316
25.92050,40648
25.92985,41123
25.93918,40289
25.94852,42633
25.95787,44381
25.96720,42967
25.97655,40695
25.98588,40187
25.99522,40789
26.00457,41431
26.01390,40420
26.02323,40986
26.03258,43038
26.04192,42764
26.05125,44761
26.06060,44280
26.06993,44090
26.07927,42969
26.08862,42130
26.09795,40489
26.10728,40131
26.11663,40114
26.12597,39501
26.13530,42492
26.14465,45336
26.15398,45993
26.16333,46990
26.17267,44620
26.18200,43338
26.19135,44104
26.20068,40846
26.21002,41773
26.21937,39152
26.22870,38551
26.23803,39588
26.24738,38202
26.25672,39560
26.26605,38109
26.27540,37623
26.28473,40089
26.29407,41319
26.30342,42700
26.31275,38742
26.32208,40768
26.33143,41545
26.34077,38629
26.35012,40992
26.35945,38696
26.36878,42954
26.37813,39375
26.38747,40870
26.39680,38309
26.40615,38495
26.41548,40779
26.42482,39611
26.43417,42026
26.44350,41758
26.45283,44668
26.46218,45352
26.47152,47226
26.48085,45443
26.49020,46335
26.49953,45170
26.50888,46388
26.51822,50301
26.52755,49515
26.53690,51335
26.54623,54359
26.55557,54275
26.56492,52000
26.57425,49361
26.58358,48698
26.59293,49816
26.60227,49314
26.61160,48693
26.62095,46374
26.63028,48184
26.63962,45689
26.64897,44934
26.65830,45868
26.66763,46793
26.67698,44874
26.68632,45200
26.69567,44110
26.70500,43521
26.71433,44168
26.72368,41063
26.73302,42440
26.74235,42235
26.75170,45136
26.76103,44231
26.77037,47224
26.77972,45952
26.78905,47155
26.79838,45816
26.80773,46271
26.81707,46450
26.82640,46677
26.83575,45944
26.84508,46898
26.85442,45021
26.86377,43828
26.87310,44240
26.88245,44071
26.89178,43601
26.90112,43353
26.91047,41374
26.91980,41971
26.92913,41912
26.93848,41274
26.94782,41130
26.95715,42248
26.96650,41399
26.97583,41077
26.98517,41354
26.99452,41719
27.00385,43942
27.01318,44038
27.02253,44166
27.03187,44201
27.04120,44784
27.05055,42458
27.05988,46026
27.06923,43720
27.07857,44478
27.08790,44116
27.09725,43282
27.10658,43451
27.11592,42554
27.12527,43967
27.13460,44452
27.14393,43737
27.15328,44553
27.16262,43429
27.17195,44477
27.18130,40820
27.19063,43470
27.19997,42930
27.20932,44144
27.21865,41668
27.22798,45695
27.23733,51794
27.24667,64411
27.25602,78325
27.26535,76752
27.27468,64921
27.28403,52697
27.29337,49769
27.30270,47881
27.31205,46897
27.32138,43705
27.33072,43250
27.34007,45249
27.34940,44121
27.35873,44949
27.36808,44824
27.37742,42356
27.38675,44104
27.39610,44118
27.40543,45567
27.41478,47038
27.42412,46083
27.43345,45130
27.44280,45892
27.45213,45849
27.46147,44636
27.47082,44086
27.48015,44463
27.48948,41934
27.49883,44646
27.50817,45621
27.51750,46950
27.52685,46188
27.53618,45613
27.54552,44899
27.55487,45244
27.56420,45371
27.57353,45149
27.58288,43046
27.59222,44957
27.60157,44346
27.61090,42931
27.62023,43621
27.62958,43602
27.63892,47682
27.64825,44942
27.65760,47380
27.66693,59817
27.67627,84436
27.68562,104006
27.69495,94535
27.70428,75020
27.71363,62113
27.72297,57468
27.73230,54900
27.74165,53560
27.75098,49421
27.76032,51331
27.76967,49656
27.77900,48967
27.78835,47952
27.79768,48459
27.80702,50266
27.81637,51076
27.82570,48714
27.83503,46584
27.84438,49428
27.85372,47940
27.86305,50830
27.87240,48289
27.88173,47313
27.89107,49639
27.90042,47938
27.90975,47668
27.91908,48452
27.92843,49705
27.93777,49423
27.94710,49202
27.95645,47842
27.96578,48514
27.97513,49893
27.98447,50305
27.99380,50034
28.00315,49009
28.01248,48812
28.02182,48011
28.03117,48243
28.04050,46994
28.04983,48438
28.05918,47310
28.06852,47027
28.07785,45790
28.08720,45453
28.09653,46448
28.10587,46375
28.11522,46180
28.12455,50564
28.13390,50908
28.14323,51402
28.15257,50145
28.16192,50605
28.17125,49323
28.18058,51960
28.18993,48956
28.19927,48681
28.20860,51178
28.21795,48291
28.22728,48698
28.23662,49036
28.24597,49175
28.25530,48723
28.26463,48566
28.27398,48637
28.28332,50230
28.29265,48267
28.30200,47328
28.31133,48791
28.32068,46474
28.33002,47913
28.33935,47177
28.34870,47575
28.35803,48287
28.36737,48094
28.37672,47406
28.38605,48965
28.39538,48306
28.40473,49125
28.41407,48647
28.42340,48576
28.43275,48842
28.44208,46683
28.45142,49317
28.46077,50465
28.47010,51581
28.47943,50314
28.48878,51832
28.49812,52719
28.50747,52948
28.51680,53455
28.52613,53490
28.53548,56367
28.54482,55308
28.55415,56723
28.56350,58156
28.57283,59480
28.58217,58797
28.59152,61874
28.60085,58960
28.61018,60423
28.61953,59994
28.62887,60684
28.63820,60350
28.64755,57360
28.65688,61902
28.66622,77690
28.67557,111527
28.68490,151649
28.69425,163966
28.70358,133203
28.71292,95995
28.72227,77260
28.73160,70611
28.74093,63017
28.75028,63122
28.75962,61507
28.76895,61496
28.77830,60412
28.78763,56956
28.79697,58305
28.80632,59376
28.81565,58646
28.82498,57977
28.83433,57510
28.84367,55996
28.85300,59462
28.86235,57455
28.87168,56118
28.88103,57435
28.89037,56194
28.89970,54969
28.90905,55347
28.91838,58174
28.92772,54257
28.93707,57506
28.94640,56993
28.95573,56825
28.96508,59758
28.97442,58409
28.98375,56505
28.99310,58022
29.00243,59000
29.01177,56714
29.02112,56488
29.03045,57168
29.03978,55279
29.04913,56726
29.05847,57997
29.06782,56910
29.07715,58789
29.08648,56132
29.09583,56643
29.10517,55892
29.11450,57006
29.12385,57122
29.13318,60319
29.14252,56348
29.15187,58822
29.16120,57011
29.17053,57819
29.17988,56296
29.18922,56436
29.19855,58944
29.20790,60075
29.21723,59859
29.22658,59780
29.23592,59939
29.24525,58580
29.25460,59985
29.26393,59551
29.27327,57782
29.28262,59510
29.29195,58878
29.30128,58443
29.31063,59525
29.31997,59433
29.32930,58324
29.33865,58324
29.34798,56242
29.35732,58400
29.36667,58683
29.37600,57346
29.38533,58687
29.39468,58754
29.40402,59555
29.41337,59093
29.42270,60356
29.43203,58278
29.44138,58109
29.45072,58417
29.46005,62416
29.46940,66781
29.47873,66363
29.48807,66329
29.49742,65911
29.50675,63245
29.51608,60384
29.52543,62295
29.53477,61207
29.54410,60191
29.55345,62124
29.56278,60659
29.57212,61696
29.58147,59679
29.59080,59023
29.60015,60348
29.60948,58300
29.61882,59586
29.62817,60276
29.63750,59196
29.64683,62133
29.65618,58562
29.66552,59005
29.67485,58886
29.68420,57342
29.69353,60993
29.70287,58571
29.71222,57231
29.72155,60017
29.73088,60947
29.74023,62190
29.74957,61952
29.75890,60555
29.76825,62378
29.77758,59852
29.78693,61794
29.79627,59671
29.80560,59476
29.81495,58686
29.82428,59284
29.83362,59135
29.84297,58746
29.85230,58700
29.86163,59215
29.87098,59680
29.88032,60832
29.88965,58527
29.89900,58143
29.90833,58855
29.91767,59392
29.92702,59965
29.93635,60201
29.94570,60617
29.95503,60988
29.96437,61343
29.97372,60859
29.98305,61749
29.99238,64083
30.00173,62853
30.01107,61411
30.02040,58596
30.02975,60648
30.03908,58979
30.04842,60192
30.05777,60641
30.06710,59093
30.07643,60502
30.08578,59537
30.09512,59102
30.10445,58661
30.11380,59745
30.12313,59489
30.13248,60789
30.14182,60317
30.15115,59644
30.16050,60575
30.16983,62888
30.17917,59614
30.18852,61350
30.19785,60082
30.20718,60269
30.21653,61872
30.22587,62120
30.23520,61078
30.24455,61543
30.25388,60904
30.26322,59608
30.27257,60995
30.28190,60933
30.29123,60590
30.30058,62660
30.30992,61714
30.31927,60636
30.32860,62284
30.33793,63292
30.34728,63881
30.35662,67927
30.36595,72521
30.37530,74338
30.38463,72381
30.39397,70030
30.40332,69633
30.41265,69175
30.42198,67061
30.43133,64119
30.44067,66700
30.45000,64653
30.45935,65864
30.46868,64093
30.47802,62731
30.48737,62360
30.49670,61725
30.50605,60247
30.51538,62357
30.52472,63643
30.53407,62854
30.54340,63521
30.55273,60911
30.56208,64713
30.57142,64113
30.58075,64879
30.59010,67363
30.59943,66777
30.60877,71027
30.61812,71694
30.62745,72429
30.63678,74989
30.64613,77580
30.65547,78682
30.66480,80167
30.67415,76653
30.68348,79214
30.69283,78465
30.70217,76454
30.71150,78063
30.72085,75439
30.73018,71753
30.73952,73186
30.74887,70214
30.75820,70649
30.76753,70188
30.77688,69626
30.78622,68504
30.79555,71390
30.80490,70355
30.81423,71611
30.82357,70030
30.83292,72009
30.84225,70329
30.85160,70795
30.86093,73237
30.87027,72765
30.87962,72926
30.88895,72390
30.89828,74910
30.90763,73638
30.91697,74973
30.92630,75381
30.93565,75032
30.94498,74613
30.95432,74800
30.96367,75221
30.97300,73032
30.98233,72732
30.99168,72348
31.00102,73064
31.01035,71756
31.01970,70271
31.02903,70898
31.03838,70249
31.04772,69319
31.05705,71456
31.06640,70388
31.07573,72140
31.08507,70013
31.09442,71351
31.10375,70919
31.11308,71161
31.12243,72837
31.13177,71290
31.14110,72338
31.15045,70751
31.15978,72456
31.16912,73002
31.17847,74346
31.18780,73770
31.19713,72916
31.20648,71909
31.21582,72628
31.22517,74607
31.23450,72710
31.24383,73427
31.25318,74712
31.26252,72563
31.27185,73485
31.28120,72611
31.29053,71284
31.29987,74578
31.30922,72348
31.31855,72767
31.32788,73805
31.33723,71537
31.34657,71648
31.35590,72487
31.36525,72518
