D:\数据\20211216\ZS1E-TJ-000230.D Thu Dec 16 18:49:52 2021
Start of data points
0.09757,28202
0.10690,28135
0.11623,27840
0.12558,29526
0.13492,30200
0.14425,27576
0.15360,28887
0.16293,29540
0.17227,27791
0.18162,28503
0.19095,27638
0.20028,29164
0.20963,28193
0.21897,27442
0.22830,27164
0.23765,27861
0.24698,28550
0.25632,27488
0.26567,27446
0.27500,27664
0.28435,27817
0.29368,27262
0.30302,28253
0.31237,26697
0.32170,27022
0.33103,27466
0.34038,27631
0.34972,27768
0.35905,27661
0.36840,27822
0.37773,28119
0.38707,27936
0.39642,26942
0.40575,26802
0.41508,27351
0.42443,26300
0.43377,27404
0.44312,26800
0.45245,22473
0.46178,20051
0.47113,18007
0.48047,11492
0.48980,6994
0.49915,5901
0.50848,6510
0.51782,7012
0.52717,5916
0.53650,5708
0.54583,5994
0.55518,5391
0.56452,5821
0.57385,5446
0.58320,4869
0.59253,5763
0.60187,4970
0.61122,5216
0.62055,5709
0.62990,5380
0.63923,4738
0.64857,5793
0.65792,4618
0.66725,5384
0.67658,5272
0.68593,4968
0.69527,5340
0.70460,5352
0.71395,5351
0.72328,4660
0.73262,5231
0.74197,5000
0.75130,4881
0.76063,4690
0.76998,5193
0.77932,4476
0.78865,4827
0.79800,5408
0.80733,4730
0.81668,4640
0.82602,4280
0.83535,4837
0.84470,4993
0.85403,4897
0.86337,4688
0.87272,4972
0.88205,4811
0.89138,4690
0.90073,4610
0.91007,4007
0.91940,4456
0.92875,4932
0.93808,5148
0.94742,4683
0.95677,4340
0.96610,4384
0.97543,5783
0.98478,4279
0.99412,4596
1.00347,4612
1.01280,4212
1.02213,4351
1.03148,4603
1.04082,4283
1.05015,5154
1.05950,4676
1.06883,4478
1.07817,4336
1.08752,4930
1.09685,4398
1.10618,4959
1.11553,4594
1.12487,4681
1.13420,4403
1.14355,4533
1.15288,4509
1.16223,4278
1.17157,4549
1.18090,3736
1.19025,4844
1.19958,4598
1.20892,4101
1.21827,3997
1.22760,4336
1.23693,3407
1.24628,4528
1.25562,4635
1.26495,4227
1.27430,3741
1.28363,4653
1.29297,4458
1.30232,4111
1.31165,3859
1.32098,5136
1.33033,3971
1.33967,4330
1.34902,4182
1.35835,4072
1.36768,4226
1.37703,3930
1.38637,4387
1.39570,3941
1.40505,4047
1.41438,4284
1.42372,4391
1.43307,4191
1.44240,4607
1.45173,4514
1.46108,4175
1.47042,4424
1.47975,4081
1.48910,4709
1.49843,4270
1.50777,4453
1.51712,4117
1.52645,4343
1.53580,5039
1.54513,3944
1.55447,4490
1.56382,3536
1.57315,4451
1.58248,4635
1.59183,4614
1.60117,4643
1.61050,6988
1.61985,14260
1.62918,21259
1.63852,25810
1.64787,31470
1.65720,41596
1.66653,51154
1.67588,54049
1.68522,51078
1.69455,44458
1.70390,33582
1.71323,23378
1.72258,18764
1.73192,21195
1.74125,24637
1.75060,27656
1.75993,29486
1.76927,30514
1.77862,32182
1.78795,34905
1.79728,34142
1.80663,33182
1.81597,33629
1.82530,34128
1.83465,33869
1.84398,33433
1.85332,33408
1.86267,32835
1.87200,35880
1.88133,40394
1.89068,53968
1.90002,76854
1.90937,104652
1.91870,144819
1.92803,224595
1.93738,363385
1.94672,515946
1.95605,639758
1.96540,651380
1.97473,561917
1.98407,416628
1.99342,291655
2.00275,214370
2.01208,175681
2.02143,178360
2.03077,199275
2.04010,185094
2.04945,147053
2.05878,117342
2.06813,98194
2.07747,81561
2.08680,73444
2.09615,72858
2.10548,80344
2.11482,82725
2.12417,72913
2.13350,67273
2.14283,78750
2.15218,105060
2.16152,104117
2.17085,95823
2.18020,95445
2.18953,162657
2.19887,311203
2.20822,299063
2.21755,180447
2.22688,117987
2.23623,126579
2.24557,165092
2.25492,440780
2.26425,2166811
2.27358,2695702
2.28293,2108265
2.29227,1387755
2.30160,983015
2.31095,2816259
2.32028,1.100773E+07
2.32962,1.646073E+07
2.33897,1.218984E+07
2.34830,5946842
2.35763,2513342
2.36698,1097611
2.37632,556012
2.38565,404533
2.39500,321704
2.40433,245582
2.41367,190684
2.42302,167851
2.43235,159374
2.44170,151250
2.45103,134514
2.46037,108642
2.46972,100464
2.47905,97947
2.48838,91891
2.49773,80518
2.50707,70003
2.51640,64852
2.52575,63825
2.53508,60578
2.54442,62061
2.55377,65918
2.56310,73294
2.57243,79333
2.58178,100814
2.59112,130774
2.60045,136524
2.60980,140756
2.61913,182469
2.62848,226815
2.63782,209227
2.64715,159784
2.65650,124316
2.66583,107513
2.67517,104856
2.68452,90006
2.69385,75396
2.70318,63830
2.71253,67393
2.72187,92967
2.73120,141281
2.74055,150330
2.74988,154105
2.75922,164939
2.76857,180039
2.77790,279642
2.78725,492823
2.79658,568807
2.80592,447597
2.81527,294528
2.82460,203417
2.83393,155102
2.84328,126446
2.85262,137848
2.86195,183530
2.87130,195191
2.88063,236319
2.88997,228132
2.89932,177789
2.90865,135121
2.91798,112356
2.92733,99986
2.93667,87214
2.94600,73806
2.95535,65903
2.96468,61968
2.97403,56895
2.98337,57810
2.99270,57580
3.00205,59547
3.01138,69899
3.02072,68139
3.03007,64645
3.03940,79174
3.04873,170328
3.05808,212515
3.06742,221021
3.07675,205685
3.08610,165186
3.09543,122294
3.10477,85355
3.11412,67690
3.12345,57298
3.13278,57033
3.14213,61836
3.15147,68497
3.16082,75408
3.17015,84053
3.17948,77477
3.18883,66601
3.19817,57697
3.20750,51847
3.21685,51706
3.22618,53616
3.23552,51722
3.24487,51162
3.25420,52068
3.26353,50465
3.27288,50779
3.28222,48149
3.29155,48800
3.30090,50912
3.31023,55224
3.31957,54340
3.32892,51108
3.33825,48844
3.34760,48200
3.35693,46921
3.36627,48151
3.37562,45501
3.38495,44278
3.39428,44601
3.40363,46208
3.41297,52293
3.42230,66911
3.43165,68948
3.44098,66552
3.45032,66722
3.45967,71477
3.46900,67621
3.47833,60895
3.48768,55792
3.49702,53765
3.50635,53806
3.51570,51493
3.52503,48297
3.53438,46238
3.54372,51908
3.55305,85234
3.56240,203355
3.57173,378311
3.58107,413108
3.59042,298189
3.59975,187853
3.60908,138813
3.61843,108420
3.62777,92266
3.63710,103426
3.64645,99001
3.65578,82273
3.66512,71843
3.67447,66289
3.68380,66155
3.69313,62024
3.70248,56270
3.71182,59678
3.72117,80591
3.73050,98790
3.73983,98844
3.74918,74654
3.75852,59573
3.76785,52297
3.77720,47167
3.78653,45630
3.79587,46047
3.80522,55763
3.81455,87822
3.82388,132248
3.83323,137503
3.84257,108893
3.85190,94077
3.86125,78562
3.87058,67131
3.87993,60268
3.88927,63109
3.89860,72703
3.90795,81479
3.91728,77536
3.92662,69478
3.93597,67720
3.94530,74304
3.95463,113447
3.96398,140815
3.97332,122152
3.98265,96943
3.99200,72812
4.00133,60880
4.01067,53873
4.02002,50107
4.02935,55171
4.03868,84706
4.04803,156401
4.05737,198544
4.06672,164204
4.07605,117898
4.08538,119478
4.09473,144022
4.10407,144163
4.11340,119909
4.12275,86318
4.13208,65255
4.14142,57465
4.15077,53876
4.16010,56787
4.16943,53402
4.17878,48718
4.18812,47584
4.19745,46279
4.20680,48506
4.21613,50243
4.22547,49647
4.23482,48053
4.24415,45171
4.25350,44875
4.26283,42140
4.27217,43840
4.28152,47096
4.29085,47782
4.30018,52394
4.30953,52478
4.31887,55605
4.32820,62270
4.33755,68433
4.34688,62718
4.35622,57392
4.36557,52455
4.37490,48624
4.38423,47566
4.39358,56107
4.40292,64803
4.41225,60424
4.42160,53341
4.43093,50337
4.44028,44962
4.44962,44213
4.45895,44162
4.46830,52754
4.47763,70770
4.48697,96490
4.49632,95312
4.50565,73046
4.51498,54350
4.52433,47663
4.53367,45337
4.54300,44278
4.55235,47316
4.56168,49638
4.57102,48547
4.58037,47486
4.58970,45188
4.59905,45944
4.60838,45144
4.61772,45830
4.62707,44801
4.63640,46281
4.64573,46974
4.65508,54165
4.66442,55898
4.67375,56725
4.68310,55026
4.69243,55026
4.70177,59490
4.71112,62778
4.72045,56145
4.72978,48947
4.73913,43398
4.74847,40825
4.75780,42001
4.76715,45391
4.77648,48292
4.78583,47955
4.79517,47311
4.80450,44948
4.81385,47218
4.82318,44829
4.83252,46320
4.84187,47658
4.85120,53685
4.86053,51844
4.86988,52128
4.87922,49994
4.88855,52412
4.89790,49309
4.90723,47258
4.91657,44088
4.92592,44673
4.93525,46403
4.94458,51244
4.95393,53467
4.96327,50478
4.97262,45180
4.98195,43246
4.99128,42728
5.00063,43546
5.00997,44689
5.01930,47736
5.02865,52878
5.03798,57706
5.04732,57642
5.05667,53792
5.06600,48894
5.07533,46018
5.08468,48703
5.09402,50861
5.10335,49064
5.11270,46297
5.12203,44490
5.13137,43162
5.14072,46331
5.15005,46556
5.15940,45555
5.16873,44583
5.17807,43786
5.18742,45487
5.19675,60238
5.20608,78608
5.21543,74638
5.22477,60399
5.23410,50658
5.24345,54445
5.25278,56172
5.26212,54650
5.27147,75275
5.28080,187641
5.29013,438435
5.29948,636584
5.30882,536929
5.31815,289037
5.32750,130825
5.33683,74351
5.34618,57051
5.35552,51472
5.36485,51790
5.37420,55682
5.38353,65479
5.39287,70941
5.40222,71344
5.41155,65488
5.42088,56261
5.43023,50818
5.43957,46889
5.44890,44525
5.45825,44569
5.46758,44044
5.47692,43321
5.48627,46348
5.49560,45402
5.50493,46659
5.51428,46443
5.52362,51224
5.53297,51279
5.54230,57016
5.55163,52581
5.56098,51314
5.57032,50167
5.57965,48616
5.58900,48307
5.59833,43872
5.60767,44803
5.61702,43155
5.62635,42658
5.63568,41948
5.64503,41335
5.65437,42068
5.66370,42650
5.67305,44874
5.68238,43983
5.69173,44704
5.70107,45723
5.71040,53817
5.71975,58581
5.72908,59988
5.73842,54979
5.74777,53581
5.75710,58857
5.76643,60556
5.77578,55353
5.78512,52950
5.79445,55323
5.80380,59311
5.81313,53451
5.82247,49852
5.83182,48626
5.84115,49806
5.85048,52071
5.85983,51766
5.86917,47468
5.87852,47026
5.88785,45609
5.89718,41739
5.90653,40547
5.91587,47787
5.92520,76213
5.93455,98657
5.94388,90463
5.95322,67184
5.96257,64534
5.97190,68307
5.98123,58673
5.99058,51511
5.99992,43148
6.00925,41835
6.01860,40101
6.02793,37964
6.03727,32480
6.04662,29317
6.05595,25013
6.06530,25436
6.07463,24143
6.08397,22655
6.09332,24369
6.10265,21865
6.11198,22413
6.12133,28259
6.13067,39112
6.14000,56654
6.14935,57283
6.15868,47718
6.16802,30180
6.17737,23279
6.18670,20362
6.19603,19867
6.20538,19570
6.21472,19477
6.22405,21433
6.23340,24601
6.24273,26159
6.25208,26253
6.26142,21471
6.27075,22524
6.28010,40626
6.28943,59530
6.29877,59214
6.30812,41078
6.31745,26915
6.32678,20957
6.33613,16689
6.34547,16708
6.35480,15867
6.36415,14687
6.37348,17480
6.38282,21094
6.39217,31580
6.40150,74347
6.41085,232163
6.42018,499053
6.42952,553760
6.43887,337720
6.44820,131467
6.45753,46247
6.46688,27555
6.47622,31033
6.48555,44278
6.49490,54979
6.50423,49579
6.51357,34226
6.52292,25323
6.53225,22973
6.54158,21697
6.55093,19856
6.56027,18269
6.56960,17148
6.57895,19034
6.58828,19816
6.59763,20471
6.60697,21361
6.61630,23262
6.62565,32500
6.63498,49247
6.64432,51311
6.65367,40563
6.66300,29783
6.67233,26540
6.68168,25923
6.69102,23858
6.70035,20231
6.70970,22433
6.71903,24196
6.72837,25669
6.73772,25494
6.74705,25199
6.75638,22414
6.76573,23235
6.77507,20437
6.78442,21105
6.79375,25454
6.80308,32286
6.81243,37418
6.82177,32730
6.83110,24626
6.84045,20469
6.84978,20347
6.85912,20817
6.86847,24858
6.87780,23228
6.88713,22401
6.89648,19807
6.90582,18893
6.91515,20675
6.92450,21626
6.93383,19934
6.94317,18191
6.95252,19687
6.96185,20675
6.97120,22489
6.98053,20961
6.98987,20642
6.99922,21117
7.00855,18912
7.01788,20756
7.02723,21105
7.03657,18735
7.04590,17091
7.05525,14040
7.06458,15286
7.07392,14515
7.08327,15173
7.09260,15258
7.10193,18673
7.11128,19928
7.12062,23001
7.12995,23731
7.13930,21550
7.14863,19992
7.15798,17515
7.16732,16944
7.17665,15714
7.18600,15948
7.19533,17578
7.20467,19195
7.21402,21630
7.22335,24991
7.23268,39809
7.24203,91640
7.25137,134923
7.26070,123270
7.27005,70062
7.27938,40328
7.28872,28681
7.29807,27421
7.30740,25067
7.31675,21077
7.32608,18105
7.33542,17754
7.34477,16948
7.35410,16943
7.36343,16539
7.37278,16626
7.38212,19575
7.39145,31915
7.40080,78369
7.41013,166728
7.41947,237555
7.42882,219043
7.43815,141244
7.44748,73381
7.45683,39590
7.46617,24196
7.47550,19931
7.48485,18890
7.49418,23585
7.50353,32133
7.51287,33996
7.52220,28133
7.53155,23125
7.54088,19218
7.55022,19000
7.55957,18991
7.56890,20932
7.57823,22092
7.58758,21764
7.59692,21322
7.60625,20690
7.61560,20965
7.62493,22665
7.63427,21511
7.64362,23758
7.65295,22803
7.66228,20191
7.67163,20090
7.68097,18546
7.69032,19049
7.69965,20235
7.70898,22949
7.71833,23431
7.72767,23261
7.73700,21931
7.74635,21287
7.75568,22288
7.76502,23587
7.77437,26464
7.78370,25390
7.79303,26584
7.80238,25160
7.81172,25237
7.82105,21216
7.83040,18689
7.83973,21215
7.84907,23263
7.85842,31094
7.86775,55129
7.87710,87081
7.88643,88057
7.89577,66827
7.90512,48087
7.91445,63256
7.92378,104857
7.93313,127746
7.94247,97660
7.95180,52866
7.96115,44992
7.97048,58808
7.97982,60504
7.98917,51952
7.99850,41616
8.00783,36973
8.01718,31471
8.02652,28094
8.03587,30643
8.04520,39464
8.05453,45414
8.06388,40833
8.07322,29531
8.08255,22883
8.09190,24542
8.10123,31046
8.11057,39273
8.11992,36857
8.12925,28916
8.13858,22042
8.14793,21657
8.15727,21294
8.16660,20880
8.17595,19532
8.18528,18874
8.19462,19114
8.20397,19482
8.21330,18504
8.22265,21343
8.23198,19513
8.24132,21669
8.25067,27030
8.26000,27425
8.26933,27661
8.27868,26390
8.28802,23322
8.29735,21674
8.30670,20343
8.31603,21721
8.32537,19118
8.33472,18755
8.34405,18367
8.35338,20213
8.36273,20393
8.37207,17654
8.38140,17707
8.39075,18035
8.40008,19669
8.40943,23488
8.41877,25093
8.42810,26722
8.43745,26167
8.44678,26037
8.45612,24303
8.46547,23322
8.47480,25070
8.48413,23709
8.49348,25805
8.50282,23892
8.51215,22780
8.52150,22078
8.53083,21382
8.54017,21598
8.54952,21085
8.55885,23519
8.56818,24505
8.57753,23962
8.58687,21879
8.59622,24229
8.60555,27551
8.61488,33980
8.62423,32963
8.63357,28962
8.64290,27860
8.65225,24957
8.66158,24617
8.67092,28176
8.68027,25995
8.68960,24865
8.69893,24023
8.70828,25051
8.71762,25819
8.72695,24631
8.73630,22744
8.74563,24301
8.75497,31208
8.76432,37490
8.77365,36406
8.78300,32020
8.79233,30941
8.80167,39597
8.81102,68135
8.82035,96058
8.82968,85019
8.83903,56163
8.84837,35369
8.85770,28386
8.86705,27724
8.87638,26695
8.88572,27342
8.89507,26905
8.90440,27831
8.91373,25861
8.92308,26290
8.93242,27913
8.94177,26528
8.95110,27524
8.96043,23595
8.96978,22790
8.97912,22571
8.98845,21874
8.99780,21710
9.00713,22268
9.01647,25023
9.02582,25788
9.03515,23974
9.04448,24077
9.05383,25086
9.06317,24609
9.07250,27883
9.08185,31598
9.09118,37462
9.10052,39321
9.10987,33701
9.11920,30440
9.12855,28774
9.13788,37547
9.14722,43687
9.15657,40830
9.16590,32115
9.17523,27312
9.18458,25207
9.19392,25862
9.20325,26720
9.21260,27379
9.22193,34912
9.23127,55379
9.24062,81266
9.24995,84071
9.25928,59234
9.26863,35385
9.27797,27580
9.28730,26624
9.29665,25565
9.30598,25959
9.31533,27048
9.32467,32922
9.33400,46282
9.34335,54403
9.35268,47444
9.36202,50057
9.37137,99254
9.38070,182605
9.39003,214586
9.39938,166264
9.40872,108648
9.41805,71818
9.42740,57879
9.43673,51992
9.44607,45620
9.45542,35765
9.46475,27617
9.47408,24981
9.48343,25743
9.49277,27106
9.50212,32062
9.51145,31340
9.52078,29854
9.53013,29400
9.53947,30624
9.54880,35633
9.55815,46259
9.56748,60904
9.57682,66800
9.58617,52125
9.59550,38902
9.60483,38416
9.61418,41102
9.62352,33868
9.63285,30783
9.64220,27917
9.65153,29364
9.66088,30639
9.67022,32649
9.67955,29765
9.68890,28469
9.69823,25196
9.70757,23605
9.71692,23974
9.72625,35610
9.73558,74197
9.74493,158010
9.75427,242615
9.76360,242486
9.77295,167160
9.78228,99505
9.79162,78975
9.80097,67891
9.81030,59352
9.81963,51844
9.82898,56292
9.83832,62599
9.84767,67162
9.85700,69481
9.86633,58541
9.87568,47711
9.88502,48044
9.89435,61884
9.90370,69788
9.91303,65929
9.92237,57562
9.93172,58819
9.94105,58940
9.95038,51024
9.95973,41961
9.96907,37608
9.97840,52406
9.98775,105998
9.99708,176834
10.00642,174314
10.01577,109452
10.02510,60062
10.03445,41596
10.04378,32585
10.05312,32821
10.06247,37562
10.07180,48967
10.08113,62787
10.09048,64163
10.09982,52974
10.10915,46967
10.11850,87338
10.12783,223632
10.13717,393814
10.14652,403798
10.15585,550584
10.16518,1395075
10.17453,2292709
10.18387,1944500
10.19320,778659
10.20255,185028
10.21188,55036
10.22123,39283
10.23057,34908
10.23990,40145
10.24925,52312
10.25858,56244
10.26792,46089
10.27727,34707
10.28660,29481
10.29593,30490
10.30528,31106
10.31462,29879
10.32395,30363
10.33330,27252
10.34263,25604
10.35197,28605
10.36132,27986
10.37065,29046
10.37998,29343
10.38933,27200
10.39867,27475
10.40802,26168
10.41735,26805
10.42668,29302
10.43603,33475
10.44537,36010
10.45470,34205
10.46405,38309
10.47338,38696
10.48272,35207
10.49207,28287
10.50140,25995
10.51073,24144
10.52008,24615
10.52942,24042
10.53875,27006
10.54810,24729
10.55743,26182
10.56677,27722
10.57612,28328
10.58545,28319
10.59480,27020
10.60413,27042
10.61347,26329
10.62282,26940
10.63215,29794
10.64148,35733
10.65083,35424
10.66017,31399
10.66950,30555
10.67885,35617
10.68818,40250
10.69752,36996
10.70687,35139
10.71620,35049
10.72553,43651
10.73488,43149
10.74422,39842
10.75357,56749
10.76290,128871
10.77223,209466
10.78158,205096
10.79092,179776
10.80025,287181
10.80960,504924
10.81893,555093
10.82827,352626
10.83762,142068
10.84695,58305
10.85628,40527
10.86563,37950
10.87497,36772
10.88430,41206
10.89365,49617
10.90298,50705
10.91232,47750
10.92167,39314
10.93100,38518
10.94035,38547
10.94968,37213
10.95902,34890
10.96837,35659
10.97770,35917
10.98703,30790
10.99638,30305
11.00572,32907
11.01505,34978
11.02440,32686
11.03373,31611
11.04307,32019
11.05242,31994
11.06175,30742
11.07108,31966
11.08043,33224
11.08977,31377
11.09910,27105
11.10845,29984
11.11778,36809
11.12713,40058
11.13647,35849
11.14580,32018
11.15515,30479
11.16448,30113
11.17382,29606
11.18317,30469
11.19250,27223
11.20183,27067
11.21118,26882
11.22052,28548
11.22985,32290
11.23920,31909
11.24853,32051
11.25787,45550
11.26722,71167
11.27655,80871
11.28588,69276
11.29523,47330
11.30457,36018
11.31392,32309
11.32325,28777
11.33258,31135
11.34193,39521
11.35127,48340
11.36060,54462
11.36995,53657
11.37928,44863
11.38862,38286
11.39797,38921
11.40730,47601
11.41663,51944
11.42598,47091
11.43532,38301
11.44465,30438
11.45400,29951
11.46333,32653
11.47268,45215
11.48202,53953
11.49135,46791
11.50070,36547
11.51003,28612
11.51937,28098
11.52872,27343
11.53805,26031
11.54738,26085
11.55673,29289
11.56607,41186
11.57540,71938
11.58475,119906
11.59408,129214
11.60342,101217
11.61277,72648
11.62210,57288
11.63143,46706
11.64078,40590
11.65012,40857
11.65947,44003
11.66880,46698
11.67813,46157
11.68748,41031
11.69682,34318
11.70615,34007
11.71550,33708
11.72483,34684
11.73417,33864
11.74352,33003
11.75285,33930
11.76218,32740
11.77153,33324
11.78087,37364
11.79020,45585
11.79955,47299
11.80888,42892
11.81822,37154
11.82757,39418
11.83690,40807
11.84625,40076
11.85558,42110
11.86492,37629
11.87427,36487
11.88360,38804
11.89293,37080
11.90228,35796
11.91162,34366
11.92095,31237
11.93030,31454
11.93963,37500
11.94897,54249
11.95832,61878
11.96765,59314
11.97698,43622
11.98633,36104
11.99567,34015
12.00500,40835
12.01435,57471
12.02368,79026
12.03303,71414
12.04237,51334
12.05170,40821
12.06105,36692
12.07038,32156
12.07972,29126
12.08907,30281
12.09840,32888
12.10773,36488
12.11708,34530
12.12642,32998
12.13575,31977
12.14510,32689
12.15443,33367
12.16377,40189
12.17312,66626
12.18245,110416
12.19178,127024
12.20113,89360
12.21047,52598
12.21982,39740
12.22915,39462
12.23848,44399
12.24783,43294
12.25717,39619
12.26650,36065
12.27585,54464
12.28518,86942
12.29452,103366
12.30387,78548
12.31320,52184
12.32253,42090
12.33188,40860
12.34122,40514
12.35055,38681
12.35990,36230
12.36923,34514
12.37858,37638
12.38792,40410
12.39725,40218
12.40660,39328
12.41593,34515
12.42527,34894
12.43462,36749
12.44395,36240
12.45328,33290
12.46263,35144
12.47197,39166
12.48130,41035
12.49065,39366
12.49998,42438
12.50932,44453
12.51867,44557
12.52800,45122
12.53733,45836
12.54668,44067
12.55602,44874
12.56537,50967
12.57470,59070
12.58403,55913
12.59338,44255
12.60272,38267
12.61205,34289
12.62140,36139
12.63073,45436
12.64007,60168
12.64942,76695
12.65875,83061
12.66808,72480
12.67743,59109
12.68677,45215
12.69610,36340
12.70545,31678
12.71478,35925
12.72412,39943
12.73347,40122
12.74280,39344
12.75215,38101
12.76148,39353
12.77082,37519
12.78017,34201
12.78950,31394
12.79883,30173
12.80818,29759
12.81752,33063
12.82685,34627
12.83620,35918
12.84553,38067
12.85487,34140
12.86422,31358
12.87355,31164
12.88288,29454
12.89223,31590
12.90157,34651
12.91090,33371
12.92025,31267
12.92958,29613
12.93893,31547
12.94827,33025
12.95760,35098
12.96695,36855
12.97628,33943
12.98562,28780
12.99497,28315
13.00430,28530
13.01363,32405
13.02298,35585
13.03232,44269
13.04165,50623
13.05100,47080
13.06033,37841
13.06967,34011
13.07902,39727
13.08835,40331
13.09770,37380
13.10703,35011
13.11637,34341
13.12572,34579
13.13505,39204
13.14438,42972
13.15373,49163
13.16307,66067
13.17240,86767
13.18175,92802
13.19108,83904
13.20042,97868
13.20977,198273
13.21910,323787
13.22843,314893
13.23778,198125
13.24712,125437
13.25645,119376
13.26580,99845
13.27513,68319
13.28448,49880
13.29382,40918
13.30315,35306
13.31250,35587
13.32183,41963
13.33117,49317
13.34052,44912
13.34985,42081
13.35918,39605
13.36853,38552
13.37787,35730
13.38720,37676
13.39655,44214
13.40588,53702
13.41522,53324
13.42457,40617
13.43390,36509
13.44323,44398
13.45258,48036
13.46192,43590
13.47127,40166
13.48060,41141
13.48993,40901
13.49928,37911
13.50862,37190
13.51795,49226
13.52730,88090
13.53663,127710
13.54597,109432
13.55532,69331
13.56465,46460
13.57398,38994
13.58333,35481
13.59267,32315
13.60200,30342
13.61135,29408
13.62068,29385
13.63002,29692
13.63937,31197
13.64870,35207
13.65805,42234
13.66738,40981
13.67672,36689
13.68607,31642
13.69540,27434
13.70473,26078
13.71408,26591
13.72342,27004
13.73275,27017
13.74210,26954
13.75143,26654
13.76077,28367
13.77012,31105
13.77945,31628
13.78878,30480
13.79813,31545
13.80747,36732
13.81680,39955
13.82615,37518
13.83548,33557
13.84483,31595
13.85417,30618
13.86350,32686
13.87285,34567
13.88218,37763
13.89152,49400
13.90087,70336
13.91020,115100
13.91953,186285
13.92888,227386
13.93822,167419
13.94755,90626
13.95690,49508
13.96623,46733
13.97557,41264
13.98492,38953
13.99425,37585
14.00358,38735
14.01293,39802
14.02227,36489
14.03162,32718
14.04095,44040
14.05028,176863
14.05963,1048746
14.06897,3604302
14.07830,6636783
14.08765,6129515
14.09698,2843643
14.10632,597673
14.11567,110717
14.12500,55872
14.13433,46076
14.14368,44928
14.15302,46606
14.16235,47837
14.17170,50354
14.18103,48786
14.19038,53074
14.19972,67114
14.20905,71476
14.21840,56076
14.22773,42016
14.23707,33215
14.24642,31198
14.25575,30311
14.26508,33090
14.27443,33571
14.28377,33143
14.29310,33842
14.30245,32296
14.31178,31908
14.32112,38224
14.33047,49099
14.33980,58928
14.34913,53689
14.35848,45268
14.36782,34704
14.37717,31351
14.38650,31690
14.39583,30604
14.40518,31901
14.41452,31644
14.42385,28367
14.43320,28761
14.44253,29445
14.45187,35088
14.46122,46339
14.47055,60671
14.47988,66743
14.48923,55119
14.49857,43663
14.50790,39423
14.51725,35714
14.52658,28642
14.53592,27727
14.54527,30388
14.55460,32735
14.56395,33010
14.57328,35470
14.58262,37311
14.59197,34844
14.60130,32026
14.61063,30669
14.61998,30327
14.62932,29200
14.63865,32072
14.64800,42664
14.65733,58828
14.66667,68856
14.67602,63833
14.68535,52810
14.69468,45076
14.70403,37404
14.71337,34120
14.72270,32540
14.73205,32282
14.74138,34105
14.75073,34193
14.76007,33381
14.76940,32810
14.77875,34118
14.78808,33596
14.79742,35675
14.80677,32610
14.81610,33663
14.82543,35186
14.83478,35463
14.84412,31025
14.85345,30338
14.86280,33412
14.87213,43638
14.88147,50838
14.89082,47305
14.90015,37848
14.90950,34939
14.91883,33515
14.92817,35114
14.93752,35051
14.94685,34020
14.95618,32238
14.96553,32530
14.97487,36451
14.98420,36761
14.99355,35805
15.00288,37456
15.01222,43642
15.02157,47698
15.03090,41605
15.04023,37391
15.04958,41216
15.05892,43870
15.06825,43957
15.07760,41476
15.08693,39542
15.09628,34920
15.10562,32556
15.11495,31833
15.12430,36798
15.13363,44698
15.14297,50413
15.15232,44354
15.16165,35980
15.17098,31488
15.18033,30303
15.18967,31998
15.19900,39752
15.20835,57320
15.21768,83605
15.22702,94823
15.23637,80191
15.24570,58170
15.25503,43087
15.26438,35927
15.27372,32941
15.28307,37436
15.29240,35598
15.30173,35334
15.31108,33532
15.32042,34807
15.32975,38432
15.33910,47840
15.34843,48323
15.35777,42016
15.36712,41713
15.37645,49045
15.38578,51139
15.39513,42958
15.40447,33709
15.41380,33015
15.42315,33309
15.43248,38637
15.44182,36326
15.45117,34649
15.46050,34960
15.46985,31937
15.47918,31493
15.48852,35222
15.49787,37232
15.50720,40283
15.51653,51341
15.52588,65964
15.53522,64153
15.54455,54365
15.55390,41951
15.56323,34985
15.57257,32918
15.58192,34023
15.59125,31286
15.60058,33242
15.60993,32008
15.61927,32783
15.62860,36999
15.63795,41524
15.64728,44976
15.65663,46543
15.66597,47428
15.67530,45010
15.68465,42642
15.69398,42623
15.70332,54825
15.71267,68479
15.72200,66606
15.73133,49531
15.74068,38974
15.75002,41074
15.75935,48140
15.76870,50260
15.77803,48034
15.78737,42923
15.79672,37931
15.80605,38267
15.81540,46202
15.82473,64429
15.83407,113839
15.84342,192151
15.85275,236437
15.86208,183105
15.87143,98409
15.88077,60361
15.89010,55752
15.89945,65983
15.90878,71180
15.91812,66768
15.92747,52686
15.93680,42473
15.94613,38358
15.95548,35757
15.96482,35555
15.97415,40155
15.98350,49196
15.99283,63268
16.00218,72657
16.01152,64347
16.02085,51148
16.03020,41300
16.03953,41160
16.04887,41892
16.05822,43554
16.06755,45519
16.07688,41777
16.08623,40927
16.09557,34974
16.10490,39424
16.11425,41410
16.12358,45601
16.13292,48718
16.14227,44087
16.15160,41118
16.16093,40646
16.17028,41432
16.17962,39534
16.18897,34929
16.19830,38029
16.20763,43177
16.21698,45965
16.22632,44295
16.23565,42436
16.24500,40891
16.25433,40448
16.26367,40467
16.27302,44475
16.28235,68224
16.29168,126361
16.30103,225853
16.31037,266670
16.31970,185011
16.32905,95589
16.33838,51538
16.34772,39930
16.35707,34049
16.36640,30978
16.37575,32071
16.38508,30244
16.39442,32003
16.40377,34073
16.41310,36034
16.42243,37547
16.43178,38312
16.44112,38196
16.45045,38200
16.45980,45481
16.46913,47650
16.47847,43329
16.48782,37584
16.49715,37161
16.50648,39353
16.51583,40312
16.52517,43221
16.53452,40783
16.54385,39747
16.55318,37983
16.56253,33451
16.57187,33679
16.58120,34364
16.59055,35863
16.59988,38397
16.60922,33362
16.61857,35379
16.62790,39228
16.63723,47029
16.64658,49693
16.65592,47792
16.66525,42974
16.67460,38876
16.68393,41025
16.69327,46320
16.70262,54421
16.71195,54684
16.72130,46214
16.73063,40702
16.73997,48119
16.74932,88019
16.75865,129835
16.76798,112954
16.77733,69937
16.78667,43398
16.79600,35586
16.80535,35171
16.81468,37575
16.82402,41544
16.83337,47599
16.84270,52408
16.85203,49561
16.86138,46834
16.87072,47502
16.88005,41908
16.88940,38672
16.89873,39571
16.90808,45620
16.91742,56401
16.92675,60672
16.93610,56316
16.94543,52147
16.95477,53673
16.96412,57611
16.97345,58844
16.98278,53341
16.99213,44724
17.00147,39935
17.01080,38154
17.02015,42785
17.02948,63362
17.03882,94385
17.04817,99214
17.05750,71062
17.06683,51495
17.07618,42320
17.08552,40877
17.09487,38466
17.10420,37130
17.11353,36137
17.12288,36111
17.13222,39604
17.14155,44679
17.15090,45603
17.16023,41631
17.16957,37066
17.17892,37458
17.18825,42945
17.19758,50530
17.20693,47722
17.21627,40150
17.22560,35274
17.23495,35800
17.24428,35930
17.25362,35744
17.26297,37025
17.27230,42260
17.28165,47175
17.29098,47483
17.30032,49306
17.30967,44578
17.31900,46177
17.32833,48231
17.33768,49187
17.34702,45815
17.35635,37983
17.36570,38942
17.37503,50183
17.38437,89741
17.39372,138102
17.40305,139388
17.41238,93016
17.42173,68591
17.43107,56475
17.44040,49286
17.44975,46457
17.45908,44958
17.46843,42299
17.47777,40569
17.48710,55178
17.49645,185683
17.50578,783076
17.51512,2036828
17.52447,2786823
17.53380,1806289
17.54313,609774
17.55248,141709
17.56182,56180
17.57115,47582
17.58050,55179
17.58983,55399
17.59917,52995
17.60852,47105
17.61785,40271
17.62720,38788
17.63653,39527
17.64587,39800
17.65522,41742
17.66455,48654
17.67388,52384
17.68323,57007
17.69257,62840
17.70190,67133
17.71125,62741
17.72058,54319
17.72992,49580
17.73927,44697
17.74860,44031
17.75793,47717
17.76728,52940
17.77662,54137
17.78595,54070
17.79530,52262
17.80463,48559
17.81398,47044
17.82332,43207
17.83265,40002
17.84200,39846
17.85133,43886
17.86067,51136
17.87002,61197
17.87935,62054
17.88868,53856
17.89803,47725
17.90737,42336
17.91670,38863
17.92605,37061
17.93538,37712
17.94472,39349
17.95407,38771
17.96340,39721
17.97273,42982
17.98208,40561
17.99142,38192
18.00077,38513
18.01010,38210
18.01943,37452
18.02878,35604
18.03812,37531
18.04745,39939
18.05680,42505
18.06613,47199
18.07547,43099
18.08482,37487
18.09415,35078
18.10348,36155
18.11283,39285
18.12217,45557
18.13150,44866
18.14085,42381
18.15018,42127
18.15952,42730
18.16887,43741
18.17820,41283
18.18755,42137
18.19688,41999
18.20622,37219
18.21557,36884
18.22490,37147
18.23423,38441
18.24358,38292
18.25292,36115
18.26225,34567
18.27160,34947
18.28093,43105
18.29027,48058
18.29962,51083
18.30895,51735
18.31828,50192
18.32763,49696
18.33697,51012
18.34632,53555
18.35565,58894
18.36498,61098
18.37433,58024
18.38367,55857
18.39300,51634
18.40235,50619
18.41168,51167
18.42102,50787
18.43037,45570
18.43970,44331
18.44903,49169
18.45838,51890
18.46772,47125
18.47705,41905
18.48640,42270
18.49573,51198
18.50507,62458
18.51442,77011
18.52375,77108
18.53310,68777
18.54243,53915
18.55177,46363
18.56112,48893
18.57045,47583
18.57978,43487
18.58913,39695
18.59847,38142
18.60780,40737
18.61715,47883
18.62648,48719
18.63582,46561
18.64517,49032
18.65450,48202
18.66383,45980
18.67318,43736
18.68252,44127
18.69185,44987
18.70120,47898
18.71053,48238
18.71988,50188
18.72922,52695
18.73855,51985
18.74790,49974
18.75723,45978
18.76657,42245
18.77592,38099
18.78525,35789
18.79458,35163
18.80393,37170
18.81327,38364
18.82260,39579
18.83195,38542
18.84128,38134
18.85062,39234
18.85997,39012
18.86930,37304
18.87863,34695
18.88798,33908
18.89732,33753
18.90667,40228
18.91600,46781
18.92533,51203
18.93468,51576
18.94402,46270
18.95335,50268
18.96270,52462
18.97203,62929
18.98137,62891
18.99072,57897
19.00005,48309
19.00938,43119
19.01873,42539
19.02807,42693
19.03740,43419
19.04675,51855
19.05608,68813
19.06542,81806
19.07477,91789
19.08410,111543
19.09345,136086
19.10278,120116
19.11212,88314
19.12147,57864
19.13080,44304
19.14013,38003
19.14948,37437
19.15882,35877
19.16815,35759
19.17750,35480
19.18683,36732
19.19617,41219
19.20552,44659
19.21485,45036
19.22418,46313
19.23353,45655
19.24287,44062
19.25222,40027
19.26155,38172
19.27088,38278
19.28023,41113
19.28957,47764
19.29890,51902
19.30825,57150
19.31758,68457
19.32692,71909
19.33627,61250
19.34560,51227
19.35493,41394
19.36428,36541
19.37362,37732
19.38295,36407
19.39230,35778
19.40163,40486
19.41097,43697
19.42032,41808
19.42965,39694
19.43900,37082
19.44833,34924
19.45767,34572
19.46702,35913
19.47635,37932
19.48568,40775
19.49503,43454
19.50437,43123
19.51370,41743
19.52305,38244
19.53238,39114
19.54172,38108
19.55107,35866
19.56040,37216
19.56973,37346
19.57908,38933
19.58842,42029
19.59775,41272
19.60710,39453
19.61643,39039
19.62578,39186
19.63512,42998
19.64445,46955
19.65380,44925
19.66313,42239
19.67247,38330
19.68182,38175
19.69115,35968
19.70048,35528
19.70983,36196
19.71917,41873
19.72850,50043
19.73785,58370
19.74718,61794
19.75652,50716
19.76587,41788
19.77520,43862
19.78453,45504
19.79388,45861
19.80322,45815
19.81257,42886
19.82190,40434
19.83123,39072
19.84058,40540
19.84992,35331
19.85925,35448
19.86860,44515
19.87793,58692
19.88727,75406
19.89662,69297
19.90595,51275
19.91528,43065
19.92463,38797
19.93397,41171
19.94330,38135
19.95265,36514
19.96198,36962
19.97133,39561
19.98067,37489
19.99000,36734
19.99935,32785
20.00868,33762
20.01802,35172
20.02737,37492
20.03670,39389
20.04603,40732
20.05538,43955
20.06472,39224
20.07405,40954
20.08340,40453
20.09273,44150
20.10207,40630
20.11142,35239
20.12075,33375
20.13008,32166
20.13943,33856
20.14877,38442
20.15812,47850
20.16745,50389
20.17678,47945
20.18613,41245
20.19547,35524
20.20480,32990
20.21415,33540
20.22348,36425
20.23282,36522
20.24217,36961
20.25150,36887
20.26083,34665
20.27018,33292
20.27952,32664
20.28885,36294
20.29820,35243
20.30753,36370
20.31687,35674
20.32622,30531
20.33555,32353
20.34490,30741
20.35423,32696
20.36357,32817
20.37292,34496
20.38225,35369
20.39158,36543
20.40093,32904
20.41027,32305
20.41960,32525
20.42895,33434
20.43828,34387
20.44762,34447
20.45697,35057
20.46630,36989
20.47563,43772
20.48498,46415
20.49432,40573
20.50365,37598
20.51300,35983
20.52233,34560
20.53168,33337
20.54102,33863
20.55035,36543
20.55970,45126
20.56903,82338
20.57837,184138
20.58772,292499
20.59705,236624
20.60638,126706
20.61573,61909
20.62507,46099
20.63440,40509
20.64375,42120
20.65308,42595
20.66242,38932
20.67177,40507
20.68110,39493
20.69043,38250
20.69978,40092
20.70912,40348
20.71847,39565
20.72780,40415
20.73713,38465
20.74648,39036
20.75582,39727
20.76515,37574
20.77450,36497
20.78383,36930
20.79317,40791
20.80252,43834
20.81185,44216
20.82118,40195
20.83053,38647
20.83987,35791
20.84920,34685
20.85855,35516
20.86788,31486
20.87722,32661
20.88657,33649
20.89590,34460
20.90525,35300
20.91458,38022
20.92392,36365
20.93327,34414
20.94260,34183
20.95193,32187
20.96128,30820
20.97062,31196
20.97995,31884
20.98930,31799
20.99863,30910
21.00797,33821
21.01732,32775
21.02665,33315
21.03598,33279
21.04533,33608
21.05467,33335
21.06402,33385
21.07335,32302
21.08268,33147
21.09203,31229
21.10137,34222
21.11070,35735
21.12005,35422
21.12938,35854
21.13872,34045
21.14807,36840
21.15740,36111
21.16673,36826
21.17608,41915
21.18542,51862
21.19475,60592
21.20410,58544
21.21343,47911
21.22277,41688
21.23212,39044
21.24145,38657
21.25080,35181
21.26013,35642
21.26947,38741
21.27882,42573
21.28815,46459
21.29748,47202
21.30683,45175
21.31617,40035
21.32550,36786
21.33485,36724
21.34418,35814
21.35352,36055
21.36287,36923
21.37220,35165
21.38153,34568
21.39088,34476
21.40022,34744
21.40955,34741
21.41890,36526
21.42823,38899
21.43758,39887
21.44692,37812
21.45625,37039
21.46560,36890
21.47493,37067
21.48427,38428
21.49362,38429
21.50295,40613
21.51228,37362
21.52163,37412
21.53097,35394
21.54030,35051
21.54965,36089
21.55898,36733
21.56832,42002
21.57767,49820
21.58700,52532
21.59633,49677
21.60568,41398
21.61502,38936
21.62437,38738
21.63370,39502
21.64303,39879
21.65238,38288
21.66172,34450
21.67105,37636
21.68040,41120
21.68973,44088
21.69907,43983
21.70842,44015
21.71775,44514
21.72708,47682
21.73643,50371
21.74577,46413
21.75510,41205
21.76445,36821
21.77378,36056
21.78313,36074
21.79247,35764
21.80180,38758
21.81115,39276
21.82048,45029
21.82982,46997
21.83917,46291
21.84850,43204
21.85783,38872
21.86718,36936
21.87652,39284
21.88585,44128
21.89520,47605
21.90453,45318
21.91387,42277
21.92322,38477
21.93255,35141
21.94188,34803
21.95123,34816
21.96057,38957
21.96992,41756
21.97925,47759
21.98858,54757
21.99793,57567
22.00727,57983
22.01660,47616
22.02595,41670
22.03528,41835
22.04462,45274
22.05397,46842
22.06330,44993
22.07263,43813
22.08198,41964
22.09132,42367
22.10065,40848
22.11000,42367
22.11933,39844
22.12867,38656
22.13802,39647
22.14735,38696
22.15670,42883
22.16603,48789
22.17537,50537
22.18472,51305
22.19405,45240
22.20338,43353
22.21273,43900
22.22207,44126
22.23140,45120
22.24075,47984
22.25008,44734
22.25942,41690
22.26877,41328
22.27810,45669
22.28743,48237
22.29678,52180
22.30612,54545
22.31545,54166
22.32480,47993
22.33413,43753
22.34348,43326
22.35282,43411
22.36215,44090
22.37150,47259
22.38083,45073
22.39017,44319
22.39952,41969
22.40885,38968
22.41818,37904
22.42753,37612
22.43687,39631
22.44620,39272
22.45555,41089
22.46488,42532
22.47422,42075
22.48357,40776
22.49290,38256
22.50223,40001
22.51158,45077
22.52092,50337
22.53027,53888
22.53960,49226
22.54893,45544
22.55828,47240
22.56762,52805
22.57695,57164
22.58630,57654
22.59563,60619
22.60497,61546
22.61432,61022
22.62365,56653
22.63298,52324
22.64233,46661
22.65167,43269
22.66100,40930
22.67035,40206
22.67968,38231
22.68902,46816
22.69837,47502
22.70770,47733
22.71705,44556
22.72638,44127
22.73572,46698
22.74507,47789
22.75440,52206
22.76373,49762
22.77308,50050
22.78242,49350
22.79175,46636
22.80110,46825
22.81043,46905
22.81977,48302
22.82912,45228
22.83845,44441
22.84778,46210
22.85713,44601
22.86647,44580
22.87582,45644
22.88515,48780
22.89448,50904
22.90383,49192
22.91317,50151
22.92250,47648
22.93185,45868
22.94118,44158
22.95052,41498
22.95987,41495
22.96920,41165
22.97853,40754
22.98788,41238
22.99722,40798
23.00655,41453
23.01590,37315
23.02523,40715
23.03457,38549
23.04392,42746
23.05325,44259
23.06260,42260
23.07193,39829
23.08127,38969
23.09062,41121
23.09995,39737
23.10928,36822
23.11863,36353
23.12797,36254
23.13730,37230
23.14665,39794
23.15598,43014
23.16532,47201
23.17467,47880
23.18400,45152
23.19333,43924
23.20268,43143
23.21202,42187
23.22135,42392
23.23070,43174
23.24003,40676
23.24938,41480
23.25872,45457
23.26805,47136
23.27740,46709
23.28673,45448
23.29607,41345
23.30542,41032
23.31475,40344
23.32408,44809
23.33343,48319
23.34277,56339
23.35210,55764
23.36145,49074
23.37078,44094
23.38012,38389
23.38947,38097
23.39880,39152
23.40813,40752
23.41748,40395
23.42682,40767
23.43617,38659
23.44550,38021
23.45483,41843
23.46418,40912
23.47352,41288
23.48285,39931
23.49220,37758
23.50153,37110
23.51087,35182
23.52022,38067
23.52955,40484
23.53888,42161
23.54823,46154
23.55757,46370
23.56690,45929
23.57625,42290
23.58558,42494
23.59493,40997
23.60427,41629
23.61360,40418
23.62295,38659
23.63228,36387
23.64162,37461
23.65097,35689
23.66030,36996
23.66963,36431
23.67898,38380
23.68832,40000
23.69765,41078
23.70700,40244
23.71633,40268
23.72567,40165
23.73502,40833
23.74435,40404
23.75368,40049
23.76303,37301
23.77237,38616
23.78172,35641
23.79105,36484
23.80038,36340
23.80973,39474
23.81907,33946
23.82840,34885
23.83775,36357
23.84708,34251
23.85642,35428
23.86577,34595
23.87510,34665
23.88443,37465
23.89378,36912
23.90312,39150
23.91245,39219
23.92180,35855
23.93113,37161
23.94047,35997
23.94982,34752
23.95915,37009
23.96850,36767
23.97783,35520
23.98717,36816
23.99652,35745
24.00585,38275
24.01518,39198
24.02453,35924
24.03387,36303
24.04320,34730
24.05255,35501
24.06188,34647
24.07122,35131
24.08057,35106
24.08990,36110
24.09923,35672
24.10858,35391
24.11792,37228
24.12725,35754
24.13660,34726
24.14593,36187
24.15528,35120
24.16462,36128
24.17395,35413
24.18330,35659
24.19263,34530
24.20197,34803
24.21132,34513
24.22065,34784
24.22998,37309
24.23933,39650
24.24867,41688
24.25800,42096
24.26735,39010
24.27668,39340
24.28602,37070
24.29537,35795
24.30470,38144
24.31403,36828
24.32338,38263
24.33272,39652
24.34207,39643
24.35140,38647
24.36073,39295
24.37008,38318
24.37942,38749
24.38875,39371
24.39810,38978
24.40743,37714
24.41677,37859
24.42612,37128
24.43545,34837
24.44478,35444
24.45413,35654
24.46347,35916
24.47280,36057
24.48215,34896
24.49148,35807
24.50083,36196
24.51017,37349
24.51950,34365
24.52885,36001
24.53818,37092
24.54752,36799
24.55687,36956
24.56620,36945
24.57553,35781
24.58488,35739
24.59422,37344
24.60355,38093
24.61290,39033
24.62223,41045
24.63157,43304
24.64092,46521
24.65025,45738
24.65958,43779
24.66893,41238
24.67827,40431
24.68762,41301
24.69695,38538
24.70628,35327
24.71563,38497
24.72497,39412
24.73430,35628
24.74365,36319
24.75298,37293
24.76232,36716
24.77167,36192
24.78100,36994
24.79033,37759
24.79968,35856
24.80902,36468
24.81835,37044
24.82770,37393
24.83703,37427
24.84637,38841
24.85572,37390
24.86505,36945
24.87440,37800
24.88373,39534
24.89307,37918
24.90242,40223
24.91175,40455
24.92108,39317
24.93043,38215
24.93977,38003
24.94910,39533
24.95845,39731
24.96778,40610
24.97712,39822
24.98647,38784
24.99580,39071
25.00513,37670
25.01448,37651
25.02382,38789
25.03315,38544
25.04250,37834
25.05183,38294
25.06118,40366
25.07052,39334
25.07985,37605
25.08920,37357
25.09853,39423
25.10787,39213
25.11722,39702
25.12655,38392
25.13588,38934
25.14523,40551
25.15457,42108
25.16390,43104
25.17325,38752
25.18258,41317
25.19192,41174
25.20127,40841
25.21060,39661
25.21995,40418
25.22928,40259
25.23862,40851
25.24797,41282
25.25730,39775
25.26663,39361
25.27598,39096
25.28532,39287
25.29465,40462
25.30400,41296
25.31333,45320
25.32267,62480
25.33202,109274
25.34135,167929
25.35068,181866
25.36003,132492
25.36937,84883
25.37870,67915
25.38805,62151
25.39738,57365
25.40673,55283
25.41607,52983
25.42540,51748
25.43475,53488
25.44408,52194
25.45342,50512
25.46277,51109
25.47210,51339
25.48143,54922
25.49078,53896
25.50012,58534
25.50945,57831
25.51880,55236
25.52813,55270
25.53747,54806
25.54682,52127
25.55615,53707
25.56548,52144
25.57483,52004
25.58417,48878
25.59352,48795
25.60285,48526
25.61218,48300
25.62153,48105
25.63087,47845
25.64020,47826
25.64955,47917
25.65888,48868
25.66822,51050
25.67757,48685
25.68690,46476
25.69623,46109
25.70558,44667
25.71492,46305
25.72425,46526
25.73360,47367
25.74293,45784
25.75227,46023
25.76162,49524
25.77095,47509
25.78030,45988
25.78963,47616
25.79897,50080
25.80832,51474
25.81765,51948
25.82698,50017
25.83633,48781
25.84567,49207
25.85500,47539
25.86435,45820
25.87368,45235
25.88302,44798
25.89237,45304
25.90170,46448
25.91103,45438
25.92038,43592
25.92972,44514
25.93905,43519
25.94840,47110
25.95773,45511
25.96708,46294
25.97642,43784
25.98575,43669
25.99510,42379
26.00443,43071
26.01377,43047
26.02312,44148
26.03245,44805
26.04178,42196
26.05113,46401
26.06047,46952
26.06980,46169
26.07915,45172
26.08848,44279
26.09782,44169
26.10717,42843
26.11650,45751
26.12583,43151
26.13518,45324
26.14452,48093
26.15387,49136
26.16320,48124
26.17253,47072
26.18188,47403
26.19122,45698
26.20055,43996
26.20990,43688
26.21923,43551
26.22857,44842
26.23792,42585
26.24725,43959
26.25658,42518
26.26593,42892
26.27527,41732
26.28460,44194
26.29395,41083
26.30328,43061
26.31263,45291
26.32197,44862
26.33130,44398
26.34065,43965
26.34998,45314
26.35932,46603
26.36867,46633
26.37800,45536
26.38733,43484
26.39668,43688
26.40602,43951
26.41535,45334
26.42470,45141
26.43403,44250
26.44337,47580
26.45272,49025
26.46205,49926
26.47138,50317
26.48073,50509
26.49007,50081
26.49942,50663
26.50875,50620
26.51808,49519
26.52743,51936
26.53677,54666
26.54610,56681
26.55545,54632
26.56478,53731
26.57412,55388
26.58347,50972
26.59280,52768
26.60213,53595
26.61148,54172
26.62082,53131
26.63015,49866
26.63950,49965
26.64883,46602
26.65817,48027
26.66752,51222
26.67685,47279
26.68620,48672
26.69553,46950
26.70487,46647
26.71422,47454
26.72355,47426
26.73288,47911
26.74223,48720
26.75157,50794
26.76090,55705
26.77025,59520
26.77958,56245
26.78892,56591
26.79827,51821
26.80760,49833
26.81693,52114
26.82628,50696
26.83562,48201
26.84495,50552
26.85430,51074
26.86363,48571
26.87298,48776
26.88232,48144
26.89165,48133
26.90100,45855
26.91033,49304
26.91967,47335
26.92902,45674
26.93835,43859
26.94768,45593
26.95703,45479
26.96637,46861
26.97570,46164
26.98505,45465
26.99438,46568
27.00372,46783
27.01307,50050
27.02240,51917
27.03175,50774
27.04108,49335
27.05042,47952
27.05977,47254
27.06910,48812
27.07843,48241
27.08778,47097
27.09712,46474
27.10645,49025
27.11580,45975
27.12513,48437
27.13447,49585
27.14382,47982
27.15315,50602
27.16248,47922
27.17183,51278
27.18117,46458
27.19050,47065
27.19985,49775
27.20918,48922
27.21853,47711
27.22787,49725
27.23720,48947
27.24655,49395
27.25588,51916
27.26522,52062
27.27457,52483
27.28390,51856
27.29323,50149
27.30258,51857
27.31192,49877
27.32125,49666
27.33060,52522
27.33993,50582
27.34927,49165
27.35862,48892
27.36795,50244
27.37728,50867
27.38663,50539
27.39597,51389
27.40532,48392
27.41465,50128
27.42398,50092
27.43333,49063
27.44267,52013
27.45200,49959
27.46135,51411
27.47068,52634
27.48002,54057
27.48937,50574
27.49870,54594
27.50803,55303
27.51738,53440
27.52672,56492
27.53605,54669
27.54540,53995
27.55473,55456
27.56407,52835
27.57342,53669
27.58275,51572
27.59210,51290
27.60143,50019
27.61077,49396
27.62012,48107
27.62945,48764
27.63878,50737
27.64813,50804
27.65747,52220
27.66680,58637
27.67615,74045
27.68548,88981
27.69482,87025
27.70417,76584
27.71350,67080
27.72283,60988
27.73218,58001
27.74152,56257
27.75085,55428
27.76020,53377
27.76953,54172
27.77888,55428
27.78822,53280
27.79755,52330
27.80690,53258
27.81623,51798
27.82557,53841
27.83492,52761
27.84425,54568
27.85358,54147
27.86293,53149
27.87227,51558
27.88160,52388
27.89095,51692
27.90028,53949
27.90962,51269
27.91897,51607
27.92830,54030
27.93765,53850
27.94698,55320
27.95632,52914
27.96567,54601
27.97500,51783
27.98433,52926
27.99368,51759
28.00302,51184
28.01235,53049
28.02170,50421
28.03103,53081
28.04037,50755
28.04972,51713
28.05905,52204
28.06838,53639
28.07773,52116
28.08707,52545
28.09640,52567
28.10575,52740
28.11508,53104
28.12443,60047
28.13377,58775
28.14310,63264
28.15245,59892
28.16178,56666
28.17112,56036
28.18047,55759
28.18980,56108
28.19913,55248
28.20848,53372
28.21782,52774
28.22715,53853
28.23650,53802
28.24583,53000
28.25517,54013
28.26452,52724
28.27385,52157
28.28318,53809
28.29253,51880
28.30187,50987
28.31122,53011
28.32055,52409
28.32988,54258
28.33923,53109
28.34857,52933
28.35790,51814
28.36725,54125
28.37658,55122
28.38592,55273
28.39527,55726
28.40460,54134
28.41393,54516
28.42328,54784
28.43262,53939
28.44195,54489
28.45130,54130
28.46063,54666
28.46997,55631
28.47932,56433
28.48865,54512
28.49800,58786
28.50733,56578
28.51667,55873
28.52602,57316
28.53535,55858
28.54468,58932
28.55403,58509
28.56337,59639
28.57270,61240
28.58205,60880
28.59138,63251
28.60072,63029
28.61007,65719
28.61940,63525
28.62873,67895
28.63808,62623
28.64742,63527
28.65677,64681
28.66610,72610
28.67543,83227
28.68478,103142
28.69412,108024
28.70345,97143
28.71280,80146
28.72213,71835
28.73147,69004
28.74082,67232
28.75015,66455
28.75948,65347
28.76883,61832
28.77817,61424
28.78750,60691
28.79685,60936
28.80618,62368
28.81552,60799
28.82487,60888
28.83420,61603
28.84355,61365
28.85288,61148
28.86222,60253
28.87157,60515
28.88090,62586
28.89023,60716
28.89958,58437
28.90892,57909
28.91825,59771
28.92760,59880
28.93693,63270
28.94627,59241
28.95562,61043
28.96495,60997
28.97428,62268
28.98363,65784
28.99297,64453
29.00230,62268
29.01165,62906
29.02098,61787
29.03033,63012
29.03967,60813
29.04900,63656
29.05835,63243
29.06768,63251
29.07702,62868
29.08637,60344
29.09570,62539
29.10503,61599
29.11438,59151
29.12372,62242
29.13305,61349
29.14240,61218
29.15173,61609
29.16107,61725
29.17042,60585
29.17975,62172
29.18908,66322
29.19843,73146
29.20777,84675
29.21712,87991
29.22645,85451
29.23578,77111
29.24513,72031
29.25447,67060
29.26380,65817
29.27315,67560
29.28248,65215
29.29182,65171
29.30117,63122
29.31050,64792
29.31983,66602
29.32918,65865
29.33852,62524
29.34785,64162
29.35720,64895
29.36653,65369
29.37587,65012
29.38522,64873
29.39455,64359
29.40390,65375
29.41323,67010
29.42257,63791
29.43192,66759
29.44125,65087
29.45058,69051
29.45993,67448
29.46927,72514
29.47860,74763
29.48795,74562
29.49728,75030
29.50662,69895
29.51597,68696
29.52530,67332
29.53463,66806
29.54398,63684
29.55332,66395
29.56265,66286
29.57200,63961
29.58133,65514
29.59068,63466
29.60002,63854
29.60935,63034
29.61870,64278
29.62803,64667
29.63737,64880
29.64672,64076
29.65605,64481
29.66538,64203
29.67473,59974
29.68407,65432
29.69340,65854
29.70275,64775
29.71208,65844
29.72142,67436
29.73077,67396
29.74010,66975
29.74945,64409
29.75878,65855
29.76812,67033
29.77747,62853
29.78680,65580
29.79613,63914
29.80548,63309
29.81482,61578
29.82415,64958
29.83350,64281
29.84283,63611
29.85217,64701
29.86152,65225
29.87085,64755
29.88018,63433
29.88953,63874
29.89887,66137
29.90820,66048
29.91755,66043
29.92688,65831
29.93623,66151
29.94557,64597
29.95490,66507
29.96425,67305
29.97358,65792
29.98292,67473
29.99227,70144
30.00160,69672
30.01093,70205
30.02028,68418
30.02962,64400
30.03895,66094
30.04830,66128
30.05763,65420
30.06697,65295
30.07632,66381
30.08565,63300
30.09498,66523
30.10433,64680
30.11367,69068
30.12302,67004
30.13235,67784
30.14168,67517
30.15103,68465
30.16037,70728
30.16970,69647
30.17905,74365
30.18838,70265
30.19772,71457
30.20707,68183
30.21640,67572
30.22573,67351
30.23508,67779
30.24442,67126
30.25375,68709
30.26310,67280
30.27243,67344
30.28177,66869
30.29112,66770
30.30045,67615
30.30980,67064
30.31913,66795
30.32847,66760
30.33782,67435
30.34715,67812
30.35648,67848
30.36583,71951
30.37517,72641
30.38450,79087
30.39385,87925
30.40318,101775
30.41252,113155
30.42187,114871
30.43120,104089
30.44053,93162
30.44988,84584
30.45922,82034
30.46857,76216
30.47790,73810
30.48723,73886
30.49658,71942
30.50592,69616
30.51525,71503
30.52460,72505
30.53393,70090
30.54327,70921
30.55262,71523
30.56195,71510
30.57128,70547
30.58063,74254
30.58997,76202
30.59930,75773
30.60865,77874
30.61798,81062
30.62732,83471
30.63667,82426
30.64600,87487
30.65535,87130
30.66468,87490
30.67402,88225
30.68337,86039
30.69270,86286
30.70203,83982
30.71138,82061
30.72072,80193
30.73005,77675
30.73940,78820
30.74873,73683
30.75807,73862
30.76742,75629
30.77675,75258
30.78608,77005
30.79543,76785
30.80477,74323
30.81410,75791
30.82345,75789
30.83278,73587
30.84213,75972
30.85147,79098
30.86080,77688
30.87015,82114
30.87948,81584
30.88882,84481
30.89817,86520
30.90750,88889
30.91683,87683
30.92618,87935
30.93552,91216
30.94485,86035
30.95420,86050
30.96353,87303
30.97287,82860
30.98222,87095
30.99155,83199
31.00088,83700
31.01023,78474
31.01957,76316
31.02892,77842
31.03825,77285
31.04758,73527
31.05693,74991
31.06627,74844
31.07560,75267
31.08495,73913
31.09428,72429
31.10362,75176
31.11297,75373
31.12230,75101
31.13163,76952
31.14098,77139
31.15032,76940
31.15965,78070
31.16900,79941
31.17833,78823
31.18767,80928
31.19702,82548
31.20635,81214
31.21570,81263
31.22503,82352
31.23437,82894
31.24372,82075
31.25305,83362
31.26238,84106
31.27173,83836
31.28107,83134
31.29040,80651
31.29975,80612
31.30908,80497
31.31842,81100
31.32777,80186
31.33710,82466
31.34643,78120
31.35578,79497
31.36512,77182
