D:\数据\20211216\ZS1E-TJ-000209.D Thu Dec 16 22:44:01 2021
Start of data points
0.09773,28805
0.10708,28393
0.11642,28696
0.12575,28850
0.13510,29157
0.14443,28504
0.15377,27554
0.16312,27521
0.17245,28541
0.18178,27649
0.19113,28165
0.20047,28977
0.20980,28234
0.21915,27413
0.22848,27688
0.23782,27364
0.24717,28212
0.25650,27807
0.26585,27766
0.27518,27179
0.28452,27963
0.29387,27893
0.30320,27382
0.31253,27281
0.32188,28039
0.33122,27209
0.34055,26389
0.34990,27522
0.35923,27014
0.36857,27558
0.37792,26978
0.38725,26932
0.39658,27456
0.40593,26609
0.41527,28078
0.42460,27624
0.43395,25810
0.44328,20876
0.45263,19259
0.46197,17281
0.47130,12899
0.48065,7414
0.48998,6461
0.49932,6463
0.50867,6094
0.51800,6207
0.52733,6642
0.53668,5710
0.54602,4945
0.55535,5565
0.56470,5595
0.57403,5147
0.58337,5537
0.59272,5691
0.60205,5721
0.61138,4964
0.62073,5267
0.63007,5402
0.63942,5645
0.64875,5039
0.65808,5250
0.66743,5101
0.67677,4965
0.68610,5122
0.69545,5232
0.70478,5378
0.71412,5266
0.72347,4898
0.73280,4703
0.74213,4869
0.75148,4605
0.76082,4985
0.77015,5274
0.77950,4671
0.78883,4835
0.79818,5037
0.80752,4994
0.81685,4610
0.82620,5931
0.83553,5763
0.84487,5030
0.85422,4582
0.86355,4886
0.87288,4611
0.88223,4816
0.89157,4836
0.90090,5032
0.91025,4694
0.91958,5332
0.92892,4379
0.93827,4340
0.94760,4975
0.95693,4600
0.96628,4398
0.97562,4442
0.98497,5240
0.99430,4494
1.00363,4540
1.01298,4998
1.02232,4542
1.03165,5244
1.04100,4717
1.05033,4605
1.05967,4288
1.06902,5033
1.07835,4220
1.08768,4278
1.09703,3625
1.10637,4329
1.11570,4185
1.12505,5124
1.13438,4717
1.14372,4270
1.15307,4601
1.16240,4728
1.17175,4976
1.18108,4039
1.19042,4628
1.19977,4551
1.20910,4234
1.21843,4715
1.22778,4372
1.23712,4468
1.24645,4163
1.25580,3942
1.26513,4565
1.27447,4162
1.28382,4635
1.29315,4384
1.30248,4828
1.31183,4392
1.32117,4374
1.33050,4304
1.33985,4117
1.34918,4449
1.35853,4624
1.36787,4855
1.37720,4798
1.38655,4655
1.39588,4239
1.40522,4206
1.41457,4129
1.42390,4805
1.43323,4446
1.44258,4841
1.45192,4591
1.46125,4928
1.47060,4383
1.47993,4935
1.48927,4296
1.49862,4350
1.50795,4446
1.51730,4710
1.52663,4997
1.53597,4525
1.54532,3915
1.55465,4135
1.56398,4572
1.57333,4402
1.58267,3766
1.59200,4408
1.60135,3902
1.61068,6499
1.62002,12044
1.62937,19571
1.63870,24569
1.64803,32504
1.65738,43382
1.66672,56193
1.67605,59994
1.68540,57606
1.69473,47731
1.70408,37999
1.71342,26720
1.72275,21046
1.73210,21386
1.74143,24190
1.75077,26269
1.76012,28348
1.76945,32067
1.77878,36997
1.78813,38375
1.79747,40229
1.80680,38388
1.81615,38710
1.82548,38852
1.83482,38440
1.84417,37358
1.85350,35874
1.86283,38205
1.87218,41074
1.88152,55766
1.89087,92598
1.90020,135057
1.90953,163974
1.91888,218580
1.92822,397294
1.93755,772249
1.94690,1325356
1.95623,1707942
1.96557,1699046
1.97492,1393250
1.98425,1027417
1.99358,754996
2.00293,604641
2.01227,531676
2.02160,492253
2.03095,440633
2.04028,333695
2.04962,234351
2.05897,172919
2.06830,128760
2.07765,103344
2.08698,86722
2.09632,75060
2.10567,71533
2.11500,67892
2.12433,68520
2.13368,72401
2.14302,91070
2.15235,113813
2.16170,107028
2.17103,98442
2.18037,102503
2.18972,198316
2.19905,337483
2.20838,290766
2.21773,170810
2.22707,121503
2.23640,139491
2.24575,209152
2.25508,714461
2.26443,2446612
2.27377,2907448
2.28310,2225649
2.29245,1425925
2.30178,1059714
2.31112,3203207
2.32047,1.079242E+07
2.32980,1.432675E+07
2.33913,9693064
2.34848,4547176
2.35782,1912028
2.36715,865539
2.37650,513408
2.38583,427360
2.39517,335647
2.40452,247381
2.41385,200161
2.42320,178946
2.43253,180037
2.44187,161193
2.45122,131718
2.46055,114671
2.46988,136836
2.47923,180606
2.48857,175053
2.49790,137911
2.50725,106273
2.51658,94898
2.52592,81185
2.53527,77716
2.54460,76347
2.55393,81333
2.56328,92095
2.57262,316738
2.58195,484746
2.59130,414664
2.60063,318024
2.60998,266050
2.61932,269863
2.62865,288441
2.63800,250668
2.64733,189363
2.65667,163372
2.66602,156522
2.67535,138125
2.68468,109753
2.69403,88903
2.70337,75098
2.71270,78016
2.72205,117597
2.73138,170039
2.74072,183078
2.75007,187155
2.75940,213403
2.76873,277681
2.77808,409746
2.78742,495008
2.79677,431244
2.80610,329897
2.81543,238070
2.82478,194809
2.83412,169588
2.84345,149835
2.85280,163093
2.86213,215735
2.87147,268821
2.88082,326768
2.89015,269415
2.89948,192493
2.90883,146392
2.91817,125752
2.92750,111322
2.93685,94757
2.94618,81053
2.95552,75524
2.96487,67242
2.97420,64190
2.98355,62473
2.99288,62760
3.00222,72242
3.01157,81175
3.02090,80836
3.03023,73953
3.03958,133278
3.04892,231259
3.05825,250456
3.06760,252875
3.07693,235029
3.08627,186621
3.09562,129446
3.10495,94578
3.11428,72451
3.12363,61265
3.13297,62681
3.14232,68902
3.15165,74515
3.16098,88948
3.17033,94133
3.17967,85043
3.18900,75341
3.19835,66908
3.20768,60118
3.21702,57944
3.22637,57828
3.23570,55894
3.24503,55912
3.25438,54149
3.26372,53330
3.27305,52507
3.28240,50301
3.29173,51470
3.30107,54882
3.31042,59585
3.31975,56115
3.32910,52241
3.33843,50744
3.34777,52414
3.35712,53455
3.36645,51020
3.37578,51375
3.38513,49511
3.39447,48095
3.40380,49864
3.41315,61610
3.42248,76686
3.43182,78235
3.44117,74887
3.45050,72869
3.45983,80562
3.46918,77701
3.47852,70489
3.48785,65501
3.49720,63809
3.50653,60971
3.51588,55799
3.52522,56426
3.53455,52198
3.54390,56451
3.55323,89735
3.56257,220091
3.57192,413445
3.58125,457887
3.59058,323671
3.59993,202777
3.60927,148301
3.61860,120312
3.62795,145053
3.63728,132133
3.64662,115189
3.65597,93782
3.66530,79769
3.67463,77467
3.68398,75263
3.69332,69568
3.70267,64201
3.71200,64528
3.72133,85201
3.73068,109991
3.74002,102415
3.74935,81609
3.75870,66037
3.76803,58518
3.77737,53350
3.78672,49981
3.79605,47896
3.80538,48960
3.81473,56697
3.82407,65051
3.83340,71848
3.84275,63839
3.85208,60037
3.86142,58868
3.87077,56131
3.88010,57463
3.88945,64124
3.89878,78660
3.90812,85839
3.91747,82066
3.92680,76717
3.93613,77404
3.94548,88056
3.95482,112127
3.96415,146802
3.97350,138703
3.98283,112671
3.99217,81750
4.00152,66458
4.01085,84220
4.02018,78890
4.02953,76918
4.03887,87129
4.04822,104794
4.05755,112257
4.06688,103604
4.07623,110632
4.08557,147599
4.09490,179616
4.10425,175069
4.11358,140494
4.12292,101736
4.13227,75854
4.14160,66260
4.15093,58106
4.16028,61169
4.16962,57953
4.17895,56872
4.18830,50538
4.19763,49707
4.20697,49677
4.21632,52525
4.22565,51899
4.23500,51911
4.24433,53077
4.25367,50647
4.26302,48588
4.27235,50321
4.28168,56155
4.29103,59104
4.30037,61483
4.30970,60024
4.31905,68179
4.32838,74963
4.33772,80984
4.34707,77412
4.35640,70470
4.36573,61227
4.37508,54870
4.38442,57578
4.39375,71649
4.40310,72578
4.41243,64889
4.42178,56575
4.43112,50444
4.44045,49503
4.44980,46335
4.45913,49117
4.46847,55968
4.47782,78544
4.48715,100398
4.49648,104226
4.50583,79241
4.51517,61363
4.52450,52053
4.53385,48240
4.54318,51371
4.55252,54931
4.56187,55332
4.57120,55887
4.58053,52781
4.58988,50022
4.59922,49476
4.60857,51000
4.61790,48716
4.62723,46372
4.63658,46980
4.64592,49719
4.65525,58333
4.66460,63886
4.67393,62849
4.68327,62647
4.69262,57078
4.70195,57540
4.71128,56732
4.72063,51585
4.72997,47447
4.73930,43569
4.74865,48968
4.75798,55417
4.76733,55362
4.77667,54751
4.78600,53094
4.79535,51926
4.80468,50205
4.81402,49510
4.82337,51922
4.83270,53281
4.84203,60467
4.85138,61156
4.86072,55896
4.87005,62054
4.87940,77192
4.88873,85028
4.89807,77007
4.90742,62060
4.91675,54502
4.92608,50186
4.93543,53364
4.94477,58655
4.95412,59165
4.96345,56664
4.97278,51560
4.98213,48086
4.99147,47061
5.00080,49304
5.01015,54008
5.01948,56471
5.02882,66367
5.03817,72257
5.04750,70311
5.05683,62779
5.06618,54900
5.07552,55099
5.08485,58229
5.09420,58406
5.10353,56217
5.11287,52291
5.12222,49227
5.13155,50127
5.14090,50160
5.15023,52178
5.15957,55972
5.16892,59499
5.17825,55329
5.18758,57483
5.19693,78206
5.20627,96924
5.21560,83944
5.22495,68281
5.23428,59347
5.24362,60543
5.25297,64423
5.26230,62313
5.27163,86321
5.28098,233498
5.29032,539040
5.29965,763024
5.30900,628621
5.31833,322440
5.32768,142301
5.33702,79523
5.34635,64062
5.35570,59977
5.36503,59505
5.37437,66106
5.38372,77726
5.39305,83130
5.40238,75968
5.41173,67480
5.42107,58204
5.43040,53183
5.43975,48683
5.44908,48264
5.45842,46481
5.46777,44346
5.47710,45740
5.48643,47843
5.49578,48342
5.50512,51762
5.51447,54138
5.52380,60186
5.53313,71091
5.54248,77167
5.55182,72299
5.56115,67948
5.57050,62511
5.57983,62816
5.58917,57103
5.59852,50304
5.60785,47854
5.61718,47998
5.62653,46452
5.63587,45320
5.64520,45925
5.65455,46853
5.66388,49905
5.67322,63683
5.68257,100900
5.69190,100958
5.70125,83304
5.71058,70496
5.71992,63466
5.72927,58456
5.73860,55673
5.74793,58183
5.75728,67084
5.76662,72203
5.77595,78954
5.78530,91736
5.79463,89313
5.80397,72428
5.81332,60770
5.82265,54162
5.83198,53983
5.84133,62237
5.85067,61697
5.86002,58361
5.86935,50488
5.87868,47042
5.88803,40524
5.89737,32982
5.90670,31329
5.91605,38761
5.92538,59057
5.93472,75659
5.94407,74213
5.95340,83878
5.96273,96594
5.97208,85706
5.98142,66037
5.99075,50948
6.00010,42338
6.00943,38414
6.01877,36893
6.02812,35691
6.03745,29654
6.04680,26610
6.05613,26764
6.06547,24613
6.07482,25901
6.08415,27732
6.09348,23175
6.10283,21719
6.11217,20636
6.12150,25249
6.13085,37062
6.14018,53788
6.14952,59159
6.15887,47184
6.16820,31062
6.17753,24183
6.18688,20266
6.19622,20416
6.20555,20061
6.21490,20194
6.22423,20824
6.23358,23391
6.24292,26306
6.25225,26156
6.26160,24703
6.27093,29875
6.28027,54495
6.28962,74018
6.29895,64433
6.30828,46010
6.31763,27978
6.32697,22351
6.33630,20163
6.34565,19386
6.35498,19799
6.36432,20222
6.37367,19339
6.38300,25895
6.39233,51674
6.40168,194544
6.41102,739006
6.42037,1562409
6.42970,1675310
6.43903,993085
6.44838,369856
6.45772,118742
6.46705,49744
6.47640,35164
6.48573,30288
6.49507,27847
6.50442,24487
6.51375,24395
6.52308,24960
6.53243,26530
6.54177,25484
6.55110,23026
6.56045,21442
6.56978,19982
6.57913,21156
6.58847,20897
6.59780,22476
6.60715,22735
6.61648,22625
6.62582,23961
6.63517,26451
6.64450,28943
6.65383,27879
6.66318,28855
6.67252,31047
6.68185,29040
6.69120,25749
6.70053,25949
6.70987,42480
6.71922,46505
6.72855,41375
6.73788,34999
6.74723,29649
6.75657,27500
6.76592,24842
6.77525,22780
6.78458,24455
6.79393,27171
6.80327,34723
6.81260,33961
6.82195,31820
6.83128,27017
6.84062,25221
6.84997,26447
6.85930,30348
6.86863,31545
6.87798,27121
6.88732,23187
6.89665,22365
6.90600,22501
6.91533,26563
6.92467,28314
6.93402,28189
6.94335,25354
6.95270,22844
6.96203,23778
6.97137,25238
6.98072,26956
6.99005,27148
6.99938,26088
7.00873,23550
7.01807,24050
7.02740,22059
7.03675,20655
7.04608,20008
7.05542,17470
7.06477,16125
7.07410,16886
7.08343,17562
7.09278,19899
7.10212,21805
7.11145,25689
7.12080,27722
7.13013,26958
7.13948,23308
7.14882,21093
7.15815,19721
7.16750,18278
7.17683,18199
7.18617,17951
7.19552,18661
7.20485,21180
7.21418,22492
7.22353,25771
7.23287,51481
7.24220,110835
7.25155,163470
7.26088,145767
7.27022,82763
7.27957,45572
7.28890,32997
7.29823,30001
7.30758,27952
7.31692,23700
7.32627,20432
7.33560,18932
7.34493,20047
7.35428,19502
7.36362,18931
7.37295,19185
7.38230,20545
7.39163,34333
7.40097,84865
7.41032,195030
7.41965,278111
7.42898,259034
7.43833,166929
7.44767,86877
7.45700,44770
7.46635,26871
7.47568,23421
7.48503,24106
7.49437,32400
7.50370,35955
7.51305,30689
7.52238,25371
7.53172,22320
7.54107,19071
7.55040,19643
7.55973,20869
7.56908,21640
7.57842,25274
7.58775,27084
7.59710,25435
7.60643,26815
7.61577,27756
7.62512,27890
7.63445,32323
7.64378,29285
7.65313,27211
7.66247,23453
7.67182,22464
7.68115,22295
7.69048,24364
7.69983,25634
7.70917,26062
7.71850,28662
7.72785,26955
7.73718,25745
7.74652,25213
7.75587,30395
7.76520,34597
7.77453,36695
7.78388,32720
7.79322,33811
7.80255,33429
7.81190,29947
7.82123,24575
7.83057,21793
7.83992,22273
7.84925,24747
7.85860,34704
7.86793,64814
7.87727,96834
7.88662,102979
7.89595,76492
7.90528,57287
7.91463,73092
7.92397,126856
7.93330,149721
7.94265,112017
7.95198,90600
7.96132,111892
7.97067,108671
7.98000,82302
7.98933,59758
7.99868,42095
8.00802,34183
8.01735,29909
8.02670,30185
8.03603,31663
8.04538,43483
8.05472,50497
8.06405,46189
8.07340,34184
8.08273,29449
8.09207,35021
8.10142,60369
8.11075,80061
8.12008,64542
8.12943,44437
8.13877,32873
8.14810,29847
8.15745,26031
8.16678,24671
8.17612,24994
8.18547,25532
8.19480,25027
8.20415,26202
8.21348,25997
8.22282,25727
8.23217,24672
8.24150,25659
8.25083,28943
8.26018,31730
8.26952,30829
8.27885,29273
8.28820,26597
8.29753,22502
8.30687,23735
8.31622,23539
8.32555,22616
8.33488,24069
8.34423,24674
8.35357,23245
8.36290,23367
8.37225,23763
8.38158,21221
8.39093,25319
8.40027,31830
8.40960,35559
8.41895,35256
8.42828,32031
8.43762,30443
8.44697,30741
8.45630,31811
8.46563,28103
8.47498,28815
8.48432,29430
8.49365,27486
8.50300,26230
8.51233,25549
8.52167,23471
8.53102,23407
8.54035,24261
8.54968,23925
8.55903,25198
8.56837,24260
8.57772,25270
8.58705,25661
8.59638,30409
8.60573,34857
8.61507,37659
8.62440,36229
8.63375,31770
8.64308,30274
8.65242,27475
8.66177,27083
8.67110,26705
8.68043,26721
8.68978,26598
8.69912,25525
8.70845,26080
8.71780,26336
8.72713,24765
8.73647,24899
8.74582,23317
8.75515,25207
8.76450,24540
8.77383,27664
8.78317,28044
8.79252,30472
8.80185,44258
8.81118,76001
8.82053,96892
8.82987,88129
8.83920,54153
8.84855,36266
8.85788,27485
8.86722,25829
8.87657,26169
8.88590,28544
8.89523,27792
8.90458,28013
8.91392,27476
8.92325,26928
8.93260,25914
8.94193,25502
8.95128,23992
8.96062,22324
8.96995,22201
8.97930,24530
8.98863,25167
8.99797,26007
9.00732,28999
9.01665,30151
9.02598,30427
9.03533,29055
9.04467,26149
9.05400,26511
9.06335,25629
9.07268,27724
9.08202,29883
9.09137,30220
9.10070,30290
9.11003,28290
9.11938,29598
9.12872,29888
9.13807,32495
9.14740,35049
9.15673,32078
9.16608,30070
9.17542,27488
9.18475,27361
9.19410,26672
9.20343,27442
9.21277,33174
9.22212,55755
9.23145,92108
9.24078,104801
9.25013,80850
9.25947,56208
9.26880,45815
9.27815,43486
9.28748,40034
9.29683,38025
9.30617,35800
9.31550,34443
9.32485,30962
9.33418,31422
9.34352,32626
9.35287,36031
9.36220,57810
9.37153,129708
9.38088,232976
9.39022,247743
9.39955,184693
9.40890,121180
9.41823,80380
9.42757,63502
9.43692,59560
9.44625,52446
9.45558,40207
9.46493,33114
9.47427,29744
9.48362,27864
9.49295,27396
9.50228,28744
9.51163,29954
9.52097,28499
9.53030,31039
9.53965,36708
9.54898,44510
9.55832,46565
9.56767,52250
9.57700,55054
9.58633,45642
9.59568,34536
9.60502,28226
9.61435,28477
9.62370,29564
9.63303,30362
9.64237,34700
9.65172,35454
9.66105,35899
9.67040,38090
9.67973,34704
9.68907,31071
9.69842,29405
9.70775,29175
9.71708,33592
9.72643,95448
9.73577,429675
9.74510,1314921
9.75445,2060478
9.76378,1754542
9.77312,948167
9.78247,410410
9.79180,212315
9.80113,147354
9.81048,112784
9.81982,94360
9.82917,87218
9.83850,84576
9.84783,80918
9.85718,69268
9.86652,62773
9.87585,58578
9.88520,61955
9.89453,75304
9.90387,82726
9.91322,77549
9.92255,75665
9.93188,89056
9.94123,87381
9.95057,71189
9.95990,52554
9.96925,46123
9.97858,52911
9.98792,79445
9.99727,114120
10.00660,116530
10.01595,89495
10.02528,62376
10.03462,47186
10.04397,39961
10.05330,39812
10.06263,44481
10.07198,60057
10.08132,77410
10.09065,79106
10.10000,61092
10.10933,54444
10.11867,101405
10.12802,247111
10.13735,419317
10.14668,398151
10.15603,272799
10.16537,342655
10.17470,476915
10.18405,386197
10.19338,167033
10.20273,61124
10.21207,38937
10.22140,35756
10.23075,37608
10.24008,48068
10.24942,71533
10.25877,77081
10.26810,66289
10.27743,47326
10.28678,37787
10.29612,34585
10.30545,33338
10.31480,33619
10.32413,32385
10.33347,31549
10.34282,32171
10.35215,31481
10.36148,32671
10.37083,35265
10.38017,33622
10.38952,32075
10.39885,28919
10.40818,28837
10.41753,31951
10.42687,33905
10.43620,35390
10.44555,33898
10.45488,36093
10.46422,42600
10.47357,51471
10.48290,56273
10.49223,52499
10.50158,40255
10.51092,33410
10.52025,30648
10.52960,29910
10.53893,31280
10.54827,29542
10.55762,32250
10.56695,32468
10.57630,32330
10.58563,33552
10.59497,32357
10.60432,30868
10.61365,29068
10.62298,30616
10.63233,34240
10.64167,42841
10.65100,41715
10.66035,36972
10.66968,40204
10.67902,44623
10.68837,48424
10.69770,46799
10.70703,41397
10.71638,42709
10.72572,47763
10.73505,46823
10.74440,42151
10.75373,56142
10.76308,104328
10.77242,159452
10.78175,148173
10.79110,111756
10.80043,116424
10.80977,171123
10.81912,188194
10.82845,132250
10.83778,71768
10.84713,45401
10.85647,38364
10.86580,35642
10.87515,37918
10.88448,45114
10.89382,56674
10.90317,59954
10.91250,54291
10.92185,44973
10.93118,38967
10.94052,35486
10.94987,33721
10.95920,36771
10.96853,39134
10.97788,38309
10.98722,37472
10.99655,32468
11.00590,30054
11.01523,30921
11.02457,30797
11.03392,28178
11.04325,29740
11.05258,30793
11.06193,30792
11.07127,31563
11.08060,34814
11.08995,34163
11.09928,33838
11.10863,41874
11.11797,55610
11.12730,60899
11.13665,53170
11.14598,43154
11.15532,39696
11.16467,38109
11.17400,35959
11.18333,33616
11.19268,31286
11.20202,30863
11.21135,29259
11.22070,30992
11.23003,33445
11.23937,34844
11.24872,33736
11.25805,34210
11.26738,43541
11.27673,47427
11.28607,43291
11.29542,36570
11.30475,36631
11.31408,36257
11.32343,35338
11.33277,33830
11.34210,45169
11.35145,56998
11.36078,68499
11.37012,70826
11.37947,60432
11.38880,49002
11.39813,42812
11.40748,52059
11.41682,57957
11.42615,52758
11.43550,45104
11.44483,33527
11.45417,31734
11.46352,35342
11.47285,42577
11.48220,47248
11.49153,45092
11.50087,32759
11.51022,30503
11.51955,28692
11.52888,28269
11.53823,28145
11.54757,27408
11.55690,32229
11.56625,50090
11.57558,93894
11.58492,140254
11.59427,151163
11.60360,116772
11.61293,82969
11.62228,61010
11.63162,51539
11.64097,46566
11.65030,48743
11.65963,58828
11.66898,68459
11.67832,60345
11.68765,50351
11.69700,42117
11.70633,39296
11.71567,36912
11.72502,36660
11.73435,40335
11.74368,38820
11.75303,35905
11.76237,35987
11.77170,34955
11.78105,40582
11.79038,49376
11.79972,52095
11.80907,45493
11.81840,40566
11.82775,45125
11.83708,44681
11.84642,43146
11.85577,39158
11.86510,37743
11.87443,35768
11.88378,40104
11.89312,39544
11.90245,37085
11.91180,33590
11.92113,34665
11.93047,32740
11.93982,41797
11.94915,59092
11.95848,73813
11.96783,66788
11.97717,47602
11.98650,34625
11.99585,33498
12.00518,36722
12.01453,46722
12.02387,58050
12.03320,58572
12.04255,47668
12.05188,45114
12.06122,41180
12.07057,37097
12.07990,31419
12.08923,31506
12.09858,31758
12.10792,32681
12.11725,32464
12.12660,29373
12.13593,27784
12.14527,31310
12.15462,34432
12.16395,40872
12.17328,61460
12.18263,95787
12.19197,107126
12.20132,74936
12.21065,46273
12.21998,36623
12.22933,37802
12.23867,45899
12.24800,45818
12.25735,38788
12.26668,41309
12.27602,63302
12.28537,110424
12.29470,131195
12.30403,93534
12.31338,53749
12.32272,42966
12.33205,42166
12.34140,41949
12.35073,43046
12.36007,41013
12.36942,38431
12.37875,40812
12.38810,47548
12.39743,50441
12.40677,49053
12.41612,44428
12.42545,37788
12.43478,34942
12.44413,32618
12.45347,32870
12.46280,33561
12.47215,35485
12.48148,39567
12.49082,40437
12.50017,42035
12.50950,47456
12.51883,44498
12.52818,44909
12.53752,43019
12.54685,42881
12.55620,47015
12.56553,53510
12.57488,53769
12.58422,47868
12.59355,39860
12.60290,32798
12.61223,32911
12.62157,36599
12.63092,49609
12.64025,72716
12.64958,98462
12.65893,103540
12.66827,87267
12.67760,67287
12.68695,50852
12.69628,38781
12.70562,34610
12.71497,35141
12.72430,38061
12.73365,38613
12.74298,35557
12.75232,36137
12.76167,37339
12.77100,36086
12.78033,32416
12.78968,31272
12.79902,31293
12.80835,34055
12.81770,36233
12.82703,38050
12.83637,36449
12.84572,35761
12.85505,33913
12.86438,31586
12.87373,32084
12.88307,33238
12.89240,31785
12.90175,34662
12.91108,37779
12.92043,34309
12.92977,31378
12.93910,32136
12.94845,34606
12.95778,36826
12.96712,36731
12.97647,36545
12.98580,32664
12.99513,30146
13.00448,33519
13.01382,36634
13.02315,41021
13.03250,47090
13.04183,50897
13.05117,47712
13.06052,40129
13.06985,43117
13.07918,48713
13.08853,50820
13.09787,44295
13.10722,39845
13.11655,38392
13.12588,36302
13.13523,38381
13.14457,42652
13.15390,45929
13.16325,51325
13.17258,55909
13.18192,52818
13.19127,52210
13.20060,81403
13.20993,175658
13.21928,284051
13.22862,287254
13.23795,176375
13.24730,107861
13.25663,95695
13.26597,85123
13.27532,73972
13.28465,65487
13.29400,58842
13.30333,48441
13.31267,42873
13.32202,48486
13.33135,53652
13.34068,51298
13.35003,53462
13.35937,49177
13.36870,44763
13.37805,41046
13.38738,39942
13.39672,45947
13.40607,54332
13.41540,56202
13.42473,47351
13.43408,41066
13.44342,44530
13.45277,50121
13.46210,48782
13.47143,46270
13.48078,47480
13.49012,46816
13.49945,43351
13.50880,43900
13.51813,52092
13.52747,77417
13.53682,104818
13.54615,99094
13.55548,65632
13.56483,47429
13.57417,39324
13.58350,34382
13.59285,34814
13.60218,31202
13.61152,32549
13.62087,31445
13.63020,31371
13.63955,33216
13.64888,36174
13.65822,39655
13.66757,40798
13.67690,35775
13.68623,36161
13.69558,32621
13.70492,32078
13.71425,30394
13.72360,30024
13.73293,31409
13.74227,29822
13.75162,29668
13.76095,33819
13.77028,35608
13.77963,34854
13.78897,32556
13.79830,36753
13.80765,39485
13.81698,41055
13.82633,38571
13.83567,35968
13.84500,33811
13.85435,34118
13.86368,36532
13.87302,37174
13.88237,40166
13.89170,51169
13.90103,72723
13.91038,110728
13.91972,160376
13.92905,195563
13.93840,139987
13.94773,80677
13.95707,54740
13.96642,51636
13.97575,49822
13.98508,43252
13.99443,43094
14.00377,43604
14.01312,40832
14.02245,37889
14.03178,35482
14.04113,43993
14.05047,153343
14.05980,847153
14.06915,2874022
14.07848,5293969
14.08782,4939578
14.09717,2099477
14.10650,462121
14.11583,96817
14.12518,54905
14.13452,46481
14.14385,45298
14.15320,44131
14.16253,49845
14.17187,50745
14.18122,53235
14.19055,62212
14.19990,82619
14.20923,95806
14.21857,73129
14.22792,49063
14.23725,38021
14.24658,33776
14.25593,34618
14.26527,36767
14.27460,41030
14.28395,40037
14.29328,37033
14.30262,35516
14.31197,36491
14.32130,44862
14.33063,62055
14.33998,69118
14.34932,62687
14.35867,48666
14.36800,38683
14.37733,37035
14.38668,34774
14.39602,35905
14.40535,36517
14.41470,37135
14.42403,35719
14.43337,33469
14.44272,34096
14.45205,42521
14.46138,64566
14.47073,82764
14.48007,87550
14.48940,71233
14.49875,54428
14.50808,50099
14.51742,40444
14.52677,35176
14.53610,31815
14.54545,32518
14.55478,38380
14.56412,39232
14.57347,42538
14.58280,41648
14.59213,39504
14.60148,37703
14.61082,36790
14.62015,35267
14.62950,36210
14.63883,42399
14.64817,56534
14.65752,73153
14.66685,82488
14.67618,74410
14.68553,56942
14.69487,46957
14.70420,41853
14.71355,35252
14.72288,36393
14.73223,37519
14.74157,38503
14.75090,37575
14.76025,40534
14.76958,41061
14.77892,45685
14.78827,46486
14.79760,45868
14.80693,43681
14.81628,40965
14.82562,39158
14.83495,41414
14.84430,35291
14.85363,37047
14.86297,38466
14.87232,47444
14.88165,56623
14.89098,54646
14.90033,44868
14.90967,37647
14.91902,37571
14.92835,37330
14.93768,38085
14.94703,38524
14.95637,40924
14.96570,43149
14.97505,46190
14.98438,47887
14.99372,43903
15.00307,43434
15.01240,46156
15.02173,53574
15.03108,48694
15.04042,44339
15.04975,46253
15.05910,51591
15.06843,53738
15.07778,50900
15.08712,50563
15.09645,42039
15.10580,38877
15.11513,40161
15.12447,41801
15.13382,55246
15.14315,61983
15.15248,54976
15.16183,44575
15.17117,39390
15.18050,37555
15.18985,38631
15.19918,48071
15.20852,65547
15.21787,91456
15.22720,106843
15.23653,94335
15.24588,73113
15.25522,53098
15.26457,46056
15.27390,40389
15.28323,41374
15.29258,40676
15.30192,41556
15.31125,38360
15.32060,39358
15.32993,44229
15.33927,52644
15.34862,50335
15.35795,46588
15.36728,48977
15.37663,56745
15.38597,61404
15.39530,51983
15.40465,43682
15.41398,36573
15.42332,38630
15.43267,41924
15.44200,43442
15.45135,40259
15.46068,39812
15.47002,37647
15.47937,37051
15.48870,38214
15.49803,41356
15.50738,48144
15.51672,65779
15.52605,84335
15.53540,81542
15.54473,62478
15.55407,46311
15.56342,39393
15.57275,38225
15.58208,38172
15.59143,37207
15.60077,34356
15.61010,36739
15.61945,40946
15.62878,44686
15.63813,51152
15.64747,57920
15.65680,59501
15.66615,58465
15.67548,55061
15.68482,49869
15.69417,49220
15.70350,60430
15.71283,74780
15.72218,74767
15.73152,60144
15.74085,46281
15.75020,49295
15.75953,57012
15.76887,63844
15.77822,58407
15.78755,51848
15.79688,48009
15.80623,56512
15.81557,107140
15.82492,234639
15.83425,417650
15.84358,520610
15.85293,474470
15.86227,298909
15.87160,151282
15.88095,90038
15.89028,83890
15.89962,93950
15.90897,97944
15.91830,86095
15.92763,69188
15.93698,55573
15.94632,50020
15.95565,43315
15.96500,45197
15.97433,51522
15.98367,61315
15.99302,80621
16.00235,95112
16.01170,85642
16.02103,66064
16.03037,49905
16.03972,46144
16.04905,50621
16.05838,55338
16.06773,55555
16.07707,52355
16.08640,48716
16.09575,48539
16.10508,45015
16.11442,49026
16.12377,56168
16.13310,57451
16.14243,54877
16.15178,49368
16.16112,48035
16.17047,45298
16.17980,43094
16.18913,43679
16.19848,47411
16.20782,53825
16.21715,56911
16.22650,59361
16.23583,59535
16.24517,56495
16.25452,51795
16.26385,47466
16.27318,52652
16.28253,67586
16.29187,115600
16.30120,202486
16.31055,241088
16.31988,177316
16.32922,98301
16.33857,58487
16.34790,44473
16.35725,39892
16.36658,36658
16.37592,36763
16.38527,37035
16.39460,37579
16.40393,39669
16.41328,44327
16.42262,44545
16.43195,43786
16.44130,45246
16.45063,46518
16.45997,53434
16.46932,56841
16.47865,51883
16.48798,48484
16.49733,49797
16.50667,47619
16.51600,47969
16.52535,51622
16.53468,51182
16.54403,48396
16.55337,45468
16.56270,41290
16.57205,40019
16.58138,41228
16.59072,44506
16.60007,46813
16.60940,42842
16.61873,44962
16.62808,48899
16.63742,57843
16.64675,59282
16.65610,57490
16.66543,51103
16.67477,44146
16.68412,44834
16.69345,50754
16.70278,59469
16.71213,62906
16.72147,54377
16.73082,46383
16.74015,52736
16.74948,89539
16.75883,127712
16.76817,115478
16.77750,75114
16.78685,48793
16.79618,43820
16.80552,42394
16.81487,49274
16.82420,53544
16.83353,60301
16.84288,70817
16.85222,74539
16.86155,76838
16.87090,68143
16.88023,59901
16.88958,51645
16.89892,51907
16.90825,56884
16.91760,67808
16.92693,75585
16.93627,69870
16.94562,62851
16.95495,64932
16.96428,68977
16.97363,70227
16.98297,61810
16.99230,53261
17.00165,47972
17.01098,46434
17.02032,51005
17.02967,68063
17.03900,101901
17.04833,105668
17.05768,77924
17.06702,59285
17.07637,50886
17.08570,49977
17.09503,49287
17.10438,48307
17.11372,46310
17.12305,42475
17.13240,44504
17.14173,51828
17.15107,50444
17.16042,47425
17.16975,42946
17.17908,53659
17.18843,70029
17.19777,82704
17.20710,73794
17.21645,57861
17.22578,50266
17.23512,44171
17.24447,41335
17.25380,46225
17.26315,46538
17.27248,51163
17.28182,54748
17.29117,59924
17.30050,55889
17.30983,51247
17.31918,52606
17.32852,52892
17.33785,55053
17.34720,49970
17.35653,45910
17.36587,43065
17.37522,53569
17.38455,91727
17.39388,137415
17.40323,141561
17.41257,102695
17.42190,82638
17.43125,69942
17.44058,57191
17.44993,53049
17.45927,51588
17.46860,50739
17.47795,49595
17.48728,61182
17.49662,168693
17.50597,708973
17.51530,1808313
17.52463,2429720
17.53398,1618743
17.54332,588993
17.55265,141704
17.56200,63462
17.57133,59543
17.58067,62226
17.59002,68469
17.59935,64534
17.60868,55464
17.61803,46919
17.62737,50034
17.63672,51378
17.64605,49669
17.65538,50651
17.66473,57386
17.67407,62492
17.68340,71020
17.69275,77960
17.70208,81909
17.71142,75975
17.72077,65143
17.73010,59070
17.73943,51413
17.74878,55605
17.75812,60105
17.76745,65134
17.77680,64193
17.78613,65360
17.79548,60262
17.80482,59977
17.81415,57287
17.82350,49468
17.83283,46436
17.84217,46285
17.85152,52722
17.86085,61305
17.87018,76833
17.87953,75995
17.88887,67578
17.89820,59521
17.90755,53171
17.91688,49463
17.92622,44783
17.93557,47729
17.94490,46922
17.95423,47080
17.96358,48856
17.97292,48568
17.98227,47879
17.99160,46324
18.00093,45952
18.01028,45541
18.01962,45731
18.02895,46291
18.03830,45725
18.04763,51552
18.05697,56751
18.06632,59352
18.07565,53836
18.08498,46354
18.09433,43848
18.10367,42103
18.11300,49310
18.12235,51317
18.13168,50804
18.14102,51265
18.15037,50595
18.15970,53781
18.16905,53920
18.17838,52341
18.18772,51233
18.19707,46807
18.20640,45031
18.21573,43631
18.22508,43420
18.23442,44332
18.24375,44992
18.25310,42512
18.26243,40560
18.27177,41889
18.28112,47997
18.29045,55295
18.29978,54962
18.30913,64510
18.31847,67527
18.32780,65523
18.33715,63564
18.34648,64794
18.35583,73246
18.36517,77302
18.37450,70963
18.38385,66907
18.39318,63768
18.40252,64822
18.41187,67749
18.42120,66251
18.43053,60637
18.43988,56996
18.44922,62380
18.45855,65935
18.46790,59390
18.47723,50957
18.48657,51488
18.49592,60629
18.50525,80030
18.51460,94971
18.52393,92680
18.53327,80074
18.54262,63548
18.55195,57708
18.56128,60964
18.57063,59189
18.57997,52825
18.58930,48544
18.59865,48480
18.60798,52822
18.61732,58879
18.62667,61012
18.63600,58122
18.64533,60618
18.65468,57547
18.66402,53267
18.67335,48528
18.68270,48557
18.69203,49777
18.70138,54859
18.71072,56027
18.72005,60522
18.72940,63225
18.73873,61016
18.74807,57398
18.75742,51522
18.76675,51225
18.77608,44886
18.78543,41872
18.79477,42392
18.80410,43879
18.81345,45490
18.82278,45449
18.83212,44851
18.84147,45305
18.85080,43671
18.86013,43765
18.86948,40891
18.87882,43329
18.88817,40794
18.89750,44401
18.90683,51241
18.91618,63496
18.92552,68784
18.93485,62590
18.94420,59761
18.95353,59905
18.96287,69614
18.97222,74478
18.98155,74458
18.99088,64428
19.00023,54547
19.00957,50748
19.01890,48710
19.02825,48012
19.03758,53133
19.04692,65175
19.05627,90172
19.06560,113235
19.07495,119343
19.08428,141130
19.09362,163077
19.10297,147332
19.11230,96667
19.12163,67755
19.13098,49694
19.14032,45446
19.14965,42947
19.15900,42560
19.16833,41896
19.17767,41526
19.18702,43178
19.19635,47374
19.20568,53092
19.21503,53791
19.22437,56946
19.23370,55793
19.24305,54819
19.25238,49614
19.26173,45452
19.27107,45200
19.28040,48394
19.28975,55578
19.29908,62047
19.30842,70012
19.31777,85578
19.32710,90925
19.33643,76259
19.34578,61486
19.35512,51566
19.36445,46995
19.37380,43406
19.38313,40090
19.39247,42221
19.40182,43486
19.41115,48233
19.42048,50332
19.42983,43903
19.43917,42790
19.44852,41070
19.45785,40847
19.46718,41152
19.47653,42095
19.48587,49384
19.49520,50562
19.50455,48976
19.51388,46022
19.52322,43801
19.53257,43380
19.54190,43223
19.55123,44438
19.56058,41457
19.56992,43881
19.57925,47224
19.58860,52029
19.59793,55703
19.60728,52028
19.61662,47649
19.62595,47621
19.63530,52527
19.64463,55954
19.65397,54686
19.66332,49875
19.67265,44983
19.68198,46647
19.69133,52082
19.70067,57442
19.71000,60862
19.71935,67182
19.72868,74209
19.73802,84356
19.74737,84918
19.75670,69288
19.76603,57816
19.77538,57690
19.78472,58423
19.79407,57259
19.80340,51544
19.81273,49045
19.82208,48060
19.83142,47086
19.84075,47041
19.85010,42264
19.85943,43148
19.86877,49935
19.87812,67469
19.88745,80146
19.89678,75180
19.90613,55174
19.91547,48122
19.92480,44863
19.93415,46445
19.94348,44164
19.95282,42812
19.96217,45009
19.97150,44935
19.98085,47530
19.99018,43687
19.99952,39631
20.00887,40478
20.01820,44262
20.02753,45198
20.03688,48648
20.04622,51852
20.05555,49191
20.06490,47666
20.07423,47463
20.08357,47246
20.09292,48075
20.10225,46177
20.11158,40342
20.12093,38706
20.13027,36673
20.13960,38404
20.14895,44360
20.15828,54338
20.16763,57658
20.17697,53330
20.18630,46623
20.19565,43985
20.20498,40225
20.21432,42086
20.22367,45431
20.23300,42889
20.24233,40653
20.25168,40553
20.26102,38839
20.27035,40707
20.27970,38921
20.28903,40086
20.29837,41229
20.30772,41615
20.31705,37299
20.32640,37798
20.33573,37566
20.34507,38161
20.35442,37546
20.36375,39351
20.37308,40098
20.38243,40710
20.39177,37510
20.40110,35356
20.41045,37017
20.41978,36221
20.42912,36977
20.43847,37959
20.44780,39894
20.45713,38804
20.46648,41701
20.47582,47757
20.48515,48904
20.49450,45373
20.50383,41738
20.51318,37945
20.52252,38031
20.53185,38599
20.54120,41084
20.55053,43585
20.55987,52484
20.56922,84569
20.57855,180343
20.58788,257577
20.59723,202648
20.60657,107494
20.61590,61820
20.62525,47834
20.63458,49111
20.64392,46946
20.65327,50038
20.66260,47476
20.67193,46520
20.68128,42156
20.69062,44527
20.69997,45222
20.70930,45853
20.71863,47070
20.72798,44906
20.73732,46431
20.74665,44004
20.75600,44133
20.76533,42046
20.77467,40631
20.78402,41581
20.79335,43535
20.80268,46868
20.81203,51097
20.82137,47048
20.83070,46262
20.84005,41543
20.84938,40228
20.85872,39947
20.86807,38536
20.87740,37266
20.88675,41557
20.89608,43651
20.90542,45740
20.91477,48573
20.92410,46426
20.93343,42979
20.94278,39298
20.95212,39148
20.96145,37404
20.97080,37967
20.98013,37581
20.98947,37041
20.99882,37194
21.00815,37513
21.01748,37572
21.02683,36855
21.03617,37269
21.04550,37328
21.05485,37945
21.06418,39684
21.07353,38560
21.08287,40217
21.09220,36762
21.10155,38081
21.11088,41680
21.12022,43278
21.12957,43347
21.13890,39480
21.14823,41071
21.15758,40343
21.16692,41337
21.17625,44005
21.18560,52859
21.19493,59740
21.20427,53955
21.21362,46985
21.22295,44802
21.23230,41694
21.24163,41718
21.25097,39169
21.26032,39002
21.26965,42536
21.27898,47056
21.28833,50700
21.29767,52924
21.30700,51108
21.31635,45159
21.32568,41081
21.33502,40857
21.34437,42437
21.35370,42968
21.36303,41044
21.37238,41329
21.38172,39253
21.39105,41193
21.40040,41956
21.40973,42267
21.41908,43666
21.42842,44747
21.43775,42625
21.44710,41542
21.45643,40981
21.46577,37417
21.47512,40397
21.48445,40259
21.49378,41078
21.50313,44280
21.51247,42682
21.52180,41521
21.53115,40828
21.54048,38595
21.54982,41038
21.55917,42877
21.56850,51528
21.57783,62062
21.58718,65283
21.59652,57556
21.60587,45884
21.61520,43630
21.62453,42169
21.63388,42602
21.64322,43333
21.65255,43067
21.66190,41834
21.67123,43829
21.68057,47224
21.68992,50749
21.69925,48807
21.70858,44961
21.71793,48104
21.72727,47184
21.73660,50441
21.74595,47936
21.75528,42469
21.76462,38415
21.77397,36491
21.78330,39602
21.79265,39541
21.80198,41164
21.81132,42409
21.82067,48531
21.83000,50756
21.83933,49778
21.84868,47493
21.85802,43577
21.86735,42687
21.87670,43728
21.88603,47035
21.89537,50334
21.90472,51741
21.91405,50081
21.92338,44711
21.93273,43130
21.94207,42093
21.95142,40564
21.96075,43009
21.97008,48754
21.97943,52548
21.98877,59806
21.99810,64262
22.00745,60129
22.01678,51947
22.02612,46455
22.03547,45897
22.04480,47938
22.05413,51494
22.06348,48643
22.07282,50119
22.08215,45875
22.09150,45511
22.10083,43832
22.11017,43760
22.11952,41861
22.12885,41686
22.13820,41241
22.14753,41483
22.15687,48775
22.16622,55183
22.17555,61367
22.18488,61519
22.19423,55164
22.20357,47136
22.21290,43935
22.22225,48292
22.23158,51195
22.24092,51085
22.25027,49616
22.25960,47163
22.26893,45741
22.27828,53971
22.28762,60772
22.29695,64186
22.30630,63182
22.31563,53159
22.32498,47556
22.33432,43462
22.34365,45349
22.35300,49381
22.36233,55048
22.37167,59668
22.38102,59907
22.39035,57277
22.39968,50917
22.40903,47500
22.41837,45342
22.42770,46098
22.43705,49143
22.44638,52549
22.45572,51078
22.46507,50790
22.47440,48749
22.48373,49289
22.49308,47122
22.50242,45401
22.51177,42301
22.52110,42137
22.53043,42927
22.53978,45274
22.54912,43390
22.55845,42555
22.56780,47647
22.57713,49421
22.58647,53288
22.59582,53155
22.60515,52365
22.61448,55602
22.62383,55949
22.63317,54749
22.64250,50687
22.65185,47129
22.66118,42517
22.67052,41464
22.67987,45603
22.68920,52046
22.69855,56135
22.70788,52504
22.71722,48845
22.72657,46779
22.73590,51128
22.74523,54047
22.75458,55327
22.76392,56333
22.77325,53631
22.78260,48093
22.79193,47065
22.80127,50046
22.81062,53814
22.81995,55170
22.82928,49899
22.83863,48696
22.84797,47444
22.85730,45526
22.86665,42038
22.87598,45027
22.88533,48218
22.89467,47091
22.90400,45215
22.91335,46101
22.92268,47882
22.93202,47580
22.94137,49420
22.95070,46453
22.96003,45568
22.96938,44324
22.97872,43358
22.98805,41001
22.99740,39384
23.00673,37422
23.01607,40566
23.02542,39296
23.03475,39237
23.04410,38619
23.05343,40966
23.06277,39593
23.07212,39900
23.08145,40315
23.09078,39243
23.10013,39384
23.10947,36613
23.11880,37285
23.12815,37921
23.13748,39473
23.14682,39436
23.15617,39994
23.16550,40777
23.17483,38210
23.18418,40007
23.19352,38704
23.20285,40278
23.21220,36704
23.22153,35529
23.23088,37737
23.24022,39947
23.24955,41763
23.25890,46334
23.26823,47311
23.27757,45548
23.28692,43441
23.29625,40738
23.30558,39275
23.31493,39435
23.32427,43466
23.33360,49416
23.34295,54208
23.35228,52316
23.36162,47443
23.37097,43189
23.38030,39523
23.38963,42388
23.39898,38985
23.40832,40672
23.41767,40188
23.42700,39661
23.43633,40386
23.44568,41757
23.45502,41946
23.46435,41198
23.47370,40739
23.48303,43531
23.49237,41101
23.50172,39256
23.51105,39679
23.52038,40231
23.52973,40157
23.53907,40156
23.54840,40086
23.55775,36458
23.56708,38912
23.57642,36390
23.58577,40651
23.59510,40746
23.60445,39655
23.61378,39553
23.62312,37822
23.63247,37812
23.64180,37764
23.65113,35548
23.66048,36496
23.66982,38461
23.67915,37374
23.68850,39220
23.69783,41406
23.70717,42224
23.71652,42028
23.72585,42826
23.73518,47495
23.74453,44701
23.75387,42401
23.76322,39626
23.77255,38015
23.78188,37606
23.79123,38524
23.80057,38323
23.80990,37553
23.81925,37564
23.82858,35964
23.83792,36354
23.84727,33858
23.85660,36596
23.86593,34822
23.87528,37587
23.88462,36722
23.89395,37829
23.90330,38651
23.91263,38685
23.92197,39826
23.93132,37553
23.94065,39019
23.95000,37587
23.95933,36949
23.96867,39309
23.97802,36931
23.98735,36354
23.99668,36665
24.00603,38920
24.01537,38033
24.02470,38567
24.03405,35821
24.04338,36688
24.05272,33835
24.06207,35148
24.07140,36947
24.08073,36569
24.09008,38886
24.09942,38326
24.10875,37559
24.11810,35349
24.12743,34487
24.13678,35474
24.14612,37657
24.15545,36505
24.16480,37078
24.17413,37900
24.18347,35598
24.19282,36696
24.20215,35768
24.21148,35036
24.22083,36453
24.23017,38035
24.23950,37740
24.24885,37235
24.25818,35304
24.26752,35744
24.27687,35948
24.28620,38993
24.29553,38264
24.30488,35689
24.31422,37362
24.32357,38858
24.33290,41758
24.34223,41220
24.35158,39440
24.36092,38071
24.37025,36644
24.37960,37413
24.38893,39680
24.39827,41006
24.40762,39179
24.41695,39957
24.42628,38422
24.43563,38366
24.44497,36738
24.45430,37441
24.46365,36556
24.47298,35855
24.48232,38264
24.49167,37262
24.50100,37439
24.51035,37608
24.51968,38153
24.52902,38332
24.53837,38111
24.54770,39491
24.55703,41968
24.56638,38637
24.57572,40930
24.58505,38593
24.59440,39709
24.60373,37187
24.61307,40388
24.62242,41915
24.63175,42093
24.64108,39649
24.65043,39537
24.65977,39842
24.66912,40591
24.67845,43045
24.68778,38239
24.69713,38085
24.70647,39099
24.71580,39298
24.72515,38123
24.73448,37481
24.74382,39116
24.75317,39660
24.76250,37780
24.77183,39142
24.78118,38364
24.79052,37400
24.79985,38217
24.80920,37758
24.81853,37889
24.82787,40297
24.83722,37465
24.84655,37531
24.85590,36908
24.86523,36938
24.87457,37631
24.88392,39313
24.89325,40592
24.90258,40948
24.91193,40123
24.92127,37671
24.93060,37868
24.93995,38261
24.94928,39542
24.95862,40702
24.96797,39348
24.97730,39704
24.98663,38328
24.99598,42354
25.00532,40866
25.01465,39023
25.02400,37891
25.03333,39707
25.04268,40521
25.05202,38542
25.06135,38846
25.07070,40038
25.08003,39080
25.08937,39397
25.09872,38967
25.10805,38922
25.11738,40852
25.12673,39943
25.13607,41858
25.14540,42526
25.15475,43527
25.16408,43455
25.17342,43674
25.18277,40621
25.19210,41093
25.20143,39733
25.21078,40367
25.22012,41066
25.22947,39444
25.23880,39425
25.24813,40168
25.25748,40246
25.26682,39490
25.27615,39820
25.28550,39150
25.29483,40597
25.30417,43948
25.31352,50165
25.32285,69781
25.33218,110644
25.34153,142828
25.35087,127174
25.36020,90118
25.36955,70045
25.37888,59805
25.38823,55109
25.39757,54577
25.40690,51394
25.41625,51758
25.42558,51286
25.43492,50210
25.44427,50981
25.45360,52454
25.46293,50482
25.47228,52079
25.48162,54363
25.49095,55819
25.50030,57773
25.50963,57086
25.51897,57646
25.52832,56192
25.53765,55214
25.54698,57839
25.55633,56107
25.56567,52287
25.57502,52990
25.58435,51553
25.59368,53703
25.60303,49299
25.61237,49295
25.62170,46624
25.63105,49148
25.64038,47235
25.64972,49494
25.65907,50667
25.66840,52124
25.67773,48829
25.68708,49717
25.69642,45663
25.70575,46285
25.71510,46158
25.72443,44802
25.73377,46610
25.74312,45275
25.75245,48509
25.76180,46890
25.77113,48647
25.78047,47704
25.78982,46592
25.79915,46974
25.80848,49766
25.81783,51923
25.82717,50550
25.83650,50232
25.84585,50292
25.85518,49483
25.86452,47952
25.87387,44727
25.88320,46462
25.89253,45748
25.90188,44542
25.91122,45295
25.92055,48403
25.92990,47598
25.93923,46719
25.94858,48816
25.95792,50522
25.96725,51289
25.97660,49413
25.98593,48824
25.99527,47496
26.00462,47289
26.01395,44274
26.02328,44474
26.03263,47964
26.04197,49840
26.05130,51411
26.06065,50074
26.06998,48538
26.07932,49247
26.08867,48754
26.09800,48913
26.10733,50148
26.11668,49411
26.12602,50826
26.13537,49577
26.14470,52370
26.15403,56369
26.16338,54553
26.17272,55704
26.18205,54662
26.19140,49844
26.20073,47859
26.21007,47469
26.21942,46842
26.22875,47576
26.23808,47801
26.24743,47697
26.25677,46739
26.26610,46572
26.27545,48660
26.28478,48957
26.29412,49939
26.30347,49492
26.31280,50120
26.32215,51943
26.33148,48263
26.34082,49164
26.35017,47281
26.35950,48875
26.36883,46273
26.37818,48060
26.38752,47835
26.39685,46947
26.40620,47348
26.41553,45240
26.42487,47758
26.43422,47577
26.44355,49143
26.45288,51249
26.46223,49308
26.47157,52198
26.48092,53783
26.49025,54121
26.49958,53890
26.50893,55261
26.51827,54656
26.52760,55651
26.53695,59643
26.54628,60340
26.55562,56479
26.56497,57105
26.57430,56797
26.58363,59358
26.59298,57439
26.60232,59033
26.61165,58287
26.62100,61197
26.63033,56486
26.63967,51114
26.64902,52055
26.65835,53850
26.66770,54563
26.67703,53228
26.68637,53380
26.69572,48937
26.70505,50425
26.71438,48481
26.72373,51391
26.73307,49966
26.74240,49590
26.75175,49800
26.76108,50968
26.77042,51079
26.77977,50912
26.78910,51470
26.79843,52439
26.80778,53074
26.81712,51529
26.82645,51729
26.83580,51999
26.84513,51426
26.85448,52164
26.86382,50180
26.87315,51478
26.88250,47762
26.89183,51520
26.90117,50357
26.91052,49457
26.91985,47469
26.92918,48225
26.93853,48148
26.94787,48629
26.95720,47957
26.96655,49920
26.97588,47556
26.98522,47930
26.99457,48336
27.00390,50136
27.01323,52534
27.02258,50262
27.03192,50097
27.04127,51143
27.05060,50765
27.05993,53429
27.06928,51857
27.07862,52932
27.08795,52342
27.09730,50586
27.10663,52723
27.11597,51343
27.12532,51952
27.13465,54914
27.14398,54602
27.15333,56590
27.16267,53267
27.17200,52295
27.18135,53503
27.19068,53824
27.20003,56397
27.20937,55447
27.21870,56711
27.22805,60417
27.23738,61348
27.24672,64909
27.25607,68986
27.26540,72544
27.27473,73877
27.28408,70024
27.29342,68630
27.30275,65230
27.31210,65737
27.32143,63874
27.33077,64682
27.34012,62271
27.34945,61611
27.35878,60289
27.36813,59646
27.37747,58008
27.38682,56519
27.39615,55985
27.40548,56178
27.41483,55218
27.42417,53687
27.43350,56640
27.44285,57398
27.45218,57508
27.46152,59091
27.47087,56826
27.48020,57797
27.48953,57598
27.49888,63617
27.50822,63354
27.51755,69269
27.52690,71424
27.53623,72645
27.54557,69596
27.55492,65734
27.56425,65667
27.57360,64376
27.58293,63026
27.59227,60361
27.60162,58755
27.61095,59673
27.62028,54005
27.62963,58582
27.63897,54739
27.64830,56589
27.65765,59113
27.66698,64476
27.67632,78178
27.68567,83932
27.69500,80927
27.70433,74151
27.71368,64601
27.72302,60600
27.73235,57378
27.74170,58015
27.75103,56592
27.76038,55593
27.76972,54294
27.77905,55874
27.78840,55885
27.79773,57240
27.80707,56372
27.81642,55720
27.82575,55754
27.83508,54521
27.84443,54394
27.85377,55907
27.86310,54830
27.87245,54388
27.88178,54001
27.89112,55823
27.90047,53922
27.90980,54270
27.91913,56046
27.92848,56067
27.93782,56481
27.94717,52303
27.95650,53556
27.96583,54078
27.97518,53885
27.98452,55487
27.99385,54701
28.00320,53450
28.01253,55515
28.02187,53702
28.03122,52855
28.04055,52752
28.04988,50627
28.05923,52918
28.06857,52666
28.07790,53752
28.08725,51778
28.09658,53504
28.10593,52433
28.11527,55315
28.12460,61309
28.13395,63177
28.14328,62746
28.15262,60318
28.16197,59671
28.17130,58875
28.18063,56927
28.18998,58333
28.19932,59738
28.20865,58114
28.21800,58356
28.22733,57204
28.23667,55614
28.24602,54209
28.25535,57348
28.26468,54001
28.27403,53304
28.28337,53980
28.29272,54132
28.30205,55673
28.31138,55075
28.32073,54770
28.33007,54805
28.33940,56620
28.34875,56368
28.35808,54311
28.36742,56354
28.37677,52877
28.38610,55735
28.39543,55814
28.40478,56218
28.41412,56834
28.42345,58395
28.43280,56783
28.44213,58054
28.45147,58010
28.46082,58424
28.47015,57346
28.47950,56736
28.48883,59204
28.49817,56218
28.50752,56557
28.51685,59975
28.52618,60373
28.53553,57904
28.54487,58585
28.55420,57903
28.56355,59129
28.57288,59930
28.58222,59454
28.59157,61599
28.60090,65417
28.61023,65156
28.61958,64892
28.62892,62584
28.63825,64782
28.64760,62076
28.65693,64757
28.66628,70913
28.67562,93179
28.68495,110038
28.69430,119688
28.70363,101064
28.71297,82948
28.72232,72838
28.73165,69078
28.74098,65283
28.75033,67679
28.75967,66007
28.76900,65820
28.77835,61789
28.78768,64194
28.79702,62300
28.80637,63229
28.81570,62069
28.82505,63471
28.83438,62220
28.84372,64438
28.85307,61629
28.86240,61425
28.87173,62651
28.88108,60962
28.89042,61824
28.89975,60608
28.90910,60738
28.91843,59723
28.92777,61849
28.93712,63148
28.94645,61089
28.95578,63794
28.96513,68776
28.97447,68398
28.98380,69094
28.99315,68281
29.00248,67801
29.01183,66077
29.02117,69120
29.03050,66893
29.03985,64904
29.04918,64577
29.05852,66874
29.06787,65479
29.07720,63943
29.08653,64694
29.09588,64133
29.10522,63741
29.11455,65136
29.12390,64912
29.13323,65295
29.14257,64470
29.15192,62686
29.16125,63745
29.17058,65124
29.17993,63630
29.18927,64797
29.19862,74209
29.20795,77510
29.21728,81196
29.22663,78817
29.23597,74682
29.24530,70764
29.25465,67900
29.26398,68645
29.27332,68282
29.28267,67266
29.29200,66698
29.30133,68834
29.31068,67902
29.32002,67854
29.32935,66814
29.33870,66005
29.34803,65904
29.35737,67150
29.36672,66137
29.37605,64776
29.38540,68077
29.39473,64002
29.40407,66504
29.41342,65356
29.42275,66643
29.43208,70201
29.44143,67906
29.45077,67558
29.46010,66764
29.46945,70766
29.47878,70554
29.48812,69271
29.49747,67086
29.50680,62671
29.51613,66490
29.52548,65902
29.53482,65603
29.54415,64393
29.55350,65221
29.56283,64984
29.57218,63867
29.58152,64536
29.59085,66604
29.60020,65941
29.60953,64229
29.61887,63272
29.62822,64148
29.63755,63668
29.64688,64118
29.65623,62806
29.66557,64690
29.67490,63673
29.68425,63826
29.69358,66375
29.70292,64078
29.71227,66848
29.72160,68504
29.73093,67009
29.74028,71638
29.74962,70477
29.75897,69217
29.76830,68511
29.77763,65369
29.78698,66651
29.79632,68905
29.80565,63422
29.81500,64988
29.82433,65981
29.83367,63456
29.84302,65094
29.85235,63721
29.86168,65948
29.87103,64083
29.88037,65384
29.88970,68380
29.89905,65499
29.90838,64632
29.91773,64914
29.92707,65873
29.93640,67321
29.94575,67388
29.95508,66845
29.96442,69295
29.97377,71603
29.98310,69295
29.99243,70865
30.00178,73322
30.01112,71231
30.02045,68804
30.02980,66689
30.03913,68899
30.04847,66588
30.05782,64228
30.06715,64428
30.07648,67034
30.08583,65168
30.09517,68113
30.10452,68561
30.11385,70418
30.12318,70114
30.13253,76503
30.14187,75974
30.15120,79991
30.16055,78817
30.16988,80121
30.17922,81254
30.18857,81064
30.19790,80601
30.20723,78162
30.21658,76875
30.22592,73621
30.23525,73460
30.24460,73293
30.25393,73187
30.26327,71135
30.27262,72491
30.28195,70175
30.29130,69468
30.30063,71588
30.30997,68512
30.31932,69307
30.32865,68016
30.33798,69048
30.34733,69685
30.35667,71680
30.36600,73596
30.37535,72392
30.38468,75608
30.39402,81454
30.40337,88948
30.41270,94287
30.42203,91717
30.43138,86257
30.44072,80465
30.45005,76541
30.45940,74415
30.46873,75149
30.47808,75025
30.48742,72266
30.49675,72666
30.50610,72644
30.51543,70596
30.52477,71407
30.53412,71590
30.54345,71060
30.55278,69565
30.56213,71118
30.57147,71177
30.58080,73130
30.59015,74077
30.59948,74706
30.60882,77491
30.61817,80119
30.62750,81667
30.63685,86698
30.64618,94559
30.65552,95856
30.66487,97429
30.67420,94603
30.68353,91295
30.69288,87603
30.70222,86975
30.71155,83923
30.72090,83517
30.73023,82225
30.73957,79214
30.74892,80124
30.75825,78327
30.76758,79652
30.77693,79554
30.78627,81070
30.79560,82675
30.80495,80997
30.81428,78706
30.82363,79337
30.83297,79395
30.84230,79154
30.85165,79491
30.86098,78909
30.87032,79283
30.87967,78548
30.88900,81938
30.89833,82037
30.90768,80292
30.91702,82870
30.92635,84223
30.93570,83951
30.94503,82685
30.95437,84775
30.96372,87518
30.97305,82449
30.98238,86086
30.99173,86279
31.00107,86060
31.01042,83869
31.01975,83094
31.02908,84964
31.03843,85689
31.04777,82837
31.05710,80095
31.06645,80613
31.07578,81503
31.08512,81808
31.09447,79142
31.10380,83401
31.11313,83503
31.12248,83552
31.13182,82561
31.14115,85020
31.15050,85255
31.15983,85441
31.16917,84858
31.17852,86899
31.18785,89312
31.19720,89751
31.20653,92171
31.21587,87369
31.22522,87795
31.23455,87090
31.24388,85932
31.25323,87869
31.26257,86150
31.27190,85119
31.28125,86438
31.29058,83283
31.29992,85137
31.30927,82145
31.31860,81559
31.32793,82322
31.33728,81144
31.34662,80597
31.35595,81296
31.36530,80279
