D:\数据\20211215\ZS1E-TJ-000202.D Wed Dec 15 11:58:33 2021
Start of data points
0.09767,28244
0.10702,28925
0.11635,28387
0.12568,27622
0.13503,28330
0.14437,28679
0.15370,28037
0.16305,28506
0.17238,29696
0.18172,28679
0.19107,28408
0.20040,26908
0.20973,28905
0.21908,28476
0.22842,27129
0.23777,27943
0.24710,28678
0.25643,28283
0.26578,28040
0.27512,28829
0.28445,26663
0.29380,28070
0.30313,29316
0.31247,27393
0.32182,28195
0.33115,27834
0.34048,26711
0.34983,27657
0.35917,27504
0.36850,27555
0.37785,25991
0.38718,23191
0.39653,20694
0.40587,19676
0.41520,19749
0.42455,14093
0.43388,8695
0.44322,6872
0.45257,5923
0.46190,6598
0.47123,6498
0.48058,5308
0.48992,5989
0.49925,6490
0.50860,6052
0.51793,5690
0.52727,5667
0.53662,5757
0.54595,5233
0.55528,5911
0.56463,5082
0.57397,5755
0.58332,4850
0.59265,4601
0.60198,5021
0.61133,6468
0.62067,5755
0.63000,4845
0.63935,5303
0.64868,5630
0.65802,5796
0.66737,5065
0.67670,6198
0.68603,5076
0.69538,4860
0.70472,5779
0.71405,5182
0.72340,5339
0.73273,5082
0.74207,5052
0.75142,4831
0.76075,5096
0.77010,4688
0.77943,4958
0.78877,4360
0.79812,5172
0.80745,6006
0.81678,5264
0.82613,4852
0.83547,4859
0.84480,4855
0.85415,5056
0.86348,4774
0.87282,5847
0.88217,4832
0.89150,4874
0.90083,5482
0.91018,4843
0.91952,4362
0.92885,5205
0.93820,4923
0.94753,4536
0.95688,4460
0.96622,5273
0.97555,4771
0.98490,4831
0.99423,4258
1.00357,4882
1.01292,4647
1.02225,4938
1.03158,4811
1.04093,4763
1.05027,4740
1.05960,4428
1.06895,4581
1.07828,4546
1.08762,5013
1.09697,5610
1.10630,4794
1.11563,4418
1.12498,4901
1.13432,4609
1.14367,4689
1.15300,5305
1.16233,5257
1.17168,4948
1.18102,4713
1.19035,4806
1.19970,4698
1.20903,4290
1.21837,4833
1.22772,4345
1.23705,4760
1.24638,5548
1.25573,5049
1.26507,5235
1.27440,4635
1.28375,4519
1.29308,4251
1.30243,4035
1.31177,4756
1.32110,4591
1.33045,5204
1.33978,4511
1.34912,4904
1.35847,5212
1.36780,4420
1.37713,4258
1.38648,4644
1.39582,4381
1.40515,4659
1.41450,4099
1.42383,5078
1.43317,4777
1.44252,4274
1.45185,4665
1.46118,4881
1.47053,4648
1.47987,4841
1.48922,4385
1.49855,4573
1.50788,4852
1.51723,4649
1.52657,4436
1.53590,4531
1.54525,4896
1.55458,4743
1.56392,4627
1.57327,4781
1.58260,7595
1.59193,14145
1.60128,21049
1.61062,27931
1.61995,32994
1.62930,45919
1.63863,57384
1.64797,59287
1.65732,58236
1.66665,48852
1.67600,42449
1.68533,36082
1.69467,29216
1.70402,22205
1.71335,20895
1.72268,22361
1.73203,25550
1.74137,28466
1.75070,34601
1.76005,38242
1.76938,39082
1.77872,39028
1.78807,39002
1.79740,37930
1.80673,36889
1.81608,36168
1.82542,37955
1.83475,37113
1.84410,35232
1.85343,34983
1.86278,37769
1.87212,41966
1.88145,56793
1.89080,91665
1.90013,140845
1.90947,172178
1.91882,209042
1.92815,346120
1.93748,696760
1.94683,1203768
1.95617,1560457
1.96550,1572113
1.97485,1301257
1.98418,956221
1.99352,706739
2.00287,585294
2.01220,569576
2.02155,600218
2.03088,560054
2.04022,417967
2.04957,284722
2.05890,207462
2.06823,157265
2.07758,127460
2.08692,104565
2.09625,89049
2.10560,75968
2.11493,74613
2.12427,77077
2.13362,88538
2.14295,127591
2.15228,148317
2.16163,130848
2.17097,115423
2.18030,131518
2.18965,215483
2.19898,254315
2.20833,179834
2.21767,118506
2.22700,123254
2.23635,194090
2.24568,323235
2.25502,1175909
2.26437,2680287
2.27370,2619642
2.28303,1795475
2.29238,1049940
2.30172,626907
2.31105,439747
2.32040,376675
2.32973,276277
2.33907,180415
2.34842,129601
2.35775,110787
2.36708,107581
2.37643,144719
2.38577,185734
2.39512,176976
2.40445,154663
2.41378,139065
2.42313,130414
2.43247,123966
2.44180,108142
2.45115,92301
2.46048,105280
2.46982,160782
2.47917,213211
2.48850,193059
2.49783,138579
2.50718,109326
2.51652,91312
2.52585,78464
2.53520,68345
2.54453,67671
2.55387,71388
2.56322,93667
2.57255,114113
2.58190,152373
2.59123,146256
2.60057,136216
2.60992,130295
2.61925,165875
2.62858,188600
2.63793,173150
2.64727,141683
2.65660,132165
2.66595,133847
2.67528,121279
2.68462,100509
2.69397,80665
2.70330,68225
2.71263,70829
2.72198,98454
2.73132,139170
2.74065,159295
2.75000,172083
2.75933,198743
2.76868,244937
2.77802,311454
2.78735,321592
2.79670,280190
2.80603,231935
2.81537,217280
2.82472,254146
2.83405,246512
2.84338,197536
2.85273,165097
2.86207,163897
2.87140,211934
2.88075,248564
2.89008,206048
2.89942,155306
2.90877,126547
2.91810,107576
2.92743,97364
2.93678,85192
2.94612,74414
2.95547,68951
2.96480,64988
2.97413,60003
2.98348,61244
2.99282,59322
3.00215,63098
3.01150,66721
3.02083,67520
3.03017,67645
3.03952,125255
3.04885,211554
3.05818,219136
3.06753,210076
3.07687,188137
3.08620,157489
3.09555,117396
3.10488,90000
3.11423,70651
3.12357,62060
3.13290,60434
3.14225,64483
3.15158,69818
3.16092,80619
3.17027,80849
3.17960,75844
3.18893,69498
3.19828,62314
3.20762,60048
3.21695,63704
3.22630,62401
3.23563,58232
3.24497,54243
3.25432,54352
3.26365,53071
3.27298,53256
3.28233,53491
3.29167,56669
3.30102,67420
3.31035,76329
3.31968,70912
3.32903,59785
3.33837,59232
3.34770,59491
3.35705,61020
3.36638,60767
3.37572,56761
3.38507,50768
3.39440,50225
3.40373,60839
3.41308,88574
3.42242,105094
3.43175,92168
3.44110,77320
3.45043,80470
3.45977,92158
3.46912,85767
3.47845,75154
3.48780,69392
3.49713,65515
3.50647,63245
3.51582,58705
3.52515,56912
3.53448,55774
3.54383,60888
3.55317,106781
3.56250,268990
3.57185,486632
3.58118,517579
3.59052,347834
3.59987,198045
3.60920,297831
3.61853,288876
3.62788,231047
3.63722,179043
3.64655,143538
3.65590,116904
3.66523,104392
3.67458,103196
3.68392,101022
3.69325,89802
3.70260,76199
3.71193,73665
3.72127,77967
3.73062,86494
3.73995,81032
3.74928,71953
3.75863,67797
3.76797,59845
3.77730,55145
3.78665,50315
3.79598,55144
3.80532,91347
3.81467,208388
3.82400,342476
3.83335,328617
3.84268,209419
3.85202,122075
3.86137,92056
3.87070,76362
3.88003,72578
3.88938,75133
3.89872,86075
3.90805,94446
3.91740,89770
3.92673,84178
3.93607,83731
3.94542,94200
3.95475,118687
3.96408,138271
3.97343,123180
3.98277,89186
3.99210,70466
4.00145,60434
4.01078,80021
4.02013,77281
4.02947,74424
4.03880,72080
4.04815,73878
4.05748,76115
4.06682,76194
4.07617,108681
4.08550,158541
4.09483,182706
4.10418,173328
4.11352,131463
4.12285,93222
4.13220,73978
4.14153,64561
4.15087,63008
4.16022,61795
4.16955,60172
4.17888,56436
4.18823,50410
4.19757,50483
4.20692,54684
4.21625,55572
4.22558,55219
4.23493,54368
4.24427,53355
4.25360,50901
4.26295,49916
4.27228,55795
4.28162,63505
4.29097,81786
4.30030,79242
4.30963,89761
4.31898,87606
4.32832,86079
4.33765,82095
4.34700,78799
4.35633,71996
4.36567,62711
4.37502,59446
4.38435,69627
4.39370,90319
4.40303,86963
4.41237,71850
4.42172,59881
4.43105,51782
4.44038,47980
4.44973,47911
4.45907,48352
4.46840,50336
4.47775,63477
4.48708,72567
4.49642,73194
4.50577,63383
4.51510,56952
4.52443,53926
4.53378,55648
4.54312,55538
4.55245,61315
4.56180,62384
4.57113,59363
4.58048,56891
4.58982,56272
4.59915,54524
4.60850,52436
4.61783,51805
4.62717,48114
4.63652,50031
4.64585,54531
4.65518,64948
4.66453,73180
4.67387,67734
4.68320,60758
4.69255,56513
4.70188,49987
4.71122,48288
4.72057,45417
4.72990,46026
4.73925,47419
4.74858,49230
4.75792,51444
4.76727,54920
4.77660,56357
4.78593,56194
4.79528,58942
4.80462,59169
4.81395,157374
4.82330,211166
4.83263,204320
4.84197,181676
4.85132,160220
4.86065,144345
4.86998,132871
4.87933,125745
4.88867,116500
4.89800,106172
4.90735,98729
4.91668,92259
4.92603,89708
4.93537,88209
4.94470,89523
4.95405,86005
4.96338,78538
4.97272,69347
4.98207,64227
4.99140,62554
5.00073,64281
5.01008,64701
5.01942,66217
5.02875,76057
5.03810,82039
5.04743,79102
5.05677,71939
5.06612,64822
5.07545,65121
5.08478,69840
5.09413,71020
5.10347,64982
5.11282,61627
5.12215,59155
5.13148,59853
5.14083,75785
5.15017,105685
5.15950,110911
5.16885,97452
5.17818,84779
5.18752,84767
5.19687,100884
5.20620,102460
5.21553,85369
5.22488,70920
5.23422,64408
5.24355,67163
5.25290,66337
5.26223,65405
5.27157,91184
5.28092,210596
5.29025,422582
5.29960,536494
5.30893,416609
5.31827,228981
5.32762,121074
5.33695,84071
5.34628,72461
5.35563,63549
5.36497,62781
5.37430,61642
5.38365,67924
5.39298,75813
5.40232,78991
5.41167,73883
5.42100,65646
5.43033,57731
5.43968,54076
5.44902,52022
5.45837,49424
5.46770,50976
5.47703,50010
5.48638,51406
5.49572,54314
5.50505,54900
5.51440,57120
5.52373,58625
5.53307,60449
5.54242,60991
5.55175,62226
5.56108,62903
5.57043,62663
5.57977,60207
5.58910,54030
5.59845,51193
5.60778,49508
5.61712,49715
5.62647,49192
5.63580,46820
5.64515,47621
5.65448,51156
5.66382,54830
5.67317,59829
5.68250,62964
5.69183,61670
5.70118,62067
5.71052,65602
5.71985,71809
5.72920,71522
5.73853,64090
5.74787,71331
5.75722,85820
5.76655,120112
5.77588,136680
5.78523,108173
5.79457,73399
5.80390,58230
5.81325,50874
5.82258,53083
5.83193,57856
5.84127,64482
5.85060,57063
5.85995,49477
5.86928,44730
5.87862,48630
5.88797,48747
5.89730,46500
5.90663,55946
5.91598,95850
5.92532,179301
5.93465,239017
5.94400,214586
5.95333,190864
5.96267,168083
5.97202,130473
5.98135,87122
5.99068,60571
6.00003,45214
6.00937,36646
6.01872,35343
6.02805,31872
6.03738,29998
6.04673,31368
6.05607,30781
6.06540,33247
6.07475,33009
6.08408,30487
6.09342,26045
6.10277,21156
6.11210,22234
6.12143,28376
6.13078,43149
6.14012,58141
6.14945,58169
6.15880,43154
6.16813,32596
6.17747,28223
6.18682,27298
6.19615,24700
6.20550,24880
6.21483,24389
6.22417,25219
6.23352,28564
6.24285,34018
6.25218,35026
6.26153,30915
6.27087,37255
6.28020,63337
6.28955,78722
6.29888,64073
6.30822,41506
6.31757,29715
6.32690,24889
6.33623,26784
6.34558,31254
6.35492,34625
6.36427,38325
6.37360,38449
6.38293,39924
6.39228,58374
6.40162,201969
6.41095,728744
6.42030,1410241
6.42963,1397781
6.43897,776329
6.44832,270582
6.45765,86877
6.46698,47199
6.47633,39389
6.48567,33245
6.49500,31113
6.50435,26944
6.51368,27097
6.52302,28819
6.53237,29251
6.54170,26836
6.55105,23703
6.56038,25807
6.56972,23436
6.57907,24423
6.58840,25225
6.59773,26568
6.60708,31592
6.61642,33992
6.62575,32627
6.63510,35409
6.64443,36319
6.65377,38573
6.66312,43135
6.67245,43824
6.68178,37817
6.69113,33256
6.70047,41642
6.70980,49100
6.71915,47988
6.72848,41487
6.73783,37027
6.74717,31544
6.75650,28115
6.76585,27412
6.77518,27023
6.78452,27887
6.79387,33236
6.80320,37571
6.81253,37876
6.82188,34461
6.83122,29235
6.84055,28981
6.84990,35194
6.85923,38448
6.86857,37517
6.87792,31862
6.88725,28131
6.89658,24782
6.90593,24878
6.91527,29920
6.92462,28154
6.93395,28123
6.94328,27371
6.95263,28448
6.96197,29779
6.97130,28945
6.98065,30427
6.98998,29638
6.99932,27735
7.00867,24649
7.01800,25995
7.02733,24983
7.03668,25546
7.04602,19880
7.05535,19128
7.06470,19237
7.07403,19750
7.08337,22200
7.09272,23638
7.10205,27639
7.11140,32059
7.12073,36487
7.13007,35263
7.13942,32626
7.14875,25514
7.15808,22577
7.16743,21923
7.17677,21747
7.18610,21117
7.19545,22639
7.20478,24837
7.21412,26089
7.22347,33754
7.23280,65105
7.24213,129817
7.25148,170835
7.26082,142578
7.27017,85749
7.27950,46194
7.28883,38375
7.29818,34528
7.30752,33945
7.31685,28411
7.32620,24768
7.33553,22828
7.34487,23379
7.35422,27076
7.36355,26026
7.37288,26552
7.38223,27579
7.39157,50385
7.40090,145731
7.41025,309517
7.41958,411490
7.42892,350927
7.43827,209281
7.44760,106991
7.45695,55342
7.46628,34504
7.47562,37743
7.48497,50526
7.49430,52429
7.50363,42254
7.51298,32197
7.52232,26182
7.53165,22793
7.54100,22854
7.55033,24017
7.55967,28272
7.56902,29095
7.57835,31432
7.58768,32363
7.59703,34509
7.60637,36763
7.61570,39941
7.62505,39981
7.63438,38819
7.64373,35308
7.65307,32685
7.66240,30918
7.67175,31262
7.68108,32311
7.69042,31550
7.69977,30840
7.70910,29846
7.71843,28070
7.72778,30299
7.73712,31803
7.74645,39546
7.75580,43709
7.76513,43395
7.77447,42557
7.78382,40055
7.79315,40275
7.80248,38642
7.81183,32100
7.82117,26778
7.83052,24805
7.83985,26975
7.84918,29980
7.85853,50075
7.86787,97003
7.87720,149661
7.88655,140864
7.89588,96460
7.90522,74136
7.91457,101016
7.92390,161420
7.93323,179665
7.94258,142413
7.95192,129634
7.96125,133063
7.97060,114217
7.97993,85755
7.98927,67793
7.99862,54864
8.00795,47596
8.01730,40819
8.02663,38555
8.03597,45196
8.04532,68101
8.05465,88013
8.06398,74680
8.07333,48495
8.08267,38825
8.09200,54256
8.10135,94132
8.11068,106502
8.12002,80701
8.12937,51449
8.13870,36139
8.14803,34745
8.15738,34451
8.16672,32522
8.17607,29051
8.18540,28609
8.19473,27785
8.20408,28337
8.21342,32962
8.22275,37107
8.23210,39982
8.24143,39797
8.25077,45027
8.26012,41792
8.26945,35088
8.27878,32647
8.28813,29151
8.29747,29600
8.30680,31186
8.31615,30632
8.32548,31081
8.33482,33054
8.34417,30345
8.35350,29397
8.36285,27477
8.37218,25131
8.38152,30292
8.39087,41712
8.40020,48299
8.40953,47389
8.41888,50269
8.42822,48337
8.43755,45538
8.44690,41540
8.45623,36049
8.46557,35361
8.47492,36579
8.48425,36410
8.49358,35250
8.50293,33809
8.51227,31396
8.52160,30841
8.53095,30037
8.54028,31832
8.54963,33591
8.55897,34694
8.56830,36033
8.57765,38509
8.58698,36308
8.59632,38662
8.60567,43604
8.61500,41572
8.62433,39770
8.63368,35329
8.64302,33884
8.65235,31394
8.66170,30316
8.67103,32039
8.68037,32273
8.68972,33090
8.69905,32054
8.70838,32664
8.71773,32350
8.72707,29961
8.73642,32497
8.74575,39905
8.75508,51716
8.76443,56919
8.77377,53230
8.78310,44023
8.79245,43874
8.80178,61496
8.81112,102257
8.82047,131404
8.82980,115323
8.83913,77256
8.84848,56590
8.85782,46185
8.86715,43943
8.87650,46545
8.88583,45782
8.89518,42762
8.90452,41374
8.91385,52249
8.92320,58201
8.93253,61391
8.94187,54420
8.95122,45533
8.96055,36229
8.96988,33823
8.97923,34804
8.98857,36424
8.99790,37111
9.00725,37917
9.01658,39116
9.02592,40453
9.03527,37574
9.04460,42408
9.05393,46834
9.06328,48526
9.07262,50202
9.08197,53883
9.09130,58220
9.10063,61130
9.10998,52947
9.11932,46760
9.12865,41085
9.13800,39799
9.14733,39711
9.15667,37161
9.16602,34517
9.17535,32833
9.18468,36079
9.19403,36558
9.20337,37985
9.21270,43466
9.22205,67393
9.23138,114727
9.24072,146343
9.25007,129692
9.25940,88394
9.26875,60159
9.27808,48250
9.28742,45839
9.29677,44402
9.30610,40226
9.31543,38827
9.32478,48234
9.33412,68186
9.34345,78290
9.35280,67642
9.36213,80401
9.37147,157337
9.38082,245414
9.39015,258176
9.39948,191548
9.40883,127768
9.41817,92560
9.42750,78652
9.43685,73830
9.44618,62528
9.45553,46767
9.46487,38357
9.47420,35097
9.48355,32383
9.49288,36189
9.50222,41913
9.51157,47790
9.52090,43181
9.53023,45238
9.53958,50057
9.54892,59944
9.55825,71423
9.56760,86037
9.57693,91376
9.58627,68765
9.59562,52025
9.60495,53424
9.61428,58710
9.62363,61686
9.63297,62574
9.64232,55023
9.65165,53683
9.66098,51716
9.67033,48295
9.67967,44759
9.68900,42154
9.69835,40930
9.70768,41597
9.71702,46189
9.72637,70861
9.73570,190540
9.74503,465896
9.75438,702642
9.76372,612061
9.77305,357880
9.78240,191113
9.79173,125326
9.80108,105547
9.81042,86615
9.81975,72733
9.82910,82452
9.83843,93756
9.84777,103855
9.85712,101323
9.86645,84029
9.87578,70789
9.88513,69004
9.89447,79978
9.90380,88124
9.91315,79346
9.92248,75752
9.93182,77418
9.94117,70366
9.95050,57458
9.95983,51110
9.96918,50162
9.97852,67111
9.98787,119376
9.99720,182766
10.00653,179209
10.01588,130634
10.02522,79811
10.03455,52719
10.04390,46258
10.05323,45525
10.06257,55837
10.07192,83653
10.08125,109079
10.09058,102679
10.09993,79458
10.10927,65472
10.11860,104407
10.12795,239062
10.13728,407828
10.14662,459222
10.15597,726322
10.16530,1778382
10.17465,2743165
10.18398,2151347
10.19332,814007
10.20267,198285
10.21200,68410
10.22133,57654
10.23068,61979
10.24002,84190
10.24935,119778
10.25870,123493
10.26803,91327
10.27737,60640
10.28672,51162
10.29605,47806
10.30538,48947
10.31473,45950
10.32407,45830
10.33340,44929
10.34275,44582
10.35208,44107
10.36143,50319
10.37077,54139
10.38010,47857
10.38945,40593
10.39878,36717
10.40812,34866
10.41747,33459
10.42680,36942
10.43613,38546
10.44548,39588
10.45482,45211
10.46415,55232
10.47350,61295
10.48283,60606
10.49217,50078
10.50152,41259
10.51085,37692
10.52020,34638
10.52953,36228
10.53887,35234
10.54822,40245
10.55755,41201
10.56688,40082
10.57623,39454
10.58557,41137
10.59490,42673
10.60425,45702
10.61358,43658
10.62292,124913
10.63227,165204
10.64160,188339
10.65093,172854
10.66028,144783
10.66962,120119
10.67895,111251
10.68830,100254
10.69763,94757
10.70698,80708
10.71632,78318
10.72565,83118
10.73500,78786
10.74433,77852
10.75367,108695
10.76302,187720
10.77235,234195
10.78168,195215
10.79103,240198
10.80037,566459
10.80970,1057213
10.81905,1088612
10.82838,639709
10.83772,233510
10.84707,86045
10.85640,58762
10.86573,57252
10.87508,61392
10.88442,71763
10.89377,78492
10.90310,70854
10.91243,60546
10.92178,55218
10.93112,57779
10.94045,59840
10.94980,55240
10.95913,51810
10.96847,56959
10.97782,56112
10.98715,101514
10.99648,199036
11.00583,214916
11.01517,181238
11.02450,146720
11.03385,121798
11.04318,124254
11.05252,168343
11.06187,205110
11.07120,328262
11.08055,376115
11.08988,315301
11.09922,235896
11.10857,189949
11.11790,177744
11.12723,156119
11.13658,136371
11.14592,122629
11.15525,110499
11.16460,95252
11.17393,88369
11.18327,80005
11.19262,71518
11.20195,67696
11.21128,62939
11.22063,61640
11.22997,66282
11.23930,65280
11.24865,61438
11.25798,63744
11.26733,73216
11.27667,71322
11.28600,64677
11.29535,56486
11.30468,53998
11.31402,52592
11.32337,54567
11.33270,63364
11.34203,75072
11.35138,87637
11.36072,94532
11.37005,96710
11.37940,87090
11.38873,71493
11.39807,65297
11.40742,72674
11.41675,77509
11.42608,68196
11.43543,54527
11.44477,51303
11.45412,49692
11.46345,53516
11.47278,69730
11.48213,76083
11.49147,68167
11.50080,55072
11.51015,47211
11.51948,48017
11.52882,45563
11.53817,47193
11.54750,50371
11.55683,59368
11.56618,84942
11.57552,134751
11.58485,172060
11.59420,163630
11.60353,121387
11.61288,96951
11.62222,77359
11.63155,68253
11.64090,57549
11.65023,56477
11.65957,57402
11.66892,60433
11.67825,74274
11.68758,74702
11.69693,67483
11.70627,63118
11.71560,63306
11.72495,62539
11.73428,57815
11.74362,57696
11.75297,58474
11.76230,59100
11.77163,61278
11.78098,64096
11.79032,74765
11.79967,72482
11.80900,66602
11.81833,59998
11.82768,63105
11.83702,63980
11.84635,62135
11.85570,62043
11.86503,58015
11.87437,56272
11.88372,59678
11.89305,58361
11.90238,56106
11.91173,52561
11.92107,52967
11.93040,50702
11.93975,62754
11.94908,82148
11.95842,91061
11.96777,74696
11.97710,60699
11.98645,53086
11.99578,52062
12.00512,58142
12.01447,87178
12.02380,110577
12.03313,101566
12.04248,81053
12.05182,68074
12.06115,60719
12.07050,49760
12.07983,45259
12.08917,46722
12.09852,48331
12.10785,53129
12.11718,55176
12.12653,52819
12.13587,53958
12.14520,54552
12.15455,57624
12.16388,69361
12.17323,98589
12.18257,145146
12.19190,154580
12.20125,106451
12.21058,67114
12.21992,57347
12.22927,62012
12.23860,67793
12.24793,63678
12.25728,56531
12.26662,67096
12.27595,122897
12.28530,203338
12.29463,211352
12.30397,142518
12.31332,82789
12.32265,62607
12.33200,58906
12.34133,62628
12.35067,62153
12.36002,58728
12.36935,54912
12.37868,58870
12.38803,66426
12.39737,68811
12.40670,71158
12.41605,62509
12.42538,59260
12.43472,57006
12.44407,54391
12.45340,52066
12.46273,54584
12.47208,59212
12.48142,63853
12.49075,65298
12.50010,63545
12.50943,65799
12.51878,64160
12.52812,63609
12.53745,61883
12.54680,59951
12.55613,63582
12.56547,72290
12.57482,76384
12.58415,73033
12.59348,62506
12.60283,56723
12.61217,50619
12.62150,57036
12.63085,69766
12.64018,92810
12.64952,110242
12.65887,108866
12.66820,98375
12.67753,82839
12.68688,67392
12.69622,51074
12.70557,49641
12.71490,51188
12.72423,55360
12.73358,55037
12.74292,52873
12.75225,53875
12.76160,61277
12.77093,59209
12.78027,53021
12.78962,53219
12.79895,50822
12.80828,52307
12.81763,52484
12.82697,52404
12.83630,54200
12.84565,51532
12.85498,46281
12.86432,43112
12.87367,43411
12.88300,43116
12.89235,44469
12.90168,50737
12.91102,50487
12.92037,47319
12.92970,43943
12.93903,42462
12.94838,44457
12.95772,49524
12.96705,49247
12.97640,46822
12.98573,41768
12.99507,42847
13.00442,45596
13.01375,45351
13.02308,50241
13.03243,57290
13.04177,59445
13.05110,55378
13.06045,48472
13.06978,48821
13.07913,54622
13.08847,53300
13.09780,50982
13.10715,49695
13.11648,47221
13.12582,46235
13.13517,51038
13.14450,55716
13.15383,55550
13.16318,56907
13.17252,56999
13.18185,58976
13.19120,61161
13.20053,81556
13.20987,154245
13.21922,232972
13.22855,225598
13.23790,161737
13.24723,127306
13.25657,138208
13.26592,118966
13.27525,96512
13.28458,85490
13.29393,72838
13.30327,62392
13.31260,62302
13.32195,67272
13.33128,73975
13.34062,72320
13.34997,71574
13.35930,67528
13.36863,59830
13.37798,51698
13.38732,51219
13.39665,58002
13.40600,68154
13.41533,71130
13.42468,58891
13.43402,55016
13.44335,62655
13.45270,64977
13.46203,62174
13.47137,59308
13.48072,61622
13.49005,62033
13.49938,60849
13.50873,56273
13.51807,74630
13.52740,114579
13.53675,158633
13.54608,139912
13.55542,88446
13.56477,61423
13.57410,48512
13.58343,46940
13.59278,43206
13.60212,41336
13.61147,40294
13.62080,39719
13.63013,45567
13.63948,62805
13.64882,87371
13.65815,101749
13.66750,85849
13.67683,59986
13.68617,49038
13.69552,48700
13.70485,49095
13.71418,47617
13.72353,45002
13.73287,40838
13.74220,39242
13.75155,39823
13.76088,40852
13.77022,41755
13.77957,42702
13.78890,42417
13.79825,44556
13.80758,49952
13.81692,52680
13.82627,48659
13.83560,45312
13.84493,44815
13.85428,45383
13.86362,45901
13.87295,52633
13.88230,63480
13.89163,103585
13.90097,185735
13.91032,263861
13.91965,307078
13.92898,283064
13.93833,188253
13.94767,104771
13.95702,75652
13.96635,74144
13.97568,65479
13.98503,57397
13.99437,54171
14.00370,55489
14.01305,52707
14.02238,47736
14.03172,47678
14.04107,59886
14.05040,214135
14.05973,1112715
14.06908,3683608
14.07842,6081923
14.08775,5302552
14.09710,2241418
14.10643,480082
14.11577,107004
14.12512,64537
14.13445,58616
14.14380,57875
14.15313,59602
14.16247,62386
14.17182,63989
14.18115,76463
14.19048,115067
14.19983,174865
14.20917,184623
14.21850,123346
14.22785,69888
14.23718,49328
14.24652,44541
14.25587,44146
14.26520,43500
14.27453,47183
14.28388,50412
14.29322,48291
14.30255,42324
14.31190,46112
14.32123,56101
14.33058,71761
14.33992,79745
14.34925,68678
14.35860,57541
14.36793,49463
14.37727,44756
14.38662,43121
14.39595,45470
14.40528,46744
14.41463,43775
14.42397,42657
14.43330,42262
14.44265,42075
14.45198,51835
14.46132,71774
14.47067,90310
14.48000,90864
14.48933,79122
14.49868,65250
14.50802,57224
14.51737,49963
14.52670,42389
14.53603,42495
14.54538,46062
14.55472,49188
14.56405,51694
14.57340,53529
14.58273,49830
14.59207,47103
14.60142,46234
14.61075,45904
14.62008,44941
14.62943,46240
14.63877,60564
14.64810,82877
14.65745,108870
14.66678,118209
14.67612,99466
14.68547,72265
14.69480,58560
14.70415,51261
14.71348,46474
14.72282,43258
14.73217,46513
14.74150,48611
14.75083,50506
14.76018,50774
14.76952,50081
14.77885,54216
14.78820,58065
14.79753,58120
14.80687,58975
14.81622,57022
14.82555,54566
14.83488,52909
14.84423,50761
14.85357,54303
14.86290,63818
14.87225,70481
14.88158,73307
14.89093,63749
14.90027,54274
14.90960,50150
14.91895,51021
14.92828,49623
14.93762,50675
14.94697,51404
14.95630,50622
14.96563,52696
14.97498,56366
14.98432,58973
14.99365,52318
15.00300,53751
15.01233,61741
15.02167,66758
15.03102,61741
15.04035,54236
15.04970,61535
15.05903,66071
15.06837,62577
15.07772,61683
15.08705,56190
15.09638,48050
15.10573,46263
15.11507,46808
15.12440,56229
15.13375,66831
15.14308,74766
15.15242,66660
15.16177,58627
15.17110,49520
15.18043,49219
15.18978,53966
15.19912,60805
15.20845,87030
15.21780,112650
15.22713,122664
15.23648,101970
15.24582,74659
15.25515,61232
15.26450,53238
15.27383,52248
15.28317,53658
15.29252,53754
15.30185,51916
15.31118,50855
15.32053,53476
15.32987,58072
15.33920,69780
15.34855,68742
15.35788,66549
15.36722,66689
15.37657,74045
15.38590,75217
15.39523,61951
15.40458,51400
15.41392,49708
15.42327,50158
15.43260,53567
15.44193,54847
15.45128,52182
15.46062,48732
15.46995,47500
15.47930,48640
15.48863,52041
15.49797,55664
15.50732,60571
15.51665,72442
15.52598,88751
15.53533,91650
15.54467,81641
15.55400,62906
15.56335,53586
15.57268,46835
15.58202,47403
15.59137,46000
15.60070,46561
15.61005,44510
15.61938,49461
15.62872,56998
15.63807,64172
15.64740,71352
15.65673,68763
15.66608,65531
15.67542,61245
15.68475,59464
15.69410,64003
15.70343,79470
15.71277,94599
15.72212,88054
15.73145,69634
15.74078,58038
15.75013,61184
15.75947,70568
15.76882,70779
15.77815,66740
15.78748,62917
15.79683,56904
15.80617,54065
15.81550,59925
15.82485,74334
15.83418,113149
15.84352,182327
15.85287,233894
15.86220,176921
15.87153,105203
15.88088,77412
15.89022,80610
15.89955,89944
15.90890,93784
15.91823,87333
15.92757,72726
15.93692,57479
15.94625,51505
15.95560,48439
15.96493,47978
15.97427,54894
15.98362,68612
15.99295,89846
16.00228,107132
16.01163,95674
16.02097,71917
16.03030,58753
16.03965,54230
16.04898,57322
16.05832,59413
16.06767,62377
16.07700,61558
16.08633,60178
16.09568,58394
16.10502,58016
16.11435,58789
16.12370,64106
16.13303,65965
16.14238,60703
16.15172,58878
16.16105,57182
16.17040,56132
16.17973,52599
16.18907,54526
16.19842,55639
16.20775,61446
16.21708,63034
16.22643,69221
16.23577,70759
16.24510,69694
16.25445,61236
16.26378,57804
16.27312,59968
16.28247,75261
16.29180,125002
16.30113,207254
16.31048,240839
16.31982,177702
16.32917,104840
16.33850,71052
16.34783,56676
16.35718,48047
16.36652,45210
16.37585,42986
16.38520,44680
16.39453,48898
16.40387,50385
16.41322,54958
16.42255,58524
16.43188,54383
16.44123,54461
16.45057,54468
16.45990,60737
16.46925,64035
16.47858,55502
16.48792,56287
16.49727,55289
16.50660,55559
16.51595,56518
16.52528,60578
16.53462,58592
16.54397,53708
16.55330,56009
16.56263,51567
16.57198,48230
16.58132,49153
16.59065,52586
16.60000,50662
16.60933,51258
16.61867,52131
16.62802,56321
16.63735,65094
16.64668,65116
16.65603,61210
16.66537,56187
16.67470,55519
16.68405,54657
16.69338,63409
16.70273,74236
16.71207,76908
16.72140,68694
16.73075,58198
16.74008,60455
16.74942,92017
16.75877,127282
16.76810,118023
16.77743,83246
16.78678,58657
16.79612,53131
16.80545,54476
16.81480,60352
16.82413,68116
16.83347,75924
16.84282,87167
16.85215,88949
16.86150,81714
16.87083,65447
16.88017,57313
16.88952,53508
16.89885,54320
16.90818,60000
16.91753,73534
16.92687,80404
16.93620,77675
16.94555,72132
16.95488,75584
16.96422,82312
16.97357,83425
16.98290,75584
16.99223,65634
17.00158,56977
17.01092,52370
17.02025,55892
17.02960,72216
17.03893,94841
17.04828,100133
17.05762,81810
17.06695,63950
17.07630,59374
17.08563,55817
17.09497,56808
17.10432,57291
17.11365,53470
17.12298,53386
17.13233,54166
17.14167,56847
17.15100,58425
17.16035,51344
17.16968,48853
17.17902,51103
17.18837,52396
17.19770,53080
17.20703,51752
17.21638,49124
17.22572,48441
17.23507,47785
17.24440,47757
17.25373,49768
17.26308,53825
17.27242,58579
17.28175,58693
17.29110,61660
17.30043,57419
17.30977,55658
17.31912,57089
17.32845,60870
17.33778,61946
17.34713,57853
17.35647,50740
17.36580,48854
17.37515,60542
17.38448,90597
17.39382,126289
17.40317,128943
17.41250,93535
17.42185,71662
17.43118,60435
17.44052,56257
17.44987,55554
17.45920,58760
17.46853,59490
17.47788,61036
17.48722,73803
17.49655,160533
17.50590,560753
17.51523,1379041
17.52457,1851194
17.53392,1255716
17.54325,449308
17.55258,123836
17.56193,68944
17.57127,65984
17.58062,67798
17.58995,72917
17.59928,72121
17.60863,63640
17.61797,57531
17.62730,55610
17.63665,54972
17.64598,56797
17.65532,57547
17.66467,62400
17.67400,69164
17.68333,81263
17.69268,88928
17.70202,90635
17.71135,86489
17.72070,75032
17.73003,68254
17.73937,65206
17.74872,68537
17.75805,74109
17.76740,76019
17.77673,76347
17.78607,72973
17.79542,65866
17.80475,65223
17.81408,60049
17.82343,57477
17.83277,55695
17.84210,55623
17.85145,56555
17.86078,64788
17.87012,75233
17.87947,78319
17.88880,70914
17.89813,61446
17.90748,54673
17.91682,52888
17.92615,50347
17.93550,56788
17.94483,55483
17.95418,55480
17.96352,53614
17.97285,54681
17.98220,57172
17.99153,52941
18.00087,52513
18.01022,52349
18.01955,52157
18.02888,50499
18.03823,53296
18.04757,60064
18.05690,74325
18.06625,86829
18.07558,77999
18.08492,60999
18.09427,56048
18.10360,63590
18.11293,85822
18.12228,98539
18.13162,89309
18.14097,75716
18.15030,68054
18.15963,66476
18.16898,64938
18.17832,63107
18.18765,60456
18.19700,59950
18.20633,56923
18.21567,53378
18.22502,52614
18.23435,53903
18.24368,54839
18.25303,49912
18.26237,51252
18.27170,52284
18.28105,57053
18.29038,64211
18.29972,67729
18.30907,72666
18.31840,69378
18.32775,65473
18.33708,66169
18.34642,68694
18.35577,83669
18.36510,126281
18.37443,119762
18.38378,114249
18.39312,100221
18.40245,96657
18.41180,102712
18.42113,95857
18.43047,79039
18.43982,69826
18.44915,73559
18.45848,72834
18.46783,67768
18.47717,61904
18.48652,64070
18.49585,76363
18.50518,88245
18.51453,98500
18.52387,98832
18.53320,82169
18.54255,68260
18.55188,61061
18.56122,62313
18.57057,61049
18.57990,56874
18.58923,57187
18.59858,57640
18.60792,60424
18.61725,66223
18.62660,66341
18.63593,64791
18.64527,67109
18.65462,66709
18.66395,61088
18.67330,62702
18.68263,68380
18.69197,75060
18.70132,76753
18.71065,75389
18.71998,77448
18.72933,77091
18.73867,76692
18.74800,70762
18.75735,62450
18.76668,56217
18.77602,53535
18.78537,52857
18.79470,49423
18.80403,51267
18.81338,51551
18.82272,50327
18.83205,53056
18.84140,53969
18.85073,50825
18.86008,50612
18.86942,51703
18.87875,46954
18.88810,49603
18.89743,51851
18.90677,59563
18.91612,74819
18.92545,98060
18.93478,125590
18.94413,135790
18.95347,126174
18.96280,109888
18.97215,102130
18.98148,98733
18.99082,85470
19.00017,74030
19.00950,65801
19.01883,64265
19.02818,65089
19.03752,68056
19.04687,75485
19.05620,90857
19.06553,104714
19.07488,115132
19.08422,142267
19.09355,168034
19.10290,143082
19.11223,99428
19.12157,71301
19.13092,55852
19.14025,53079
19.14958,51640
19.15893,48900
19.16827,47798
19.17760,48892
19.18695,50919
19.19628,57068
19.20563,61600
19.21497,64416
19.22430,64306
19.23365,65459
19.24298,62031
19.25232,58212
19.26167,56524
19.27100,55642
19.28033,58647
19.28968,65808
19.29902,71603
19.30835,94213
19.31770,131360
19.32703,139745
19.33637,111752
19.34572,79812
19.35505,63447
19.36438,55547
19.37373,51540
19.38307,51825
19.39242,55055
19.40175,66329
19.41108,78263
19.42043,74436
19.42977,61429
19.43910,51668
19.44845,47917
19.45778,47552
19.46712,47254
19.47647,51333
19.48580,53000
19.49513,56043
19.50448,54629
19.51382,52012
19.52315,50359
19.53250,51942
19.54183,50219
19.55117,50693
19.56052,48282
19.56985,47808
19.57920,54703
19.58853,53593
19.59787,56903
19.60722,54480
19.61655,53926
19.62588,54891
19.63523,57361
19.64457,61373
19.65390,60096
19.66325,57754
19.67258,51080
19.68192,54362
19.69127,58743
19.70060,65319
19.70993,73666
19.71928,73073
19.72862,76001
19.73795,82670
19.74730,79622
19.75663,67299
19.76598,57989
19.77532,61131
19.78465,61422
19.79400,62452
19.80333,61688
19.81267,60791
19.82202,58790
19.83135,55945
19.84068,56514
19.85003,51878
19.85937,49684
19.86870,56070
19.87805,69562
19.88738,82775
19.89672,74404
19.90607,61838
19.91540,54779
19.92473,53683
19.93408,51698
19.94342,52355
19.95277,52342
19.96210,55523
19.97143,58470
19.98078,56645
19.99012,52481
19.99945,49030
20.00880,46403
20.01813,47043
20.02747,50350
20.03682,54356
20.04615,57869
20.05548,60010
20.06483,54740
20.07417,53203
20.08350,54538
20.09285,52950
20.10218,52158
20.11152,51373
20.12087,46308
20.13020,46046
20.13955,46383
20.14888,53842
20.15822,63581
20.16757,64330
20.17690,61969
20.18623,54374
20.19558,50713
20.20492,47979
20.21425,48441
20.22360,50100
20.23293,50836
20.24227,51595
20.25162,51651
20.26095,49813
20.27028,48284
20.27963,47594
20.28897,51500
20.29832,53555
20.30765,52182
20.31698,48539
20.32633,45171
20.33567,45354
20.34500,44859
20.35435,45603
20.36368,47280
20.37302,49453
20.38237,47839
20.39170,45047
20.40103,44326
20.41038,46405
20.41972,45254
20.42905,47098
20.43840,47426
20.44773,49011
20.45707,49309
20.46642,49263
20.47575,53952
20.48510,56246
20.49443,54321
20.50377,50755
20.51312,50226
20.52245,48457
20.53178,47317
20.54113,49924
20.55047,51301
20.55980,60559
20.56915,89699
20.57848,153669
20.58782,197595
20.59717,167800
20.60650,107009
20.61583,73642
20.62518,65277
20.63452,61975
20.64385,61751
20.65320,63687
20.66253,61336
20.67188,56308
20.68122,54224
20.69055,59956
20.69990,60252
20.70923,58703
20.71857,59144
20.72792,60470
20.73725,59859
20.74658,57027
20.75593,55292
20.76527,54339
20.77460,52544
20.78395,53698
20.79328,55104
20.80262,60462
20.81197,63941
20.82130,60070
20.83063,52972
20.83998,49932
20.84932,48561
20.85867,48076
20.86800,48884
20.87733,48360
20.88668,48114
20.89602,52573
20.90535,55998
20.91470,57509
20.92403,55566
20.93337,52374
20.94272,49889
20.95205,46976
20.96138,46287
20.97073,48188
20.98007,46115
20.98940,46208
20.99875,48619
21.00808,48514
21.01743,47435
21.02677,47050
21.03610,47166
21.04545,45923
21.05478,46310
21.06412,51644
21.07347,51040
21.08280,46876
21.09213,47164
21.10148,50810
21.11082,48741
21.12015,51650
21.12950,52302
21.13883,52827
21.14817,49595
21.15752,50273
21.16685,52063
21.17618,55251
21.18553,60914
21.19487,66421
21.20422,61522
21.21355,56753
21.22288,56350
21.23223,56757
21.24157,56705
21.25090,52212
21.26025,54126
21.26958,55541
21.27892,64953
21.28827,68035
21.29760,69660
21.30693,66799
21.31628,57074
21.32562,58052
21.33495,55566
21.34430,53387
21.35363,53841
21.36297,50908
21.37232,51553
21.38165,51103
21.39100,51657
21.40033,54607
21.40967,59889
21.41902,61249
21.42835,54729
21.43768,59294
21.44703,61542
21.45637,59821
21.46570,60010
21.47505,59006
21.48438,61297
21.49372,64483
21.50307,68215
21.51240,68167
21.52173,65319
21.53108,59183
21.54042,55893
21.54975,57043
21.55910,60613
21.56843,73509
21.57778,95861
21.58712,95953
21.59645,85881
21.60580,71631
21.61513,61127
21.62447,57883
21.63382,61909
21.64315,57666
21.65248,56517
21.66183,53446
21.67117,56950
21.68050,68889
21.68985,76313
21.69918,77794
21.70852,73094
21.71787,71292
21.72720,73405
21.73653,75303
21.74588,69833
21.75522,56894
21.76457,53063
21.77390,52520
21.78323,54700
21.79258,52742
21.80192,56454
21.81125,63063
21.82060,70000
21.82993,71620
21.83927,65662
21.84862,60925
21.85795,59762
21.86728,59573
21.87663,63760
21.88597,67369
21.89530,75605
21.90465,74146
21.91398,68327
21.92333,61073
21.93267,56508
21.94200,53958
21.95135,60074
21.96068,62448
21.97002,74341
21.97937,78257
21.98870,85604
21.99803,94545
22.00738,87326
22.01672,78670
22.02605,66949
22.03540,62662
22.04473,68879
22.05407,72566
22.06342,75717
22.07275,74021
22.08208,72305
22.09143,70131
22.10077,66838
22.11012,63476
22.11945,61456
22.12878,57224
22.13813,56728
22.14747,59902
22.15680,67276
22.16615,81487
22.17548,90058
22.18482,88224
22.19417,77448
22.20350,67503
22.21283,63847
22.22218,66622
22.23152,68038
22.24085,68894
22.25020,67353
22.25953,64247
22.26887,68071
22.27822,79527
22.28755,94735
22.29690,103416
22.30623,97389
22.31557,80656
22.32492,69285
22.33425,65639
22.34358,66014
22.35293,71343
22.36227,84347
22.37160,86337
22.38095,94126
22.39028,94606
22.39962,87120
22.40897,74111
22.41830,68793
22.42763,71109
22.43698,78880
22.44632,84831
22.45565,78957
22.46500,73535
22.47433,71768
22.48368,70827
22.49302,64554
22.50235,62941
22.51170,66562
22.52103,65102
22.53037,68407
22.53972,64093
22.54905,64065
22.55838,65450
22.56773,73466
22.57707,85206
22.58640,93576
22.59575,92345
22.60508,94248
22.61442,90378
22.62377,84925
22.63310,85138
22.64245,78999
22.65178,71882
22.66112,67588
22.67047,64459
22.67980,68007
22.68913,79987
22.69848,87612
22.70782,86369
22.71715,76737
22.72650,72964
22.73583,80755
22.74517,83534
22.75452,84678
22.76385,81876
22.77318,81055
22.78253,78419
22.79187,78447
22.80120,84868
22.81055,90096
22.81988,88954
22.82923,83341
22.83857,78707
22.84790,81873
22.85725,80783
22.86658,77687
22.87592,74894
22.88527,72616
22.89460,76980
22.90393,76182
22.91328,75580
22.92262,80000
22.93195,81098
22.94130,80735
22.95063,73924
22.95997,69157
22.96932,69511
22.97865,65739
22.98798,63512
22.99733,60775
23.00667,60348
23.01602,57148
23.02535,56169
23.03468,57865
23.04403,59793
23.05337,63017
23.06270,64874
23.07205,61149
23.08138,58755
23.09072,59107
23.10007,56012
23.10940,55918
23.11873,54860
23.12808,55308
23.13742,55454
23.14675,57355
23.15610,55916
23.16543,57217
23.17477,57491
23.18412,58154
23.19345,57238
23.20280,56843
23.21213,53509
23.22147,53661
23.23082,53707
23.24015,57055
23.24948,59834
23.25883,64076
23.26817,69136
23.27750,68819
23.28685,63136
23.29618,59353
23.30552,57243
23.31487,57203
23.32420,63106
23.33353,75195
23.34288,90699
23.35222,91877
23.36155,76496
23.37090,62888
23.38023,60209
23.38958,58574
23.39892,58527
23.40825,56562
23.41760,56342
23.42693,55291
23.43627,55998
23.44562,58034
23.45495,61447
23.46428,63038
23.47363,61262
23.48297,59373
23.49230,57913
23.50165,54699
23.51098,52871
23.52032,58094
23.52967,58265
23.53900,60428
23.54833,57295
23.55768,56084
23.56702,56336
23.57637,53320
23.58570,59144
23.59503,58015
23.60438,56609
23.61372,53993
23.62305,52005
23.63240,49947
23.64173,52211
23.65107,50799
23.66042,50760
23.66975,52667
23.67908,55143
23.68843,56999
23.69777,61475
23.70710,58507
23.71645,61154
23.72578,63304
23.73513,64628
23.74447,67092
23.75380,62183
23.76315,56259
23.77248,54826
23.78182,52694
23.79117,53554
23.80050,55707
23.80983,56157
23.81918,53972
23.82852,55500
23.83785,52812
23.84720,52077
23.85653,50985
23.86587,49980
23.87522,52870
23.88455,53440
23.89388,54844
23.90323,56377
23.91257,55873
23.92192,53988
23.93125,52678
23.94058,50992
23.94993,52574
23.95927,53001
23.96860,51224
23.97795,51619
23.98728,49953
23.99662,51700
24.00597,49696
24.01530,51954
24.02463,54199
24.03398,52485
24.04332,49193
24.05265,49710
24.06200,49119
24.07133,48453
24.08067,51023
24.09002,53564
24.09935,54612
24.10870,53365
24.11803,52277
24.12737,52326
24.13672,52831
24.14605,51551
24.15538,50865
24.16473,51395
24.17407,49999
24.18340,47822
24.19275,48410
24.20208,50805
24.21142,49876
24.22077,52518
24.23010,54534
24.23943,57578
24.24878,58121
24.25812,59112
24.26745,56434
24.27680,55534
24.28613,55326
24.29548,55451
24.30482,50847
24.31415,55600
24.32350,59646
24.33283,59829
24.34217,58867
24.35152,57184
24.36085,55575
24.37018,55212
24.37953,60552
24.38887,59336
24.39820,59451
24.40755,60593
24.41688,55752
24.42622,53776
24.43557,55329
24.44490,52591
24.45425,51485
24.46358,51592
24.47292,52210
24.48227,52730
24.49160,52788
24.50093,53295
24.51028,51556
24.51962,51371
24.52895,50431
24.53830,49993
24.54763,53733
24.55697,54185
24.56632,52145
24.57565,54066
24.58498,52946
24.59433,50453
24.60367,51962
24.61300,57430
24.62235,57940
24.63168,57659
24.64103,54357
24.65037,55248
24.65970,56035
24.66905,58885
24.67838,58910
24.68772,60364
24.69707,60739
24.70640,57154
24.71573,55411
24.72508,58047
24.73442,55306
24.74375,52280
24.75310,51662
24.76243,51873
24.77177,53572
24.78112,52492
24.79045,50538
24.79978,50594
24.80913,50783
24.81847,50103
24.82782,51839
24.83715,49335
24.84648,49832
24.85583,52031
24.86517,53587
24.87450,50767
24.88385,50651
24.89318,53081
24.90252,51569
24.91187,55334
24.92120,53124
24.93053,49825
24.93988,49802
24.94922,51620
24.95855,54530
24.96790,53584
24.97723,51703
24.98657,50605
24.99592,53601
25.00525,52952
25.01460,51727
25.02393,51214
25.03327,48348
25.04262,51163
25.05195,51625
25.06128,50742
25.07063,51906
25.07997,51987
25.08930,51807
25.09865,52503
25.10798,51676
25.11732,53634
25.12667,48775
25.13600,52688
25.14533,56188
25.15468,57377
25.16402,55902
25.17335,55197
25.18270,55056
25.19203,54211
25.20138,52084
25.21072,53362
25.22005,51469
25.22940,50819
25.23873,51204
25.24807,52789
25.25742,49971
25.26675,54199
25.27608,52600
25.28543,52119
25.29477,51795
25.30410,54006
25.31345,57887
25.32278,78059
25.33212,128467
25.34147,183412
25.35080,198167
25.36013,151479
25.36948,106482
25.37882,88552
25.38817,81250
25.39750,75888
25.40683,74541
25.41618,73053
25.42552,71459
25.43485,70147
25.44420,70093
25.45353,70076
25.46287,72369
25.47222,74545
25.48155,79520
25.49088,85126
25.50023,86646
25.50957,87551
25.51890,84829
25.52825,88274
25.53758,88858
25.54693,88702
25.55627,86521
25.56560,85625
25.57495,85726
25.58428,84707
25.59362,81239
25.60297,80535
25.61230,76981
25.62163,74562
25.63098,73822
25.64032,72580
25.64965,73476
25.65900,77211
25.66833,76453
25.67767,77341
25.68702,74087
25.69635,75434
25.70568,73237
25.71503,73155
25.72437,68589
25.73372,72753
25.74305,70706
25.75238,69882
25.76173,71550
25.77107,69294
25.78040,72257
25.78975,71333
25.79908,68968
25.80842,75304
25.81777,76799
25.82710,75609
25.83643,77765
25.84578,77475
25.85512,76222
25.86445,72304
25.87380,70537
25.88313,68181
25.89247,67922
25.90182,67127
25.91115,69464
25.92050,67794
25.92983,67472
25.93917,67667
25.94852,68934
25.95785,68828
25.96718,70865
25.97653,70201
25.98587,69655
25.99520,67237
26.00455,66921
26.01388,66638
26.02322,65343
26.03257,66734
26.04190,70992
26.05123,72384
26.06058,73791
26.06992,69622
26.07925,69658
26.08860,72863
26.09793,67916
26.10728,69977
26.11662,66302
26.12595,65921
26.13530,68321
26.14463,74382
26.15397,78168
26.16332,79977
26.17265,78575
26.18198,72950
26.19133,72355
26.20067,68001
26.21000,66747
26.21935,63361
26.22868,64433
26.23802,64916
26.24737,62924
26.25670,63134
26.26605,64642
26.27538,63467
26.28472,63013
26.29407,65199
26.30340,64042
26.31273,64259
26.32208,68436
26.33142,65062
26.34075,67158
26.35010,65444
26.35943,65393
26.36877,64513
26.37812,63380
26.38745,63306
26.39678,61623
26.40613,61911
26.41547,61241
26.42480,59847
26.43415,61122
26.44348,61557
26.45283,63600
26.46217,63553
26.47150,66474
26.48085,67113
26.49018,66441
26.49952,65784
26.50887,67425
26.51820,65276
26.52753,68208
26.53688,71257
26.54622,73385
26.55555,72040
26.56490,68980
26.57423,66108
26.58357,67222
26.59292,69436
26.60225,69694
26.61158,73005
26.62093,71218
26.63027,67189
26.63962,63542
26.64895,63360
26.65828,65922
26.66763,65498
26.67697,66384
26.68630,65241
26.69565,66419
26.70498,65591
26.71432,61466
26.72367,62675
26.73300,61076
26.74233,60433
26.75168,63863
26.76102,64019
26.77035,65129
26.77970,67019
26.78903,67289
26.79837,68267
26.80772,65760
26.81705,61914
26.82640,65114
26.83573,65449
26.84507,62700
26.85442,65555
26.86375,64840
26.87308,65069
26.88243,64775
26.89177,63680
26.90110,61717
26.91045,61426
26.91978,62778
26.92912,61264
26.93847,61206
26.94780,59887
26.95713,60806
26.96648,61118
26.97582,61218
26.98515,59698
26.99450,61395
27.00383,63881
27.01318,62477
27.02252,65440
27.03185,63203
27.04120,63958
27.05053,66138
27.05987,63806
27.06922,67505
27.07855,65918
27.08788,67771
27.09723,67042
27.10657,66288
27.11590,64517
27.12525,64910
27.13458,68609
27.14392,68122
27.15327,70078
27.16260,68609
27.17195,68266
27.18128,64630
27.19062,62996
27.19997,62626
27.20930,63691
27.21863,62406
27.22798,62654
27.23732,62796
27.24665,65293
27.25600,69676
27.26533,74342
27.27467,73622
27.28402,68745
27.29335,66426
27.30268,66535
27.31203,64609
27.32137,63629
27.33070,62582
27.34005,62177
27.34938,61254
27.35873,63295
27.36807,62364
27.37740,60022
27.38675,60984
27.39608,62264
27.40542,61279
27.41477,62059
27.42410,62872
27.43343,65633
27.44278,67649
27.45212,66697
27.46145,65695
27.47080,67460
27.48013,72657
27.48947,73817
27.49882,79868
27.50815,86205
27.51748,92552
27.52683,99108
27.53617,106790
27.54552,112365
27.55485,108772
27.56418,106346
27.57353,99475
27.58287,97513
27.59220,93150
27.60155,88546
27.61088,82376
27.62022,79466
27.62957,78845
27.63890,75557
27.64823,74907
27.65758,75174
27.66692,83760
27.67625,104558
27.68560,116975
27.69493,114440
27.70427,99217
27.71362,90206
27.72295,83393
27.73230,77693
27.74163,75880
27.75097,74696
27.76032,70949
27.76965,73651
27.77898,71183
27.78833,72324
27.79767,72537
27.80700,67742
27.81635,72329
27.82568,69947
27.83502,68577
27.84437,69784
27.85370,70448
27.86303,70160
27.87238,68640
27.88172,67653
27.89107,66912
27.90040,67644
27.90973,66516
27.91908,67155
27.92842,69258
27.93775,69260
27.94710,69678
27.95643,68432
27.96577,67451
27.97512,65895
27.98445,68622
27.99378,71014
28.00313,69047
28.01247,69329
28.02180,66033
28.03115,66685
28.04048,66821
28.04982,65184
28.05917,67369
28.06850,66823
28.07785,71583
28.08718,71093
28.09652,70711
28.10587,70535
28.11520,74101
28.12453,77754
28.13388,79098
28.14322,81241
28.15255,75181
28.16190,73504
28.17123,74905
28.18057,73214
28.18992,73676
28.19925,73587
28.20858,70884
28.21793,71050
28.22727,69882
28.23660,68197
28.24595,71716
28.25528,69074
28.26463,72328
28.27397,69153
28.28330,67633
28.29265,69194
28.30198,67392
28.31132,67642
28.32067,69492
28.33000,68670
28.33933,68443
28.34868,69202
28.35802,68802
28.36735,67643
28.37670,68544
28.38603,69320
28.39537,69366
28.40472,70480
28.41405,68500
28.42338,71190
28.43273,68471
28.44207,68924
28.45142,69593
28.46075,70207
28.47008,70174
28.47943,69378
28.48877,69221
28.49810,70692
28.50745,68045
28.51678,67690
28.52612,70124
28.53547,71560
28.54480,70106
28.55413,71872
28.56348,71541
28.57282,74135
28.58215,73642
28.59150,77475
28.60083,81869
28.61017,84547
28.61952,83760
28.62885,81314
28.63820,80150
28.64753,76441
28.65687,78116
28.66622,85561
28.67555,103596
28.68488,124425
28.69423,136759
28.70357,123141
28.71290,97933
28.72225,86290
28.73158,82793
28.74092,80601
28.75027,81167
28.75960,82267
28.76893,76087
28.77828,76431
28.78762,76593
28.79697,74999
28.80630,77188
28.81563,73540
28.82498,76598
28.83432,77998
28.84365,74589
28.85300,79133
28.86233,77433
28.87167,76551
28.88102,77397
28.89035,75455
28.89968,76904
28.90903,77385
28.91837,76797
28.92770,76975
28.93705,75181
28.94638,76879
28.95572,77011
28.96507,80804
28.97440,83470
28.98375,86197
28.99308,84404
29.00242,81042
29.01177,80782
29.02110,81674
29.03043,81661
29.03978,81855
29.04912,80464
29.05845,79305
29.06780,80546
29.07713,80155
29.08647,79147
29.09582,83398
29.10515,81885
29.11448,77967
29.12383,78818
29.13317,80106
29.14250,79215
29.15185,80119
29.16118,77311
29.17053,81109
29.17987,79784
29.18920,83491
29.19855,89366
29.20788,101606
29.21722,102782
29.22657,99974
29.23590,94059
29.24523,86244
29.25458,86036
29.26392,86653
29.27325,84945
29.28260,83921
29.29193,86123
29.30127,83001
29.31062,85367
29.31995,82799
29.32928,82658
29.33863,83637
29.34797,82222
29.35732,82418
29.36665,84727
29.37598,81890
29.38533,81049
29.39467,82585
29.40400,83016
29.41335,83375
29.42268,81156
29.43202,85274
29.44137,85325
29.45070,84681
29.46003,86075
29.46938,89502
29.47872,89736
29.48805,91675
29.49740,89023
29.50673,85513
29.51607,84552
29.52542,83123
29.53475,83739
29.54410,83948
29.55343,79990
29.56277,83287
29.57212,79278
29.58145,79350
29.59078,81161
29.60013,82767
29.60947,80445
29.61880,77951
29.62815,81968
29.63748,81196
29.64682,79072
29.65617,80030
29.66550,80331
29.67483,77660
29.68418,81775
29.69352,81425
29.70287,80915
29.71220,81437
29.72153,82135
29.73088,81254
29.74022,83444
29.74955,87137
29.75890,85658
29.76823,84393
29.77757,81685
29.78692,86779
29.79625,81604
29.80558,80920
29.81493,82534
29.82427,81107
29.83360,81002
29.84295,82179
29.85228,78069
29.86162,76873
29.87097,80586
29.88030,80685
29.88965,78986
29.89898,80477
29.90832,79844
29.91767,82787
29.92700,78872
29.93633,80774
29.94568,82658
29.95502,81276
29.96435,80493
29.97370,81909
29.98303,87594
29.99237,90830
30.00172,88988
30.01105,88003
30.02038,83728
30.02973,80156
30.03907,80860
30.04840,81216
30.05775,79002
30.06708,81944
30.07643,81069
30.08577,82149
30.09510,83822
30.10445,87971
30.11378,92497
30.12312,95907
30.13247,101922
30.14180,107959
30.15113,120035
30.16048,125722
30.16982,128172
30.17915,134560
30.18850,130463
30.19783,127248
30.20717,124976
30.21652,120269
30.22585,113891
30.23518,111914
30.24453,106655
30.25387,101988
30.26322,96919
30.27255,99998
30.28188,92772
30.29123,93676
30.30057,94156
30.30990,91454
30.31925,92660
30.32858,88160
30.33792,87189
30.34727,87879
30.35660,89701
30.36593,88785
30.37528,91297
30.38462,92653
30.39395,98643
30.40330,111867
30.41263,116918
30.42197,114993
30.43132,113286
30.44065,104402
30.45000,99822
30.45933,95436
30.46867,93683
30.47802,92212
30.48735,92376
30.49668,95375
30.50603,92161
30.51537,90335
30.52470,87456
30.53405,87784
30.54338,85802
30.55272,86521
30.56207,86094
30.57140,88084
30.58073,88957
30.59008,90797
30.59942,90879
30.60877,94374
30.61810,92520
30.62743,99684
30.63678,103783
30.64612,109566
30.65545,110190
30.66480,111969
30.67413,111469
30.68347,107030
30.69282,107178
30.70215,104462
30.71148,98679
30.72083,99313
30.73017,94585
30.73950,92916
30.74885,94456
30.75818,94600
30.76752,92369
30.77687,94200
30.78620,92836
30.79555,90281
30.80488,93591
30.81422,91274
30.82357,90348
30.83290,91158
30.84223,91317
30.85158,92340
30.86092,93039
30.87025,94588
30.87960,95935
30.88893,94977
30.89827,97506
30.90762,100320
30.91695,94342
30.92628,97606
30.93563,97555
30.94497,98123
30.95430,97362
30.96365,98596
30.97298,99267
30.98233,96982
30.99167,96850
31.00100,97293
31.01035,92935
31.01968,92312
31.02902,97687
31.03837,94900
31.04770,94812
31.05703,94410
31.06638,93113
31.07572,92314
31.08505,94684
31.09440,94144
31.10373,97829
31.11307,94004
31.12242,96179
31.13175,94450
31.14108,99854
31.15043,99041
31.15977,95535
31.16912,96665
31.17845,95688
31.18778,95558
31.19713,96150
31.20647,96111
31.21580,94088
31.22515,95949
31.23448,96659
31.24382,98406
31.25317,99125
31.26250,98307
31.27183,96868
31.28118,98198
31.29052,98109
31.29985,97200
31.30920,95996
31.31853,98828
31.32788,94463
31.33722,96203
31.34655,97573
31.35590,92913
31.36523,95554
