D:\数据\20211222\ZS1E-TJ-000210.D Wed Dec 22 15:19:19 2021
Start of data points
0.09770,28730
0.10705,29726
0.11638,29326
0.12572,30408
0.13507,30835
0.14440,30716
0.15375,31932
0.16308,29813
0.17242,30614
0.18177,28774
0.19110,28879
0.20043,28326
0.20978,28405
0.21912,28102
0.22845,26138
0.23780,27025
0.24713,26497
0.25647,27273
0.26582,26604
0.27515,25044
0.28448,27397
0.29383,26160
0.30317,25719
0.31250,24517
0.32185,25989
0.33118,27216
0.34053,24687
0.34987,26395
0.35920,25290
0.36855,25540
0.37788,25954
0.38722,25514
0.39657,25487
0.40590,25839
0.41523,24688
0.42458,25064
0.43392,25949
0.44325,23858
0.45260,20332
0.46193,15905
0.47127,11130
0.48062,6455
0.48995,5417
0.49930,6125
0.50863,6112
0.51797,5471
0.52732,5830
0.53665,5869
0.54598,5357
0.55533,5192
0.56467,4619
0.57400,5158
0.58335,4810
0.59268,5783
0.60202,4765
0.61137,4900
0.62070,5328
0.63003,4376
0.63938,5175
0.64872,4308
0.65805,4655
0.66740,5182
0.67673,4866
0.68608,4683
0.69542,5148
0.70475,4604
0.71410,4929
0.72343,4651
0.73277,4614
0.74212,4521
0.75145,4410
0.76078,5076
0.77013,3981
0.77947,4873
0.78880,4610
0.79815,4287
0.80748,4151
0.81682,4901
0.82617,4584
0.83550,4478
0.84483,4380
0.85418,4442
0.86352,4382
0.87287,4130
0.88220,4385
0.89153,4322
0.90088,4177
0.91022,4506
0.91955,4551
0.92890,4256
0.93823,4446
0.94757,4124
0.95692,4405
0.96625,3904
0.97558,4448
0.98493,4082
0.99427,3838
1.00360,5066
1.01295,4224
1.02228,3879
1.03162,4406
1.04097,4584
1.05030,4015
1.05965,4241
1.06898,4401
1.07832,4130
1.08767,3977
1.09700,4018
1.10633,4237
1.11568,4821
1.12502,4416
1.13435,4498
1.14370,4687
1.15303,3808
1.16237,4109
1.17172,4172
1.18105,4919
1.19038,4247
1.19973,3746
1.20907,4713
1.21842,4526
1.22775,4626
1.23708,4235
1.24643,4507
1.25577,4635
1.26510,4288
1.27445,4090
1.28378,4423
1.29312,4336
1.30247,4108
1.31180,3856
1.32113,3874
1.33048,3909
1.33982,4700
1.34915,4227
1.35850,4324
1.36783,4281
1.37717,4457
1.38652,4437
1.39585,3585
1.40520,3799
1.41453,4051
1.42387,4169
1.43322,4365
1.44255,4413
1.45188,4051
1.46123,4209
1.47057,4132
1.47990,4069
1.48925,4068
1.49858,4477
1.50792,3487
1.51727,3764
1.52660,3811
1.53593,3746
1.54528,4117
1.55462,4419
1.56395,4067
1.57330,3926
1.58263,4160
1.59198,4122
1.60132,4463
1.61065,5625
1.62000,11885
1.62933,19426
1.63867,23447
1.64802,33790
1.65735,54771
1.66668,76657
1.67603,87662
1.68537,83316
1.69470,66113
1.70405,48546
1.71338,31447
1.72272,20498
1.73207,19608
1.74140,22422
1.75073,24219
1.76008,26350
1.76942,29041
1.77877,28819
1.78810,29909
1.79743,31163
1.80678,31801
1.81612,30828
1.82545,31123
1.83480,31014
1.84413,31159
1.85347,30962
1.86282,31740
1.87215,36132
1.88148,44115
1.89083,63680
1.90017,105695
1.90950,162336
1.91885,215737
1.92818,297835
1.93752,433674
1.94687,540524
1.95620,540473
1.96555,451842
1.97488,346724
1.98422,246386
1.99357,174654
2.00290,131094
2.01223,123519
2.02158,134218
2.03092,148408
2.04025,124231
2.04960,103232
2.05893,91896
2.06827,76878
2.07762,63807
2.08695,57150
2.09628,52621
2.10563,51812
2.11497,54846
2.12430,59426
2.13365,70895
2.14298,97636
2.15233,110438
2.16167,106522
2.17100,96026
2.18035,99055
2.18968,169389
2.19902,230291
2.20837,169428
2.21770,105468
2.22703,86019
2.23638,115121
2.24572,211829
2.25505,1273611
2.26440,3024560
2.27373,3018399
2.28307,2094195
2.29242,1267115
2.30175,945305
2.31110,2718890
2.32043,7490097
2.32977,8402716
2.33912,5006575
2.34845,2194606
2.35778,949885
2.36713,448373
2.37647,270757
2.38580,198376
2.39515,162827
2.40448,140215
2.41382,125875
2.42317,114540
2.43250,104704
2.44183,104027
2.45118,93215
2.46052,82546
2.46985,75092
2.47920,72923
2.48853,69973
2.49788,62849
2.50722,57557
2.51655,56182
2.52590,55181
2.53523,54936
2.54457,61968
2.55392,78487
2.56325,83044
2.57258,85647
2.58193,179970
2.59127,181579
2.60060,152294
2.60995,134779
2.61928,149062
2.62862,166765
2.63797,152393
2.64730,123919
2.65663,100756
2.66598,86701
2.67532,75173
2.68467,70310
2.69400,60204
2.70333,57024
2.71268,58986
2.72202,84415
2.73135,118105
2.74070,144778
2.75003,179776
2.75937,229061
2.76872,347210
2.77805,1058761
2.78738,2248452
2.79673,2339957
2.80607,1655132
2.81540,999230
2.82475,585769
2.83408,364691
2.84342,241522
2.85277,186739
2.86210,163863
2.87145,150596
2.88078,146542
2.89012,145633
2.89947,122033
2.90880,104610
2.91813,91298
2.92748,84195
2.93682,75452
2.94615,68148
2.95550,64542
2.96483,61284
2.97417,60516
2.98352,59929
2.99285,59906
3.00218,64372
3.01153,71926
3.02087,75286
3.03022,68328
3.03955,63658
3.04888,66792
3.05823,86957
3.06757,120829
3.07690,150407
3.08625,143425
3.09558,102437
3.10492,73665
3.11427,58108
3.12360,52949
3.13293,50002
3.14228,50476
3.15162,52314
3.16095,57551
3.17030,58159
3.17963,56449
3.18897,52670
3.19832,52627
3.20765,50116
3.21700,48408
3.22633,50959
3.23567,49104
3.24502,48460
3.25435,49981
3.26368,53754
3.27303,52892
3.28237,47760
3.29170,47208
3.30105,47749
3.31038,47451
3.31972,45687
3.32907,46235
3.33840,43131
3.34773,44210
3.35708,43962
3.36642,45578
3.37575,42409
3.38510,41673
3.39443,41911
3.40378,43558
3.41312,49613
3.42245,56521
3.43180,54857
3.44113,53527
3.45047,52046
3.45982,54133
3.46915,51389
3.47848,50695
3.48783,51523
3.49717,54908
3.50650,55138
3.51585,49161
3.52518,46221
3.53452,44072
3.54387,47552
3.55320,74127
3.56253,148749
3.57188,227573
3.58122,219919
3.59057,155941
3.59990,103310
3.60923,132839
3.61858,148687
3.62792,141810
3.63725,125864
3.64660,103716
3.65593,87970
3.66527,79933
3.67462,75779
3.68395,75117
3.69328,68912
3.70263,63101
3.71197,58437
3.72130,60517
3.73065,63874
3.73998,59219
3.74932,55598
3.75867,49786
3.76800,49206
3.77735,46502
3.78668,44251
3.79602,44355
3.80537,46138
3.81470,51283
3.82403,55517
3.83338,54086
3.84272,50378
3.85205,46103
3.86140,46223
3.87073,48333
3.88007,49758
3.88942,56805
3.89875,67852
3.90808,71490
3.91743,71832
3.92677,67292
3.93612,65465
3.94545,76346
3.95478,130748
3.96413,145301
3.97347,123591
3.98280,87594
3.99215,66357
4.00148,56892
4.01082,51795
4.02017,52906
4.02950,70498
4.03883,153427
4.04818,265055
4.05752,288525
4.06685,205374
4.07620,160281
4.08553,202850
4.09487,252636
4.10422,207902
4.11355,131979
4.12290,86667
4.13223,64885
4.14157,56348
4.15092,52298
4.16025,51392
4.16958,49269
4.17893,48308
4.18827,45217
4.19760,44632
4.20695,46530
4.21628,46121
4.22562,48598
4.23497,49282
4.24430,45890
4.25363,481530
4.26298,1102304
4.27232,908613
4.28165,690494
4.29100,526740
4.30033,395145
4.30968,324338
4.31902,294103
4.32835,276198
4.33770,226983
4.34703,163081
4.35637,118949
4.36572,92904
4.37505,79426
4.38438,75296
4.39373,72187
4.40307,67093
4.41240,62239
4.42175,56920
4.43108,53414
4.44042,51252
4.44977,51354
4.45910,53814
4.46843,63731
4.47778,74781
4.48712,73451
4.49647,63108
4.50580,53295
4.51513,49818
4.52448,47201
4.53382,48351
4.54315,47604
4.55250,47161
4.56183,45154
4.57117,45000
4.58052,45938
4.58985,44201
4.59918,46264
4.60853,46161
4.61787,45480
4.62720,43768
4.63655,45731
4.64588,45957
4.65523,49096
4.66457,53488
4.67390,58461
4.68325,65174
4.69258,87070
4.70192,125216
4.71127,125794
4.72060,94939
4.72993,61858
4.73928,59241
4.74862,64067
4.75795,60241
4.76730,56974
4.77663,50310
4.78597,50153
4.79532,48642
4.80465,47711
4.81398,49076
4.82333,48940
4.83267,46430
4.84202,48937
4.85135,46925
4.86068,45663
4.87003,46571
4.87937,48766
4.88870,47873
4.89805,45714
4.90738,42834
4.91672,42552
4.92607,42720
4.93540,43362
4.94473,45535
4.95408,45879
4.96342,42276
4.97275,42069
4.98210,42150
4.99143,41655
5.00077,48277
5.01012,60572
5.01945,59449
5.02880,61048
5.03813,56080
5.04747,54260
5.05682,51202
5.06615,49689
5.07548,51172
5.08483,53511
5.09417,55451
5.10350,52063
5.11285,49352
5.12218,44353
5.13152,45824
5.14087,45412
5.15020,44540
5.15953,44460
5.16888,43228
5.17822,42917
5.18755,39227
5.19690,42374
5.20623,45312
5.21558,45124
5.22492,44144
5.23425,45456
5.24360,45493
5.25293,46891
5.26227,49823
5.27162,69790
5.28095,139917
5.29028,233035
5.29963,261951
5.30897,187503
5.31830,104354
5.32765,66281
5.33698,53731
5.34632,49972
5.35567,47372
5.36500,48611
5.37433,48753
5.38368,48288
5.39302,50431
5.40237,51609
5.41170,53513
5.42103,54128
5.43038,53085
5.43972,50537
5.44905,46358
5.45840,44515
5.46773,43791
5.47707,43502
5.48642,42972
5.49575,43426
5.50508,48783
5.51443,48021
5.52377,47042
5.53310,49196
5.54245,46943
5.55178,45743
5.56113,47501
5.57047,51830
5.57980,56279
5.58915,59496
5.59848,57780
5.60782,52483
5.61717,48657
5.62650,47659
5.63583,46192
5.64518,44191
5.65452,44988
5.66385,46160
5.67320,45904
5.68253,46873
5.69187,48640
5.70122,46896
5.71055,46598
5.71988,47381
5.72923,45242
5.73857,46246
5.74792,49199
5.75725,54474
5.76658,57455
5.77593,69114
5.78527,74813
5.79460,72972
5.80395,70680
5.81328,66573
5.82262,65543
5.83197,70528
5.84130,70567
5.85063,66353
5.85998,61305
5.86932,56943
5.87865,52359
5.88800,47654
5.89733,45481
5.90667,50319
5.91602,77224
5.92535,111583
5.93470,115142
5.94403,88842
5.95337,75168
5.96272,70847
5.97205,65189
5.98138,57443
5.99073,56286
6.00007,53495
6.00940,50256
6.01875,46618
6.02808,41145
6.03742,35191
6.04677,32381
6.05610,28979
6.06543,31086
6.07478,32773
6.08412,29133
6.09345,28317
6.10280,26691
6.11213,25834
6.12148,29319
6.13082,32898
6.14015,37599
6.14950,36231
6.15883,29929
6.16817,27507
6.17752,25768
6.18685,25459
6.19618,23545
6.20553,23084
6.21487,24004
6.22420,26928
6.23355,29978
6.24288,32880
6.25222,32183
6.26157,28903
6.27090,28554
6.28025,28226
6.28958,29295
6.29892,26910
6.30827,24768
6.31760,23043
6.32693,21400
6.33628,22127
6.34562,21186
6.35495,23631
6.36430,23439
6.37363,26705
6.38297,32111
6.39232,49403
6.40165,103074
6.41098,229552
6.42033,312020
6.42967,235062
6.43900,117836
6.44835,52451
6.45768,33811
6.46703,29539
6.47637,26863
6.48570,27683
6.49505,24577
6.50438,25527
6.51372,25450
6.52307,25784
6.53240,24022
6.54173,22606
6.55108,23884
6.56042,21841
6.56975,21517
6.57910,24169
6.58843,22513
6.59777,23491
6.60712,23088
6.61645,22544
6.62578,23324
6.63513,25732
6.64447,25137
6.65382,25690
6.66315,28875
6.67248,28144
6.68183,26181
6.69117,24585
6.70050,25154
6.70985,28181
6.71918,29674
6.72852,30181
6.73787,27913
6.74720,26319
6.75653,24948
6.76588,23586
6.77522,23230
6.78455,25558
6.79390,29660
6.80323,33499
6.81257,33093
6.82192,27233
6.83125,23292
6.84060,22914
6.84993,23250
6.85927,25397
6.86862,24531
6.87795,25186
6.88728,24747
6.89663,23253
6.90597,24468
6.91530,26295
6.92465,25126
6.93398,24965
6.94332,23869
6.95267,23524
6.96200,25230
6.97133,24877
6.98068,25077
6.99002,25866
6.99935,23685
7.00870,24559
7.01803,24173
7.02738,24277
7.03672,21494
7.04605,21624
7.05540,21009
7.06473,21580
7.07407,21248
7.08342,21329
7.09275,25015
7.10208,27794
7.11143,30294
7.12077,32797
7.13010,30951
7.13945,28867
7.14878,25424
7.15812,25904
7.16747,23544
7.17680,24808
7.18615,25347
7.19548,25430
7.20482,26104
7.21417,26055
7.22350,30600
7.23283,38635
7.24218,53638
7.25152,55889
7.26085,46272
7.27020,37096
7.27953,33609
7.28887,34078
7.29822,32322
7.30755,29519
7.31688,29563
7.32623,29290
7.33557,28846
7.34490,28759
7.35425,29901
7.36358,29875
7.37293,29727
7.38227,33049
7.39160,43350
7.40095,66708
7.41028,91627
7.41962,99791
7.42897,76844
7.43830,58688
7.44763,46364
7.45698,39072
7.46632,38611
7.47565,40137
7.48500,40016
7.49433,43869
7.50367,45645
7.51302,41660
7.52235,38799
7.53168,36452
7.54103,37463
7.55037,37763
7.55972,37626
7.56905,39445
7.57838,39757
7.58773,39348
7.59707,38167
7.60640,39076
7.61575,37697
7.62508,37725
7.63442,36513
7.64377,35251
7.65310,32181
7.66243,27512
7.67178,25271
7.68112,23892
7.69045,23906
7.69980,24613
7.70913,26156
7.71847,38467
7.72782,52271
7.73715,55714
7.74650,47751
7.75583,33912
7.76517,28880
7.77452,25580
7.78385,24261
7.79318,23776
7.80253,24422
7.81187,23110
7.82120,19408
7.83055,21393
7.83988,20380
7.84922,24272
7.85857,34591
7.86790,53449
7.87723,62125
7.88658,54341
7.89592,39271
7.90527,35885
7.91460,42529
7.92393,53552
7.93328,50016
7.94262,34954
7.95195,27307
7.96130,29307
7.97063,34465
7.97997,34360
7.98932,31798
7.99865,30189
8.00798,28575
8.01733,27425
8.02667,32200
8.03600,49669
8.04535,75221
8.05468,77806
8.06402,51623
8.07337,33089
8.08270,24399
8.09205,24807
8.10138,26812
8.11072,29143
8.12007,26513
8.12940,22459
8.13873,21844
8.14808,21186
8.15742,20740
8.16675,21180
8.17610,20522
8.18543,19658
8.19477,19992
8.20412,21041
8.21345,21595
8.22278,21334
8.23213,20218
8.24147,21217
8.25080,24199
8.26015,24879
8.26948,25471
8.27883,22991
8.28817,21273
8.29750,21346
8.30685,20573
8.31618,21600
8.32552,20714
8.33487,20578
8.34420,20087
8.35353,20876
8.36288,21803
8.37222,21268
8.38155,20486
8.39090,21952
8.40023,25511
8.40957,29048
8.41892,29670
8.42825,28612
8.43758,28240
8.44693,26102
8.45627,24955
8.46562,26388
8.47495,24878
8.48428,24437
8.49363,23678
8.50297,23642
8.51230,22492
8.52165,21917
8.53098,21046
8.54032,22939
8.54967,27076
8.55900,28940
8.56833,40209
8.57768,40897
8.58702,36979
8.59635,35252
8.60570,32944
8.61503,30716
8.62437,28002
8.63372,29146
8.64305,39105
8.65240,64013
8.66173,90066
8.67107,88027
8.68042,54722
8.68975,32814
8.69908,27278
8.70843,24972
8.71777,23743
8.72710,22535
8.73645,23499
8.74578,24639
8.75512,27449
8.76447,30161
8.77380,28657
8.78313,36748
8.79248,87628
8.80182,253147
8.81115,453769
8.82050,468246
8.82983,269957
8.83918,96985
8.84852,37888
8.85785,23995
8.86720,23754
8.87653,24859
8.88587,24456
8.89522,23793
8.90455,24433
8.91388,23554
8.92323,24828
8.93257,24006
8.94190,23509
8.95125,22341
8.96058,21917
8.96992,22723
8.97927,22069
8.98860,23317
8.99795,23503
9.00728,25348
9.01662,27135
9.02597,25973
9.03530,22904
9.04463,23884
9.05398,22860
9.06332,24444
9.07265,25313
9.08200,29148
9.09133,29854
9.10067,30976
9.11002,25601
9.11935,26883
9.12868,34586
9.13803,45530
9.14737,49322
9.15670,38598
9.16605,28036
9.17538,23146
9.18473,23462
9.19407,23081
9.20340,25839
9.21275,25791
9.22208,30242
9.23142,43576
9.24077,50557
9.25010,44378
9.25943,34564
9.26878,29072
9.27812,26730
9.28745,25369
9.29680,24220
9.30613,25308
9.31547,27136
9.32482,31906
9.33415,39936
9.34348,39571
9.35283,36718
9.36217,56039
9.37152,106435
9.38085,148474
9.39018,133813
9.39953,90029
9.40887,58783
9.41820,44212
9.42755,39119
9.43688,36002
9.44622,32695
9.45557,28473
9.46490,27494
9.47423,25011
9.48358,25662
9.49292,26359
9.50225,28906
9.51160,27321
9.52093,23903
9.53027,24064
9.53962,26727
9.54895,31943
9.55830,38966
9.56763,46626
9.57697,40255
9.58632,31918
9.59565,29941
9.60498,33129
9.61433,31265
9.62367,29590
9.63300,36178
9.64235,91611
9.65168,257173
9.66102,447658
9.67037,433604
9.67970,233384
9.68903,84688
9.69838,38149
9.70772,30746
9.71707,37163
9.72640,74979
9.73573,182825
9.74508,350703
9.75442,394562
9.76375,271345
9.77310,146628
9.78243,88231
9.79177,64773
9.80112,54861
9.81045,47177
9.81978,46491
9.82913,52703
9.83847,57488
9.84780,61979
9.85715,57274
9.86648,45989
9.87582,41608
9.88517,46721
9.89450,54254
9.90385,64676
9.91318,75426
9.92252,85101
9.93187,83143
9.94120,72178
9.95053,59124
9.95988,55482
9.96922,63511
9.97855,159411
9.98790,523860
9.99723,1138577
10.00657,1347366
10.01592,799532
10.02525,286694
10.03458,109537
10.04393,71131
10.05327,53565
10.06260,48882
10.07195,50442
10.08128,52612
10.09063,46987
10.09997,40502
10.10930,43062
10.11865,78808
10.12798,164522
10.13732,228217
10.14667,296287
10.15600,721142
10.16533,1520172
10.17468,1764820
10.18402,974156
10.19335,278257
10.20270,69500
10.21203,38368
10.22137,35609
10.23072,37823
10.24005,46940
10.24938,53828
10.25873,49506
10.26807,39428
10.27742,38387
10.28675,48160
10.29608,75598
10.30543,100943
10.31477,91938
10.32410,60723
10.33345,39244
10.34278,32548
10.35212,30108
10.36147,30577
10.37080,30809
10.38013,28748
10.38948,29623
10.39882,30309
10.40815,31739
10.41750,35775
10.42683,41805
10.43617,44821
10.44552,42463
10.45485,41425
10.46420,40318
10.47353,41255
10.48287,38725
10.49222,33251
10.50155,32404
10.51088,32649
10.52023,30950
10.52957,33176
10.53890,41699
10.54825,68838
10.55758,99249
10.56692,100794
10.57627,68614
10.58560,44714
10.59493,32945
10.60428,30834
10.61362,31207
10.62297,30987
10.63230,34312
10.64163,37920
10.65098,39959
10.66032,33585
10.66965,34068
10.67900,33008
10.68833,34944
10.69767,36637
10.70702,52736
10.71635,91496
10.72568,119205
10.73503,97927
10.74437,62821
10.75370,63006
10.76305,88882
10.77238,175681
10.78172,783607
10.79107,4117836
10.80040,1.260507E+07
10.80975,2.407386E+07
10.81908,3.024846E+07
10.82842,2.25405E+07
10.83777,7511793
10.84710,1393096
10.85643,332929
10.86578,225157
10.87512,335867
10.88445,427903
10.89380,341590
10.90313,191426
10.91247,104379
10.92182,72371
10.93115,68712
10.94048,78589
10.94983,123775
10.95917,190251
10.96850,182983
10.97785,112305
10.98718,57865
10.99653,41955
11.00587,39472
11.01520,37517
11.02455,38406
11.03388,35596
11.04322,37104
11.05257,34906
11.06190,35264
11.07123,36583
11.08058,34296
11.08992,32713
11.09925,32954
11.10860,34495
11.11793,37764
11.12727,35208
11.13662,32129
11.14595,33583
11.15528,45701
11.16463,82730
11.17397,130925
11.18332,125503
11.19265,80865
11.20198,42902
11.21133,32355
11.22067,29707
11.23000,29101
11.23935,27985
11.24868,30396
11.25802,29971
11.26737,31851
11.27670,31607
11.28603,31331
11.29538,28084
11.30472,27347
11.31405,26191
11.32340,26828
11.33273,30334
11.34207,39779
11.35142,49597
11.36075,52389
11.37010,46529
11.37943,38641
11.38877,37315
11.39812,50497
11.40745,93818
11.41678,149174
11.42613,152004
11.43547,95571
11.44480,47559
11.45415,33698
11.46348,37637
11.47282,43083
11.48217,43034
11.49150,33861
11.50083,26851
11.51018,24631
11.51952,24157
11.52887,24905
11.53820,25448
11.54753,26890
11.55688,28971
11.56622,40922
11.57555,62377
11.58490,76774
11.59423,70949
11.60357,60002
11.61292,48236
11.62225,39371
11.63158,34143
11.64093,37948
11.65027,49574
11.65960,60282
11.66895,61724
11.67828,48003
11.68762,40392
11.69697,34659
11.70630,35440
11.71565,37160
11.72498,34514
11.73432,31610
11.74367,29997
11.75300,29601
11.76233,30921
11.77168,30697
11.78102,32423
11.79035,34918
11.79970,33896
11.80903,31342
11.81837,28644
11.82772,29353
11.83705,32752
11.84638,35003
11.85573,34803
11.86507,33889
11.87440,32094
11.88375,36337
11.89308,43582
11.90243,54028
11.91177,59780
11.92110,50289
11.93045,39436
11.93978,37254
11.94912,41175
11.95847,42147
11.96780,35414
11.97713,31274
11.98648,32392
11.99582,37654
12.00515,58162
12.01450,100102
12.02383,120056
12.03317,97237
12.04252,63938
12.05185,47614
12.06118,38164
12.07053,32806
12.07987,31279
12.08922,30541
12.09855,33388
12.10788,32519
12.11723,35094
12.12657,30680
12.13590,31003
12.14525,30370
12.15458,40991
12.16392,108872
12.17327,310264
12.18260,521555
12.19193,461601
12.20128,238828
12.21062,104179
12.21995,62528
12.22930,57950
12.23863,59685
12.24797,52399
12.25732,43188
12.26665,49712
12.27600,76119
12.28533,101809
12.29467,92154
12.30402,61230
12.31335,41099
12.32268,36581
12.33203,38342
12.34137,37239
12.35070,37645
12.36005,34604
12.36938,33785
12.37872,34422
12.38807,36440
12.39740,36572
12.40673,35914
12.41608,33606
12.42542,33638
12.43477,32309
12.44410,32819
12.45343,31589
12.46278,34902
12.47212,39368
12.48145,40867
12.49080,42566
12.50013,43265
12.50947,43058
12.51882,42408
12.52815,40280
12.53748,40121
12.54683,36568
12.55617,36572
12.56550,43013
12.57485,44650
12.58418,43061
12.59352,37353
12.60287,34560
12.61220,34490
12.62155,35078
12.63088,40135
12.64022,46587
12.64957,51001
12.65890,49994
12.66823,46791
12.67758,42028
12.68692,39189
12.69625,39628
12.70560,42152
12.71493,46566
12.72427,53858
12.73362,56011
12.74295,55229
12.75228,57830
12.76163,56297
12.77097,53311
12.78030,43467
12.78965,36002
12.79898,32936
12.80833,34139
12.81767,34173
12.82700,33694
12.83635,33334
12.84568,33706
12.85502,30767
12.86437,29870
12.87370,29880
12.88303,31505
12.89238,33987
12.90172,35720
12.91105,33854
12.92040,31743
12.92973,30854
12.93907,30944
12.94842,33656
12.95775,35337
12.96708,34944
12.97643,31230
12.98577,29208
12.99512,28841
13.00445,29705
13.01378,29971
13.02313,32076
13.03247,38591
13.04180,39706
13.05115,38742
13.06048,34984
13.06982,37026
13.07917,36766
13.08850,35264
13.09783,32544
13.10718,32459
13.11652,33553
13.12585,34259
13.13520,38337
13.14453,41451
13.15388,43088
13.16322,42141
13.17255,43356
13.18190,43621
13.19123,64423
13.20057,143107
13.20992,329960
13.21925,445486
13.22858,337269
13.23793,169454
13.24727,106311
13.25660,101452
13.26595,77702
13.27528,57914
13.28462,45367
13.29397,40431
13.30330,37578
13.31263,39422
13.32198,43719
13.33132,46321
13.34067,42280
13.35000,38474
13.35933,39133
13.36868,34567
13.37802,33300
13.38735,36308
13.39670,41112
13.40603,47667
13.41537,43239
13.42472,34149
13.43405,36493
13.44338,42288
13.45273,41820
13.46207,39021
13.47140,35757
13.48075,34651
13.49008,35579
13.49942,32037
13.50877,35573
13.51810,54967
13.52745,90948
13.53678,107075
13.54612,82016
13.55547,48059
13.56480,34646
13.57413,30189
13.58348,29210
13.59282,29234
13.60215,29030
13.61150,29212
13.62083,31093
13.63017,30902
13.63952,31071
13.64885,34589
13.65818,37597
13.66753,35444
13.67687,30716
13.68620,28979
13.69555,25556
13.70488,24401
13.71423,24918
13.72357,24477
13.73290,26238
13.74225,27992
13.75158,35709
13.76092,42363
13.77027,42702
13.77960,35147
13.78893,31865
13.79828,32574
13.80762,33375
13.81695,36112
13.82630,33397
13.83563,30784
13.84497,29896
13.85432,29991
13.86365,32421
13.87298,35373
13.88233,39997
13.89167,49893
13.90102,67119
13.91035,110636
13.91968,176598
13.92903,181857
13.93837,117211
13.94770,61786
13.95705,45157
13.96638,43029
13.97572,39306
13.98507,42244
13.99440,44358
14.00373,46759
14.01308,45914
14.02242,37217
14.03175,35526
14.04110,63607
14.05043,353252
14.05977,1717427
14.06912,4467246
14.07845,6084864
14.08780,4160584
14.09713,1333581
14.10647,258202
14.11582,78855
14.12515,61731
14.13448,51607
14.14383,45660
14.15317,41844
14.16250,44949
14.17185,44730
14.18118,46509
14.19052,59323
14.19987,78751
14.20920,72965
14.21853,49478
14.22788,36180
14.23722,30127
14.24657,27679
14.25590,29736
14.26523,32843
14.27458,36804
14.28392,35233
14.29325,33107
14.30260,29839
14.31193,32191
14.32127,40064
14.33062,51359
14.33995,54150
14.34928,48313
14.35863,37820
14.36797,32929
14.37730,30000
14.38665,28431
14.39598,32004
14.40532,29981
14.41467,28462
14.42400,26485
14.43335,27516
14.44268,30111
14.45202,38896
14.46137,55527
14.47070,67667
14.48003,62890
14.48938,46772
14.49872,36770
14.50805,31119
14.51740,28307
14.52673,26963
14.53607,26251
14.54542,27882
14.55475,30075
14.56408,30434
14.57343,31357
14.58277,30059
14.59210,28996
14.60145,31210
14.61078,28989
14.62013,28524
14.62947,30912
14.63880,33566
14.64815,44437
14.65748,62802
14.66682,75181
14.67617,67289
14.68550,54291
14.69483,42991
14.70418,39048
14.71352,32958
14.72285,33078
14.73220,34562
14.74153,35194
14.75087,33808
14.76022,35130
14.76955,32922
14.77888,33458
14.78823,33840
14.79757,34047
14.80692,33940
14.81625,31919
14.82558,32397
14.83493,30302
14.84427,29979
14.85360,29772
14.86295,34555
14.87228,44482
14.88162,48595
14.89097,42136
14.90030,34155
14.90963,32899
14.91898,34824
14.92832,34418
14.93765,31796
14.94700,29709
14.95633,29907
14.96568,32835
14.97502,38776
14.98435,38817
14.99370,36044
15.00303,36322
15.01237,41367
15.02172,41898
15.03105,38958
15.04038,36493
15.04973,39399
15.05907,43581
15.06840,41276
15.07775,40419
15.08708,35361
15.09642,31912
15.10577,31373
15.11510,30008
15.12443,36623
15.13378,46449
15.14312,48719
15.15247,38855
15.16180,31502
15.17113,31299
15.18048,29010
15.18982,34167
15.19915,39660
15.20850,55707
15.21783,74476
15.22717,81001
15.23652,68670
15.24585,50009
15.25518,36067
15.26453,30645
15.27387,30684
15.28320,32241
15.29255,31284
15.30188,29550
15.31122,29361
15.32057,30667
15.32990,34679
15.33925,40133
15.34858,38784
15.35792,36301
15.36727,40269
15.37660,42704
15.38593,44430
15.39528,35511
15.40462,29683
15.41395,30202
15.42330,32437
15.43263,36268
15.44197,33299
15.45132,32191
15.46065,30406
15.46998,30509
15.47933,32775
15.48867,31284
15.49800,32965
15.50735,42230
15.51668,60478
15.52603,70382
15.53537,63970
15.54470,48567
15.55405,35116
15.56338,32045
15.57272,31846
15.58207,29251
15.59140,29887
15.60073,29886
15.61008,30272
15.61942,30702
15.62875,35123
15.63810,38621
15.64743,41519
15.65677,44742
15.66612,53529
15.67545,78180
15.68478,138095
15.69413,186734
15.70347,180865
15.71282,133724
15.72215,81564
15.73148,53438
15.74083,44981
15.75017,48013
15.75950,53992
15.76885,54985
15.77818,50652
15.78752,44935
15.79687,40933
15.80620,42669
15.81553,47728
15.82488,66175
15.83422,104420
15.84355,155059
15.85290,162708
15.86223,108309
15.87158,64558
15.88092,53311
15.89025,56508
15.89960,63038
15.90893,64504
15.91827,56255
15.92762,46993
15.93695,38633
15.94628,36320
15.95563,35791
15.96497,35498
15.97430,41643
15.98365,51461
15.99298,64516
16.00232,65649
16.01167,56175
16.02100,44409
16.03033,38107
16.03968,37914
16.04902,38263
16.05837,38216
16.06770,41411
16.07703,40824
16.08638,37897
16.09572,36704
16.10505,37607
16.11440,40244
16.12373,44896
16.13307,45177
16.14242,42046
16.15175,39216
16.16108,39934
16.17043,38183
16.17977,35933
16.18910,36358
16.19845,38309
16.20778,45144
16.21712,52791
16.22647,59587
16.23580,62329
16.24515,58486
16.25448,55916
16.26382,48913
16.27317,51245
16.28250,85867
16.29183,180962
16.30118,304300
16.31052,301356
16.31985,188463
16.32920,93678
16.33853,52586
16.34787,38863
16.35722,35246
16.36655,31772
16.37588,30070
16.38523,31476
16.39457,34301
16.40390,32383
16.41325,33794
16.42258,36990
16.43193,35760
16.44127,37360
16.45060,39363
16.45995,48556
16.46928,47205
16.47862,44982
16.48797,43811
16.49730,42789
16.50663,41901
16.51598,39847
16.52532,41570
16.53465,40790
16.54400,38009
16.55333,36388
16.56267,34154
16.57202,33678
16.58135,35830
16.59070,38208
16.60003,38274
16.60937,37114
16.61872,41400
16.62805,49930
16.63738,52565
16.64673,47920
16.65607,43714
16.66540,39240
16.67475,35902
16.68408,39698
16.69342,46251
16.70277,53056
16.71210,54509
16.72143,43380
16.73078,38102
16.74012,50581
16.74945,88537
16.75880,115367
16.76813,97868
16.77748,64859
16.78682,46852
16.79615,39690
16.80550,39329
16.81483,37694
16.82417,43159
16.83352,47412
16.84285,48143
16.85218,44365
16.86153,40072
16.87087,37969
16.88020,34552
16.88955,32457
16.89888,37464
16.90822,44702
16.91757,53202
16.92690,56463
16.93623,51141
16.94558,45930
16.95492,51901
16.96427,53478
16.97360,53190
16.98293,45873
16.99228,40508
17.00162,37206
17.01095,33603
17.02030,39937
17.02963,63899
17.03897,86609
17.04832,81172
17.05765,56989
17.06698,44816
17.07633,43057
17.08567,38067
17.09500,38179
17.10435,37285
17.11368,33920
17.12302,33884
17.13237,36501
17.14170,40055
17.15105,40113
17.16038,34138
17.16972,33941
17.17907,32994
17.18840,33270
17.19773,34548
17.20708,33503
17.21642,31755
17.22575,30524
17.23510,29515
17.24443,30809
17.25377,32641
17.26312,36123
17.27245,38137
17.28178,44019
17.29113,45671
17.30047,44064
17.30980,42989
17.31915,42999
17.32848,43982
17.33783,41345
17.34717,38145
17.35650,35509
17.36585,36795
17.37518,50690
17.38452,90959
17.39387,128648
17.40320,108524
17.41253,85035
17.42188,67061
17.43122,55237
17.44055,48235
17.44990,44234
17.45923,43592
17.46857,41609
17.47792,40706
17.48725,59746
17.49658,227203
17.50593,889240
17.51527,1871001
17.52462,2019200
17.53395,1081567
17.54328,317384
17.55263,88637
17.56197,50585
17.57130,46988
17.58065,48352
17.58998,51780
17.59932,46525
17.60867,44041
17.61800,38293
17.62733,35479
17.63668,36557
17.64602,38058
17.65535,40659
17.66470,46482
17.67403,51019
17.68338,56334
17.69272,60935
17.70205,60201
17.71140,55397
17.72073,51003
17.73007,46939
17.73942,40675
17.74875,43253
17.75808,48083
17.76743,51922
17.77677,51922
17.78610,49600
17.79545,45348
17.80478,43955
17.81412,41215
17.82347,37847
17.83280,37903
17.84213,38686
17.85148,43362
17.86082,55831
17.87017,63316
17.87950,60545
17.88883,53390
17.89818,50882
17.90752,43963
17.91685,37814
17.92620,36213
17.93553,37823
17.94487,36948
17.95422,37020
17.96355,36423
17.97288,38742
17.98223,35661
17.99157,34496
18.00090,32758
18.01025,35765
18.01958,34360
18.02892,35206
18.03827,39022
18.04760,50935
18.05695,70406
18.06628,77754
18.07562,66272
18.08497,46582
18.09430,35838
18.10363,35116
18.11298,39176
18.12232,39538
18.13165,41084
18.14100,41373
18.15033,43649
18.15967,41905
18.16902,40977
18.17835,44496
18.18768,43890
18.19703,40096
18.20637,37550
18.21570,36599
18.22505,38652
18.23438,39498
18.24373,38370
18.25307,39058
18.26240,37240
18.27175,38079
18.28108,40960
18.29042,50185
18.29977,50690
18.30910,49143
18.31843,50447
18.32778,46973
18.33712,47094
18.34645,54766
18.35580,59413
18.36513,63148
18.37447,61066
18.38382,58144
18.39315,56516
18.40250,53880
18.41183,55860
18.42117,48694
18.43052,44597
18.43985,48559
18.44918,52718
18.45853,54236
18.46787,50208
18.47720,45339
18.48655,43794
18.49588,55886
18.50522,70401
18.51457,84161
18.52390,80152
18.53323,64952
18.54258,51574
18.55192,53197
18.56125,55779
18.57060,53595
18.57993,47120
18.58928,44395
18.59862,46561
18.60795,51277
18.61730,59451
18.62663,54664
18.63597,51421
18.64532,48718
18.65465,45976
18.66398,42227
18.67333,43555
18.68267,43024
18.69200,46385
18.70135,46865
18.71068,50481
18.72002,55162
18.72937,51991
18.73870,50650
18.74803,48757
18.75738,46074
18.76672,39434
18.77607,37830
18.78540,33655
18.79473,34119
18.80408,35392
18.81342,37536
18.82275,38405
18.83210,37744
18.84143,35165
18.85077,37171
18.86012,36721
18.86945,36894
18.87878,37051
18.88813,35947
18.89747,43083
18.90680,51570
18.91615,60260
18.92548,62604
18.93482,57926
18.94417,55615
18.95350,59890
18.96285,61023
18.97218,59270
18.98152,56539
18.99087,48473
19.00020,44933
19.00953,41146
19.01888,42308
19.02822,42287
19.03755,47661
19.04690,62586
19.05623,86035
19.06557,104141
19.07492,117096
19.08425,147907
19.09358,160308
19.10293,124313
19.11227,83399
19.12160,57846
19.13095,45394
19.14028,40893
19.14963,35642
19.15897,34721
19.16830,33916
19.17765,34287
19.18698,38429
19.19632,46022
19.20567,51991
19.21500,55199
19.22433,53845
19.23368,51087
19.24302,50133
19.25235,46818
19.26170,45301
19.27103,46331
19.28037,47252
19.28972,51456
19.29905,54119
19.30840,63868
19.31773,79640
19.32707,75272
19.33642,60471
19.34575,49230
19.35508,43611
19.36443,36984
19.37377,36202
19.38310,42305
19.39245,67047
19.40178,109829
19.41112,143485
19.42047,118708
19.42980,73978
19.43913,43418
19.44848,37388
19.45782,33899
19.46715,34470
19.47650,38345
19.48583,40525
19.49518,42360
19.50452,44882
19.51385,42664
19.52320,38337
19.53253,37937
19.54187,37076
19.55122,38127
19.56055,33197
19.56988,37609
19.57923,39839
19.58857,44631
19.59790,48467
19.60725,48292
19.61658,47973
19.62592,46299
19.63527,49808
19.64460,53472
19.65393,51510
19.66328,42299
19.67262,38722
19.68197,37557
19.69130,38463
19.70063,42127
19.70998,44007
19.71932,49412
19.72865,62666
19.73800,73408
19.74733,69328
19.75667,54927
19.76602,46997
19.77535,44866
19.78468,47605
19.79403,46169
19.80337,42100
19.81270,40067
19.82205,37684
19.83138,38675
19.84072,35775
19.85007,37766
19.85940,39002
19.86875,48065
19.87808,59618
19.88742,69371
19.89677,59295
19.90610,44813
19.91543,38280
19.92478,37170
19.93412,39198
19.94345,37229
19.95280,37837
19.96213,38844
19.97147,37787
19.98082,38248
19.99015,35171
19.99948,32999
20.00883,33637
20.01817,34832
20.02752,39471
20.03685,41531
20.04618,42103
20.05553,42065
20.06487,38065
20.07420,37880
20.08355,36758
20.09288,37291
20.10222,38504
20.11157,34607
20.12090,30860
20.13023,33343
20.13958,33923
20.14892,40145
20.15825,46467
20.16760,47269
20.17693,43072
20.18627,38896
20.19562,36540
20.20495,37431
20.21430,39878
20.22363,42027
20.23297,41898
20.24232,50147
20.25165,67394
20.26098,71912
20.27033,58037
20.27967,42673
20.28900,36895
20.29835,37141
20.30768,36965
20.31702,33663
20.32637,30718
20.33570,29661
20.34503,29983
20.35438,32142
20.36372,34615
20.37305,35769
20.38240,33237
20.39173,31511
20.40108,29673
20.41042,31938
20.41975,31173
20.42910,32594
20.43843,32804
20.44777,33516
20.45712,34127
20.46645,38618
20.47578,39880
20.48513,39220
20.49447,38744
20.50380,35886
20.51315,31912
20.52248,33318
20.53182,34194
20.54117,36523
20.55050,36542
20.55983,45963
20.56918,77348
20.57852,158853
20.58787,209218
20.59720,155241
20.60653,84634
20.61588,48753
20.62522,39956
20.63455,37574
20.64390,39322
20.65323,40480
20.66257,38420
20.67192,38479
20.68125,36600
20.69058,37576
20.69993,37860
20.70927,37513
20.71860,39956
20.72795,37123
20.73728,37406
20.74662,36364
20.75597,37921
20.76530,36230
20.77465,34972
20.78398,36173
20.79332,37367
20.80267,42989
20.81200,43469
20.82133,41390
20.83068,38218
20.84002,36832
20.84935,35199
20.85870,34474
20.86803,33560
20.87737,33171
20.88672,33163
20.89605,37184
20.90538,36410
20.91473,38641
20.92407,34740
20.93340,32755
20.94275,31083
20.95208,31414
20.96143,33631
20.97077,31340
20.98010,29283
20.98945,31092
20.99878,30566
21.00812,31221
21.01747,32671
21.02680,33060
21.03613,33126
21.04548,32338
21.05482,33221
21.06415,34078
21.07350,34635
21.08283,33509
21.09217,33242
21.10152,34476
21.11085,37111
21.12020,37143
21.12953,37738
21.13887,35894
21.14822,37154
21.15755,33638
21.16688,37687
21.17623,43590
21.18557,55149
21.19490,63242
21.20425,54851
21.21358,44064
21.22292,38442
21.23227,36906
21.24160,35518
21.25093,35352
21.26028,36416
21.26962,37427
21.27895,44313
21.28830,46443
21.29763,47917
21.30698,47133
21.31632,37314
21.32565,35012
21.33500,33742
21.34433,32089
21.35367,34541
21.36302,35089
21.37235,34328
21.38168,34578
21.39103,33155
21.40037,34040
21.40970,37547
21.41905,38579
21.42838,39039
21.43772,39833
21.44707,44877
21.45640,46562
21.46573,44303
21.47508,41286
21.48442,41389
21.49377,39684
21.50310,39681
21.51243,39239
21.52178,39051
21.53112,36881
21.54045,36261
21.54980,35979
21.55913,41928
21.56847,54004
21.57782,65656
21.58715,69802
21.59648,56657
21.60583,46123
21.61517,41045
21.62450,38754
21.63385,40003
21.64318,40711
21.65252,38276
21.66187,35949
21.67120,39290
21.68055,43820
21.68988,43179
21.69922,41931
21.70857,40885
21.71790,40581
21.72723,43317
21.73658,41693
21.74592,40240
21.75525,38874
21.76460,36348
21.77393,31485
21.78327,32925
21.79262,33056
21.80195,35067
21.81128,38292
21.82063,41325
21.82997,42276
21.83932,41618
21.84865,37907
21.85798,36487
21.86733,37502
21.87667,37576
21.88600,42884
21.89535,46129
21.90468,45578
21.91402,44927
21.92337,45330
21.93270,41137
21.94203,38651
21.95138,37340
21.96072,38247
21.97005,39558
21.97940,47251
21.98873,54415
21.99807,56839
22.00742,54137
22.01675,47353
22.02610,41803
22.03543,40399
22.04477,42023
22.05412,43107
22.06345,39669
22.07278,39908
22.08213,39418
22.09147,38239
22.10080,38780
22.11015,40614
22.11948,40203
22.12882,38313
22.13817,37478
22.14750,38211
22.15683,42314
22.16618,48448
22.17552,49120
22.18485,48862
22.19420,46305
22.20353,40303
22.21288,38482
22.22222,40349
22.23155,44918
22.24090,43129
22.25023,40710
22.25957,39809
22.26892,39361
22.27825,41792
22.28758,46629
22.29693,47775
22.30627,46832
22.31560,41846
22.32495,37467
22.33428,35327
22.34362,36277
22.35297,41357
22.36230,41548
22.37163,44230
22.38098,43383
22.39032,41817
22.39967,39204
22.40900,35687
22.41833,35388
22.42768,36579
22.43702,38759
22.44635,41360
22.45570,39748
22.46503,39444
22.47437,38410
22.48372,38784
22.49305,39020
22.50238,41807
22.51173,48420
22.52107,55869
22.53040,51930
22.53975,44510
22.54908,39911
22.55842,38925
22.56777,37260
22.57710,42824
22.58645,45677
22.59578,48787
22.60512,47575
22.61447,48008
22.62380,45234
22.63313,41961
22.64248,43001
22.65182,39828
22.66115,36418
22.67050,37398
22.67983,38195
22.68917,40257
22.69852,44152
22.70785,44591
22.71718,40578
22.72653,39582
22.73587,41514
22.74522,45745
22.75455,50218
22.76388,49727
22.77323,48154
22.78257,43516
22.79190,41533
22.80125,39220
22.81058,38476
22.81992,39441
22.82927,38994
22.83860,40418
22.84793,41163
22.85728,38730
22.86662,38072
22.87595,39570
22.88530,38564
22.89463,38591
22.90397,38906
22.91332,38025
22.92265,42179
22.93200,39257
22.94133,39293
22.95067,37812
22.96002,39125
22.96935,40306
22.97868,39205
22.98803,37289
22.99737,35261
23.00670,35520
23.01605,34227
23.02538,34485
23.03472,33514
23.04407,35825
23.05340,34593
23.06273,34842
23.07208,35635
23.08142,34146
23.09075,33516
23.10010,32625
23.10943,34941
23.11878,33052
23.12812,31882
23.13745,33760
23.14680,34155
23.15613,34575
23.16547,34970
23.17482,34022
23.18415,33173
23.19348,33026
23.20283,32923
23.21217,34279
23.22150,30667
23.23085,32704
23.24018,34674
23.24952,37514
23.25887,40732
23.26820,40691
23.27753,37726
23.28688,37197
23.29622,35905
23.30557,35639
23.31490,34852
23.32423,39042
23.33358,45940
23.34292,52296
23.35225,53427
23.36160,45884
23.37093,39888
23.38027,35505
23.38962,36874
23.39895,33932
23.40828,34966
23.41763,35877
23.42697,35784
23.43630,36544
23.44565,34649
23.45498,36860
23.46433,35606
23.47367,36854
23.48300,35661
23.49235,36454
23.50168,34007
23.51102,36014
23.52037,38563
23.52970,43158
23.53903,46532
23.54838,44700
23.55772,40225
23.56705,37140
23.57640,36141
23.58573,35176
23.59507,35876
23.60442,35803
23.61375,33487
23.62308,32575
23.63243,33169
23.64177,33179
23.65112,31712
23.66045,32854
23.66978,38209
23.67913,42909
23.68847,47164
23.69780,47960
23.70715,42683
23.71648,40987
23.72582,40863
23.73517,43578
23.74450,44876
23.75383,42962
23.76318,38005
23.77252,35880
23.78185,34469
23.79120,36507
23.80053,34196
23.80987,33860
23.81922,35823
23.82855,33611
23.83790,33380
23.84723,35084
23.85657,33667
23.86592,33426
23.87525,36285
23.88458,33251
23.89393,33849
23.90327,32127
23.91260,33942
23.92195,33440
23.93128,33803
23.94062,33858
23.94997,34208
23.95930,32883
23.96863,31837
23.97798,34621
23.98732,32572
23.99665,35296
24.00600,32647
24.01533,32695
24.02468,33334
24.03402,31807
24.04335,33547
24.05270,32669
24.06203,33561
24.07137,33183
24.08072,34227
24.09005,34270
24.09938,33713
24.10873,35115
24.11807,34288
24.12740,33332
24.13675,36546
24.14608,33757
24.15542,35796
24.16477,35470
24.17410,33991
24.18343,33236
24.19278,34252
24.20212,33772
24.21147,34436
24.22080,34416
24.23013,34704
24.23948,34182
24.24882,33528
24.25815,32748
24.26750,33007
24.27683,33085
24.28617,34188
24.29552,31229
24.30485,33840
24.31418,33397
24.32353,35687
24.33287,34825
24.34220,34755
24.35155,35902
24.36088,34481
24.37022,33584
24.37957,35025
24.38890,33348
24.39825,34702
24.40758,35970
24.41692,35966
24.42627,32852
24.43560,35121
24.44493,34666
24.45428,33419
24.46362,32891
24.47295,34183
24.48230,35129
24.49163,34917
24.50097,34409
24.51032,33889
24.51965,33662
24.52898,33228
24.53833,34779
24.54767,36864
24.55702,35788
24.56635,37667
24.57568,37751
24.58503,34825
24.59437,34801
24.60370,34192
24.61305,38770
24.62238,38678
24.63172,39260
24.64107,38344
24.65040,36855
24.65973,35774
24.66908,36254
24.67842,36535
24.68775,34883
24.69710,34907
24.70643,36855
24.71577,37072
24.72512,36146
24.73445,36916
24.74380,35859
24.75313,35835
24.76247,34557
24.77182,36328
24.78115,37190
24.79048,35688
24.79983,33848
24.80917,36289
24.81850,37764
24.82785,37045
24.83718,36117
24.84652,35148
24.85587,35576
24.86520,36426
24.87453,36448
24.88388,37596
24.89322,38134
24.90255,37243
24.91190,36402
24.92123,36938
24.93058,35725
24.93992,38910
24.94925,35458
24.95860,37346
24.96793,39161
24.97727,38802
24.98662,38399
24.99595,36211
25.00528,37129
25.01463,37484
25.02397,37752
25.03330,36374
25.04265,35287
25.05198,36555
25.06132,36767
25.07067,35459
25.08000,36207
25.08933,36651
25.09868,37167
25.10802,38281
25.11737,37840
25.12670,39353
25.13603,39514
25.14538,41853
25.15472,41277
25.16405,42695
25.17340,40183
25.18273,40326
25.19207,39977
25.20142,37262
25.21075,37010
25.22008,39862
25.22943,36726
25.23877,37748
25.24810,37145
25.25745,37339
25.26678,38907
25.27613,38765
25.28547,38421
25.29480,37332
25.30415,39457
25.31348,47078
25.32282,72209
25.33217,128897
25.34150,199358
25.35083,228272
25.36018,169120
25.36952,99046
25.37885,71832
25.38820,61199
25.39753,56498
25.40687,53932
25.41622,50684
25.42555,49197
25.43488,49047
25.44423,49278
25.45357,46053
25.46292,48498
25.47225,47134
25.48158,49894
25.49093,49550
25.50027,48695
25.50960,49204
25.51895,48485
25.52828,47297
25.53762,46327
25.54697,45818
25.55630,45408
25.56563,45946
25.57498,45415
25.58432,43208
25.59365,42213
25.60300,43194
25.61233,42258
25.62167,40953
25.63102,42322
25.64035,44104
25.64970,43511
25.65903,47409
25.66837,46796
25.67772,45182
25.68705,45171
25.69638,42181
25.70573,42272
25.71507,42180
25.72440,43439
25.73375,42192
25.74308,45711
25.75242,48476
25.76177,45747
25.77110,46270
25.78043,44564
25.78978,44323
25.79912,46107
25.80845,48853
25.81780,49872
25.82713,47482
25.83648,49542
25.84582,49685
25.85515,47135
25.86450,46479
25.87383,44520
25.88317,41763
25.89252,44104
25.90185,41536
25.91118,41153
25.92053,40067
25.92987,41779
25.93920,41604
25.94855,42381
25.95788,43537
25.96722,44300
25.97657,42415
25.98590,44118
25.99523,41296
26.00458,42264
26.01392,40494
26.02327,40942
26.03260,42344
26.04193,43428
26.05128,41972
26.06062,40954
26.06995,41306
26.07930,42701
26.08863,40303
26.09797,41688
26.10732,43485
26.11665,40841
26.12598,47261
26.13533,57649
26.14467,68059
26.15400,72983
26.16335,68580
26.17268,60064
26.18203,54292
26.19137,51106
26.20070,47605
26.21005,45479
26.21938,45119
26.22872,44521
26.23807,44301
26.24740,43634
26.25673,43356
26.26608,42926
26.27542,42059
26.28475,42150
26.29410,42514
26.30343,42680
26.31277,42921
26.32212,42127
26.33145,43089
26.34078,42578
26.35013,42076
26.35947,41630
26.36882,42248
26.37815,41955
26.38748,41281
26.39683,41166
26.40617,41543
26.41550,39409
26.42485,40230
26.43418,40468
26.44352,42197
26.45287,43548
26.46220,44136
26.47153,42664
26.48088,42420
26.49022,40047
26.49955,43339
26.50890,45545
26.51823,42978
26.52757,43302
26.53692,44027
26.54625,45196
26.55560,43523
26.56493,44823
26.57427,43639
26.58362,42661
26.59295,43234
26.60228,43875
26.61163,43923
26.62097,43091
26.63030,41309
26.63965,41277
26.64898,42886
26.65832,41879
26.66767,41196
26.67700,43377
26.68633,42050
26.69568,40203
26.70502,42463
26.71435,40751
26.72370,41187
26.73303,41622
26.74238,42531
26.75172,42517
26.76105,45301
26.77040,44375
26.77973,43286
26.78907,44008
26.79842,44306
26.80775,44127
26.81708,41300
26.82643,43524
26.83577,45822
26.84510,44251
26.85445,46052
26.86378,44760
26.87312,44048
26.88247,44235
26.89180,44330
26.90115,43571
26.91048,43598
26.91982,43673
26.92917,43418
26.93850,42934
26.94783,43489
26.95718,43225
26.96652,43779
26.97585,43842
26.98520,42397
26.99453,44059
27.00387,46608
27.01322,48733
27.02255,50053
27.03188,48105
27.04123,46150
27.05057,44329
27.05990,45716
27.06925,46623
27.07858,44570
27.08793,44163
27.09727,45096
27.10660,43444
27.11595,43046
27.12528,44920
27.13462,46964
27.14397,45424
27.15330,46383
27.16263,43219
27.17198,45311
27.18132,44118
27.19065,44094
27.20000,44124
27.20933,43213
27.21867,43651
27.22802,43462
27.23735,45785
27.24668,46385
27.25603,48174
27.26537,49482
27.27472,48138
27.28405,48357
27.29338,45666
27.30273,44712
27.31207,44178
27.32140,46201
27.33075,44621
27.34008,45835
27.34942,42729
27.35877,44143
27.36810,43267
27.37743,45120
27.38678,44510
27.39612,45207
27.40545,46001
27.41480,47224
27.42413,46502
27.43347,50347
27.44282,51478
27.45215,48479
27.46150,49913
27.47083,47278
27.48017,48186
27.48952,49070
27.49885,48048
27.50818,48838
27.51753,48721
27.52687,51940
27.53620,49669
27.54555,47744
27.55488,47257
27.56422,46467
27.57357,48682
27.58290,46332
27.59223,47050
27.60158,47143
27.61092,44160
27.62025,44873
27.62960,46621
27.63893,47283
27.64828,47501
27.65762,51149
27.66695,63547
27.67630,90994
27.68563,115186
27.69497,107869
27.70432,87032
27.71365,68694
27.72298,58431
27.73233,58405
27.74167,55894
27.75100,53558
27.76035,51970
27.76968,50939
27.77902,51127
27.78837,51169
27.79770,50786
27.80703,51056
27.81638,50350
27.82572,48917
27.83507,50568
27.84440,52220
27.85373,51136
27.86308,47427
27.87242,51906
27.88175,51026
27.89110,49989
27.90043,50591
27.90977,51937
27.91912,48354
27.92845,51209
27.93778,51043
27.94713,53957
27.95647,52323
27.96580,50677
27.97515,52597
27.98448,50215
27.99383,51983
28.00317,51813
28.01250,50982
28.02185,50146
28.03118,51055
28.04052,49024
28.04987,47966
28.05920,48261
28.06853,51105
28.07788,50069
28.08722,49953
28.09655,49606
28.10590,51378
28.11523,56570
28.12457,65941
28.13392,72038
28.14325,69080
28.15258,64540
28.16193,59483
28.17127,58316
28.18062,54279
28.18995,54002
28.19928,53612
28.20863,52753
28.21797,53604
28.22730,52121
28.23665,53129
28.24598,53559
28.25532,51166
28.26467,52883
28.27400,51136
28.28333,51778
28.29268,52429
28.30202,51312
28.31135,52359
28.32070,52437
28.33003,51197
28.33937,51954
28.34872,52272
28.35805,52439
28.36740,53296
28.37673,52843
28.38607,53159
28.39542,50942
28.40475,50523
28.41408,51573
28.42343,51645
28.43277,50687
28.44210,54228
28.45145,52499
28.46078,51869
28.47012,51864
28.47947,54427
28.48880,52704
28.49813,52785
28.50748,52776
28.51682,54654
28.52615,52054
28.53550,53383
28.54483,54845
28.55418,52384
28.56352,55129
28.57285,53118
28.58220,52684
28.59153,57725
28.60087,56250
28.61022,56590
28.61955,57619
28.62888,57491
28.63823,55210
28.64757,54564
28.65690,59234
28.66625,65559
28.67558,87580
28.68492,111242
28.69427,118809
28.70360,104416
28.71295,85952
28.72228,71064
28.73162,66014
28.74097,63554
28.75030,61428
28.75963,62423
28.76898,62529
28.77832,60543
28.78765,59911
28.79700,58774
28.80633,58167
28.81567,58672
28.82502,60863
28.83435,59080
28.84368,59466
28.85303,59181
28.86237,57877
28.87170,57814
28.88105,57190
28.89038,57968
28.89973,58008
28.90907,59690
28.91840,58492
28.92775,57874
28.93708,59373
28.94642,61230
28.95577,60953
28.96510,59913
28.97443,61305
28.98378,63417
28.99312,60527
29.00245,62466
29.01180,61857
29.02113,59967
29.03047,64171
29.03982,62357
29.04915,63679
29.05848,63078
29.06783,62077
29.07717,63191
29.08652,60993
29.09585,63206
29.10518,61140
29.11453,62917
29.12387,63079
29.13320,62972
29.14255,63236
29.15188,62469
29.16122,61018
29.17057,63068
29.17990,64028
29.18923,69510
29.19858,78837
29.20792,97801
29.21725,103844
29.22660,98441
29.23593,86465
29.24527,77043
29.25462,70306
29.26395,69168
29.27330,67897
29.28263,67430
29.29197,65974
29.30132,66596
29.31065,66488
29.31998,64906
29.32933,62529
29.33867,63574
29.34800,62675
29.35735,63583
29.36668,62689
29.37602,62788
29.38537,63081
29.39470,63184
29.40403,64287
29.41338,66373
29.42272,62238
29.43205,60744
29.44140,63162
29.45073,64432
29.46008,67687
29.46942,67709
29.47875,73950
29.48810,70160
29.49743,68507
29.50677,67703
29.51612,66795
29.52545,64914
29.53478,63828
29.54413,66399
29.55347,64086
29.56280,65088
29.57215,63276
29.58148,63067
29.59082,63512
29.60017,65058
29.60950,62917
29.61885,62921
29.62818,61567
29.63752,64365
29.64687,63156
29.65620,62244
29.66553,63171
29.67488,63523
29.68422,66638
29.69355,61836
29.70290,63068
29.71223,64328
29.72157,60879
29.73092,63807
29.74025,63875
29.74958,65137
29.75893,61507
29.76827,62787
29.77760,61306
29.78695,63762
29.79628,63769
29.80563,61159
29.81497,62468
29.82430,61472
29.83365,61987
29.84298,63136
29.85232,62533
29.86167,61349
29.87100,62709
29.88033,62312
29.88968,62969
29.89902,63583
29.90835,62003
29.91770,63535
29.92703,62802
29.93637,63759
29.94572,64620
29.95505,65510
29.96438,64550
29.97373,63943
29.98307,67457
29.99242,66210
30.00175,71971
30.01108,69132
30.02043,67038
30.02977,65872
30.03910,66166
30.04845,64314
30.05778,63444
30.06712,64808
30.07647,65057
30.08580,66053
30.09513,63917
30.10448,67325
30.11382,65881
30.12315,64085
30.13250,65081
30.14183,66623
30.15117,67217
30.16052,66230
30.16985,64718
30.17920,64535
30.18853,67673
30.19787,64658
30.20722,65467
30.21655,65479
30.22588,63464
30.23523,64859
30.24457,64650
30.25390,65929
30.26325,63469
30.27258,63062
30.28192,64534
30.29127,66221
30.30060,65999
30.30993,64131
30.31928,62385
30.32862,64292
30.33797,64111
30.34730,63774
30.35663,63050
30.36598,64643
30.37532,65399
30.38465,71785
30.39400,86125
30.40333,102157
30.41267,115198
30.42202,118866
30.43135,108247
30.44068,95527
30.45003,85075
30.45937,79555
30.46870,80023
30.47805,73199
30.48738,73724
30.49672,70036
30.50607,69432
30.51540,69774
30.52475,69754
30.53408,69620
30.54342,68267
30.55277,66228
30.56210,71443
30.57143,71649
30.58078,72210
30.59012,73324
30.59945,73086
30.60880,77376
30.61813,78611
30.62747,79307
30.63682,81312
30.64615,81741
30.65548,85457
30.66483,82756
30.67417,81471
30.68350,83929
30.69285,79307
30.70218,78603
30.71153,76958
30.72087,76060
30.73020,75286
30.73955,72029
30.74888,71728
30.75822,71671
30.76757,72352
30.77690,74154
30.78623,69858
30.79558,71805
30.80492,72576
30.81425,72989
30.82360,72483
30.83293,73817
30.84227,71500
30.85162,74069
30.86095,75438
30.87028,74875
30.87963,77222
30.88897,78026
30.89832,76233
30.90765,79648
30.91698,76903
30.92633,76778
30.93567,79018
30.94500,78312
30.95435,80475
30.96368,79223
30.97302,82253
30.98237,80033
30.99170,77930
31.00103,76539
31.01038,75058
31.01972,79376
31.02905,76890
31.03840,75275
31.04773,76348
31.05707,75242
31.06642,77802
31.07575,76941
31.08510,80211
31.09443,78352
31.10377,75815
31.11312,79053
31.12245,77324
31.13178,77886
31.14113,77121
31.15047,79802
31.15980,79131
31.16915,79503
31.17848,80177
31.18782,82012
31.19717,78598
31.20650,80326
31.21583,77810
31.22518,76903
31.23452,77983
31.24385,72661
31.25320,77247
31.26253,80216
31.27188,77974
31.28122,78547
31.29055,77104
31.29990,78532
31.30923,76688
31.31857,77559
31.32792,78920
31.33725,78161
31.34658,78537
31.35593,78324
31.36527,74804
