D:\数据\20211123\ZS1E-M-000018.D Tue Nov 23 20:36:38 2021
Start of data points
0.09765,42504
0.10700,39745
0.11633,38978
0.12568,40739
0.13502,41156
0.14435,42203
0.15370,42550
0.16303,41084
0.17237,41568
0.18172,42268
0.19105,38121
0.20038,41403
0.20973,39564
0.21907,38592
0.22840,39412
0.23775,39043
0.24708,39794
0.25642,38577
0.26577,38423
0.27510,38003
0.28443,39344
0.29378,40373
0.30312,38440
0.31247,39351
0.32180,38989
0.33113,39690
0.34048,36726
0.34982,38708
0.35915,36804
0.36850,37355
0.37783,37909
0.38717,37247
0.39652,36790
0.40585,31982
0.41518,28791
0.42453,26432
0.43387,19394
0.44320,13479
0.45255,14049
0.46188,14329
0.47122,14175
0.48057,13425
0.48990,12587
0.49925,13032
0.50858,13181
0.51792,12340
0.52727,12181
0.53660,12246
0.54593,12225
0.55528,11806
0.56462,12190
0.57395,12335
0.58330,11886
0.59263,11960
0.60197,11758
0.61132,12223
0.62065,11172
0.62998,11308
0.63933,11681
0.64867,11999
0.65800,12188
0.66735,11948
0.67668,11691
0.68603,9863
0.69537,12860
0.70470,11274
0.71405,10843
0.72338,11431
0.73272,10531
0.74207,10661
0.75140,11116
0.76073,10765
0.77008,11980
0.77942,10453
0.78875,11973
0.79810,10547
0.80743,10543
0.81677,11616
0.82612,10232
0.83545,11179
0.84480,9881
0.85413,10375
0.86347,11364
0.87282,10537
0.88215,10811
0.89148,10372
0.90083,10301
0.91017,10110
0.91950,11282
0.92885,11320
0.93818,10584
0.94752,10671
0.95687,10828
0.96620,10262
0.97553,10131
0.98488,10671
0.99422,9278
1.00355,9796
1.01290,11026
1.02223,9836
1.03158,9854
1.04092,10238
1.05025,10728
1.05960,10245
1.06893,10244
1.07827,9973
1.08762,10121
1.09695,10059
1.10628,10361
1.11563,9774
1.12497,10680
1.13430,10421
1.14365,10503
1.15298,9026
1.16232,10526
1.17167,9245
1.18100,9982
1.19033,9762
1.19968,10570
1.20902,10605
1.21837,10054
1.22770,9532
1.23703,10313
1.24638,10551
1.25572,9544
1.26505,10178
1.27440,9654
1.28373,8773
1.29307,9555
1.30242,9138
1.31175,9512
1.32108,9694
1.33043,9055
1.33977,9360
1.34910,9543
1.35845,9430
1.36778,8953
1.37712,9365
1.38647,8615
1.39580,9933
1.40515,9565
1.41448,9718
1.42382,9981
1.43317,8508
1.44250,9486
1.45183,8986
1.46118,9206
1.47052,9411
1.47985,9782
1.48920,8536
1.49853,8307
1.50787,9090
1.51722,8977
1.52655,9258
1.53588,8752
1.54523,8829
1.55457,9392
1.56390,9126
1.57325,8908
1.58258,9170
1.59193,13919
1.60127,22779
1.61060,31019
1.61995,38455
1.62928,45662
1.63862,62041
1.64797,71994
1.65730,73610
1.66663,68393
1.67598,58513
1.68532,51363
1.69465,42198
1.70400,32422
1.71333,27062
1.72267,29691
1.73202,32252
1.74135,37857
1.75068,43999
1.76003,47226
1.76937,47335
1.77872,50055
1.78805,48952
1.79738,47318
1.80673,46651
1.81607,45299
1.82540,45206
1.83475,44353
1.84408,45276
1.85342,45262
1.86277,45311
1.87210,52929
1.88143,82509
1.89078,135296
1.90012,197218
1.90945,221859
1.91880,255477
1.92813,445252
1.93748,922912
1.94682,1616578
1.95615,2086497
1.96550,2035031
1.97483,1668232
1.98417,1262887
1.99352,954332
2.00285,806504
2.01218,747081
2.02153,729402
2.03087,657782
2.04020,532228
2.04955,389778
2.05888,283433
2.06822,215484
2.07757,172431
2.08690,158158
2.09623,211327
2.10558,265580
2.11492,215222
2.12427,163974
2.13360,226643
2.14293,297008
2.15228,278927
2.16162,216518
2.17095,175148
2.18030,179400
2.18963,263280
2.19897,327495
2.20832,253636
2.21765,168233
2.22698,146891
2.23633,185113
2.24567,278064
2.25500,608239
2.26435,1713300
2.27368,2190610
2.28302,1807489
2.29237,1160964
2.30170,700721
2.31105,555366
2.32038,701629
2.32972,685014
2.33907,434309
2.34840,251098
2.35773,176242
2.36708,143205
2.37642,141863
2.38575,155387
2.39510,174251
2.40443,172081
2.41377,160676
2.42312,139650
2.43245,131679
2.44178,126124
2.45113,111649
2.46047,119136
2.46980,162687
2.47915,190419
2.48848,163192
2.49783,125150
2.50717,102319
2.51650,91696
2.52585,84940
2.53518,78828
2.54452,80304
2.55387,124374
2.56320,423005
2.57253,1374340
2.58188,1379822
2.59122,996018
2.60055,662569
2.60990,461564
2.61923,368891
2.62857,426030
2.63792,449733
2.64725,344511
2.65660,240016
2.66593,178502
2.67527,147349
2.68462,122000
2.69395,106847
2.70328,95351
2.71263,95894
2.72197,179843
2.73130,496456
2.74065,858717
2.74998,767264
2.75932,514686
2.76867,367479
2.77800,326334
2.78733,353976
2.79668,380647
2.80602,338967
2.81535,286598
2.82470,279981
2.83403,265214
2.84338,218619
2.85272,263228
2.86205,735420
2.87140,1568688
2.88073,1601081
2.89007,957079
2.89942,471215
2.90875,249999
2.91808,170496
2.92743,141602
2.93677,123659
2.94610,101658
2.95545,89961
2.96478,82889
2.97412,82083
2.98347,79984
2.99280,77454
3.00213,83007
3.01148,83416
3.02082,90908
3.03017,88087
3.03950,101969
3.04883,134208
3.05818,148272
3.06752,150170
3.07685,150971
3.08620,139159
3.09553,116695
3.10487,91444
3.11422,77188
3.12355,74024
3.13288,75845
3.14223,80976
3.15157,91462
3.16090,135403
3.17025,206408
3.17958,227575
3.18892,167201
3.19827,111792
3.20760,89505
3.21695,85925
3.22628,78333
3.23562,73238
3.24497,69747
3.25430,66705
3.26363,67945
3.27298,65451
3.28232,61286
3.29165,66775
3.30100,75948
3.31033,90731
3.31967,91026
3.32902,81584
3.33835,73909
3.34768,74133
3.35703,81143
3.36637,82356
3.37570,78939
3.38505,68484
3.39438,61974
3.40373,62331
3.41307,67693
3.42240,79410
3.43175,84630
3.44108,93446
3.45042,122017
3.45977,133646
3.46910,116740
3.47843,103199
3.48778,94297
3.49712,89137
3.50645,86518
3.51580,85370
3.52513,79718
3.53447,76850
3.54382,73648
3.55315,96591
3.56250,227818
3.57183,511188
3.58117,670673
3.59052,547877
3.59985,324418
3.60918,305112
3.61853,296980
3.62787,235415
3.63720,184831
3.64655,149723
3.65588,125773
3.66522,121323
3.67457,142469
3.68390,148769
3.69323,135301
3.70258,114207
3.71192,88417
3.72125,85676
3.73060,97963
3.73993,100872
3.74928,95306
3.75862,89470
3.76795,76707
3.77730,70772
3.78663,67258
3.79597,66389
3.80532,104910
3.81465,352201
3.82398,1001819
3.83333,1483517
3.84267,1181049
3.85200,600303
3.86135,275387
3.87068,150689
3.88002,114303
3.88937,99800
3.89870,91660
3.90803,95561
3.91738,100786
3.92672,101002
3.93607,112574
3.94540,130323
3.95473,184476
3.96408,204946
3.97342,171219
3.98275,125448
3.99210,93393
4.00143,79921
4.01077,75344
4.02012,80019
4.02945,87637
4.03878,84963
4.04813,89947
4.05747,91926
4.06680,101014
4.07615,147188
4.08548,190624
4.09482,193551
4.10417,171279
4.11350,143249
4.12285,115467
4.13218,92519
4.14152,86034
4.15087,82426
4.16020,82749
4.16953,80678
4.17888,73705
4.18822,68354
4.19755,67513
4.20690,72203
4.21623,78029
4.22557,78657
4.23492,74146
4.24425,70001
4.25358,68283
4.26293,68986
4.27227,93570
4.28162,122614
4.29095,127678
4.30028,117063
4.30963,101056
4.31897,95623
4.32830,92472
4.33765,96467
4.34698,98376
4.35632,93871
4.36567,79758
4.37500,72293
4.38433,67423
4.39368,72645
4.40302,69868
4.41235,67146
4.42170,63706
4.43103,60743
4.44037,60825
4.44972,59983
4.45905,58555
4.46840,61172
4.47773,67508
4.48707,77676
4.49642,83567
4.50575,81406
4.51508,74184
4.52443,73253
4.53377,70497
4.54310,75895
4.55245,77080
4.56178,77979
4.57112,78917
4.58047,79836
4.58980,79771
4.59913,72200
4.60848,69789
4.61782,67537
4.62715,64751
4.63650,65692
4.64583,70591
4.65518,86463
4.66452,94626
4.67385,93820
4.68320,84669
4.69253,81268
4.70187,74049
4.71122,66716
4.72055,65050
4.72988,70210
4.73923,100789
4.74857,110865
4.75790,101532
4.76725,86646
4.77658,81530
4.78592,75480
4.79527,76315
4.80460,77373
4.81393,77164
4.82328,75430
4.83262,73853
4.84197,77370
4.85130,76290
4.86063,78959
4.86998,82420
4.87932,96011
4.88865,106977
4.89800,106691
4.90733,99164
4.91667,91151
4.92602,82956
4.93535,78497
4.94468,77674
4.95403,73439
4.96337,70956
4.97270,67801
4.98205,64233
4.99138,62070
5.00072,64294
5.01007,69515
5.01940,71178
5.02875,78787
5.03808,81573
5.04742,80387
5.05677,78074
5.06610,73769
5.07543,74774
5.08478,77778
5.09412,83007
5.10345,79460
5.11280,74594
5.12213,70924
5.13147,68107
5.14082,77456
5.15015,87908
5.15948,95536
5.16883,90399
5.17817,77887
5.18752,75650
5.19685,82020
5.20618,87705
5.21553,84181
5.22487,75724
5.23420,75189
5.24355,79636
5.25288,81764
5.26222,76890
5.27157,85760
5.28090,149078
5.29023,284680
5.29958,383654
5.30892,331431
5.31825,221044
5.32760,162523
5.33693,137398
5.34627,117707
5.35562,96261
5.36495,79921
5.37430,75290
5.38363,76815
5.39297,97206
5.40232,110477
5.41165,108343
5.42098,97838
5.43033,86957
5.43967,72241
5.44900,66630
5.45835,63285
5.46768,63602
5.47702,67348
5.48637,68459
5.49570,67175
5.50503,70287
5.51438,73265
5.52372,75758
5.53305,78313
5.54240,85895
5.55173,89740
5.56108,85297
5.57042,78187
5.57975,69627
5.58910,66325
5.59843,63914
5.60777,61887
5.61712,60862
5.62645,58597
5.63578,58306
5.64513,62001
5.65447,66521
5.66380,75094
5.67315,83028
5.68248,87473
5.69182,87920
5.70117,85401
5.71050,100413
5.71983,124981
5.72918,126886
5.73852,106507
5.74787,110757
5.75720,146037
5.76653,199800
5.77588,202509
5.78522,145703
5.79455,99666
5.80390,73255
5.81323,67419
5.82257,67581
5.83192,83418
5.84125,96610
5.85058,93407
5.85993,81057
5.86927,73628
5.87860,79416
5.88795,81313
5.89728,77906
5.90663,83887
5.91597,147303
5.92530,287172
5.93465,385083
5.94398,363268
5.95332,329045
5.96267,273217
5.97200,190898
5.98133,122160
5.99068,91275
6.00002,74076
6.00935,70406
6.01870,66685
6.02803,60661
6.03737,54785
6.04672,51027
6.05605,51248
6.06538,58705
6.07473,66784
6.08407,62094
6.09342,44628
6.10275,33092
6.11208,35464
6.12143,42999
6.13077,61220
6.14010,71863
6.14945,62828
6.15878,48004
6.16812,39169
6.17747,36917
6.18680,40404
6.19613,40729
6.20548,39530
6.21482,37455
6.22415,44605
6.23350,54967
6.24283,64741
6.25217,58479
6.26152,45980
6.27085,45875
6.28020,61330
6.28953,74271
6.29887,64141
6.30822,48416
6.31755,38068
6.32688,33244
6.33623,33726
6.34557,33730
6.35490,35321
6.36425,38592
6.37358,45745
6.38292,63902
6.39227,120388
6.40160,419285
6.41093,1448060
6.42028,2733908
6.42962,2669604
6.43895,1450878
6.44830,509020
6.45763,154711
6.46698,81241
6.47632,67210
6.48565,60214
6.49500,51650
6.50433,45564
6.51367,43600
6.52302,45968
6.53235,45456
6.54168,44940
6.55103,42173
6.56037,39623
6.56970,37068
6.57905,38193
6.58838,41505
6.59772,47140
6.60707,52638
6.61640,56924
6.62573,54828
6.63508,55724
6.64442,58102
6.65377,64007
6.66310,66518
6.67243,64134
6.68178,57697
6.69112,55107
6.70045,71845
6.70980,78035
6.71913,71300
6.72847,61773
6.73782,53056
6.74715,46184
6.75648,42659
6.76583,39486
6.77517,39572
6.78450,44684
6.79385,53311
6.80318,64439
6.81252,67186
6.82187,60700
6.83120,47613
6.84055,47323
6.84988,50669
6.85922,56647
6.86857,52551
6.87790,46324
6.88723,43186
6.89658,42790
6.90592,42256
6.91525,45529
6.92460,46599
6.93393,45208
6.94327,42791
6.95262,42619
6.96195,46120
6.97128,44305
6.98063,48037
6.98997,46675
6.99932,46483
7.00865,42756
7.01798,41883
7.02733,43891
7.03667,41743
7.04600,36861
7.05535,31022
7.06468,30367
7.07402,33026
7.08337,36514
7.09270,41856
7.10203,47377
7.11138,51606
7.12072,51936
7.13005,50905
7.13940,46771
7.14873,40784
7.15807,36777
7.16742,34667
7.17675,34209
7.18610,33297
7.19543,36421
7.20477,38543
7.21412,39728
7.22345,43222
7.23278,66616
7.24213,117866
7.25147,154090
7.26080,132511
7.27015,88329
7.27948,66340
7.28882,61727
7.29817,56347
7.30750,53082
7.31683,51096
7.32618,49090
7.33552,48565
7.34485,43932
7.35420,40066
7.36353,35738
7.37288,35134
7.38222,35225
7.39155,54991
7.40090,122798
7.41023,244011
7.41957,331850
7.42892,298006
7.43825,187885
7.44758,98726
7.45693,55166
7.46627,39773
7.47560,40618
7.48495,56944
7.49428,64175
7.50362,58065
7.51297,43629
7.52230,38002
7.53163,32954
7.54098,31439
7.55032,30828
7.55967,32909
7.56900,40875
7.57833,47831
7.58768,57128
7.59702,64154
7.60635,75295
7.61570,77314
7.62503,76064
7.63437,64701
7.64372,55950
7.65305,49037
7.66238,41925
7.67173,40146
7.68107,43237
7.69040,43528
7.69975,43174
7.70908,46305
7.71843,48971
7.72777,47259
7.73710,46259
7.74645,51111
7.75578,63867
7.76512,67728
7.77447,64078
7.78380,58529
7.79313,59467
7.80248,53475
7.81182,46142
7.82115,36876
7.83050,36445
7.83983,36095
7.84917,42040
7.85852,67859
7.86785,127658
7.87718,196137
7.88653,188363
7.89587,127121
7.90522,80804
7.91455,85842
7.92388,126482
7.93323,152056
7.94257,135180
7.95190,160604
7.96125,177703
7.97058,164876
7.97992,165988
7.98927,211025
7.99860,205247
8.00793,150907
8.01728,91152
8.02662,66442
8.03595,63650
8.04530,74566
8.05463,86867
8.06397,78252
8.07332,59219
8.08265,55155
8.09200,94629
8.10133,165711
8.11067,178982
8.12002,127600
8.12935,80002
8.13868,57581
8.14803,50336
8.15737,47191
8.16670,45454
8.17605,42792
8.18538,40591
8.19472,40350
8.20407,39874
8.21340,42425
8.22273,42733
8.23208,44644
8.24142,47669
8.25075,55789
8.26010,60110
8.26943,56462
8.27878,47463
8.28812,41051
8.29745,42173
8.30680,43199
8.31613,44123
8.32547,43644
8.33482,42936
8.34415,43805
8.35348,41047
8.36283,36657
8.37217,37239
8.38150,54772
8.39085,62363
8.40018,63439
8.40952,64356
8.41887,60933
8.42820,61907
8.43753,59366
8.44688,56235
8.45622,49900
8.46557,48728
8.47490,50973
8.48423,49982
8.49358,48843
8.50292,47198
8.51225,48478
8.52160,44312
8.53093,40459
8.54027,42163
8.54962,45764
8.55895,52329
8.56828,60021
8.57763,59444
8.58697,60348
8.59630,58513
8.60565,56545
8.61498,55886
8.62433,53441
8.63367,49749
8.64300,46862
8.65235,41300
8.66168,43284
8.67102,46419
8.68037,51648
8.68970,47705
8.69903,49069
8.70838,47822
8.71772,46493
8.72705,41504
8.73640,43820
8.74573,55698
8.75507,83454
8.76442,104230
8.77375,92587
8.78308,67417
8.79243,57321
8.80177,63865
8.81112,80950
8.82045,94747
8.82978,86095
8.83913,66773
8.84847,52692
8.85780,51785
8.86715,54279
8.87648,58944
8.88582,63209
8.89517,58472
8.90450,56142
8.91383,53928
8.92318,53321
8.93252,57895
8.94185,61907
8.95120,58609
8.96053,50675
8.96987,49021
8.97922,49511
8.98855,51724
8.99790,52588
9.00723,56120
9.01657,61294
9.02592,60786
9.03525,54042
9.04458,53385
9.05393,54658
9.06327,59968
9.07260,71586
9.08195,83323
9.09128,97837
9.10062,106882
9.10997,93796
9.11930,74449
9.12863,61486
9.13798,61446
9.14732,60878
9.15665,55364
9.16600,51197
9.17533,45974
9.18468,49114
9.19402,50207
9.20335,54252
9.21270,65592
9.22203,101340
9.23137,177441
9.24072,240574
9.25005,230101
9.25938,157592
9.26873,99001
9.27807,76564
9.28740,68584
9.29675,67265
9.30608,65737
9.31542,68347
9.32477,86037
9.33410,130122
9.34345,151451
9.35278,124780
9.36212,132346
9.37147,249350
9.38080,392791
9.39013,381408
9.39948,273117
9.40882,169538
9.41815,113643
9.42750,102041
9.43683,99027
9.44617,86729
9.45552,63204
9.46485,50054
9.47418,45556
9.48353,42688
9.49287,52401
9.50220,66937
9.51155,75065
9.52088,73365
9.53023,69107
9.53957,69996
9.54890,77936
9.55825,100580
9.56758,150084
9.57692,171908
9.58627,142869
9.59560,100532
9.60493,103383
9.61428,116622
9.62362,109598
9.63295,94073
9.64230,87100
9.65163,80082
9.66097,72050
9.67032,66460
9.67965,62935
9.68898,65475
9.69833,61931
9.70767,56658
9.71702,51666
9.72635,84688
9.73568,284742
9.74503,786766
9.75437,1172395
9.76370,1005813
9.77305,549137
9.78238,258861
9.79172,155874
9.80107,124596
9.81040,102341
9.81973,94759
9.82908,116059
9.83842,152771
9.84775,202223
9.85710,224695
9.86643,187117
9.87577,127707
9.88512,113348
9.89445,136856
9.90380,163550
9.91313,244397
9.92247,392739
9.93182,424157
9.94115,294540
9.95048,157281
9.95983,90770
9.96917,71801
9.97850,95051
9.98785,180708
9.99718,288208
10.00652,303879
10.01587,212774
10.02520,129782
10.03453,86014
10.04388,73873
10.05322,73185
10.06255,80190
10.07190,98816
10.08123,121525
10.09058,130171
10.09992,126467
10.10925,231223
10.11860,1112046
10.12793,4120258
10.13727,7899146
10.14662,7840336
10.15595,5082227
10.16528,5098476
10.17463,7815465
10.18397,7602113
10.19330,3600982
10.20265,826437
10.21198,175331
10.22132,103682
10.23067,105564
10.24000,145800
10.24933,204571
10.25868,211060
10.26802,149184
10.27737,95729
10.28670,72963
10.29603,68503
10.30538,65839
10.31472,63644
10.32405,64374
10.33340,65297
10.34273,65666
10.35207,65379
10.36142,69080
10.37075,75644
10.38008,72671
10.38943,61541
10.39877,50016
10.40810,50624
10.41745,54747
10.42678,60477
10.43613,70724
10.44547,69132
10.45480,70813
10.46415,82994
10.47348,96445
10.48282,92704
10.49217,73228
10.50150,55965
10.51083,49469
10.52018,48945
10.52952,48558
10.53885,51653
10.54820,54689
10.55753,60444
10.56687,64783
10.57622,68979
10.58555,72195
10.59488,71684
10.60423,69737
10.61357,64919
10.62292,60981
10.63225,70028
10.64158,96141
10.65093,103030
10.66027,78708
10.66960,60848
10.67895,64637
10.68828,71254
10.69762,73965
10.70697,65077
10.71630,70829
10.72563,82317
10.73498,84257
10.74432,81310
10.75365,113359
10.76300,210702
10.77233,293116
10.78167,259423
10.79102,217768
10.80035,397583
10.80970,764489
10.81903,912996
10.82837,596952
10.83772,249264
10.84705,97485
10.85638,68684
10.86573,64031
10.87507,73294
10.88440,89568
10.89375,103159
10.90308,98261
10.91242,75336
10.92177,67731
10.93110,69032
10.94043,78512
10.94978,70138
10.95912,60624
10.96845,57603
10.97780,59051
10.98713,56039
10.99648,52108
11.00582,53190
11.01515,59481
11.02450,53005
11.03383,54885
11.04317,53885
11.05252,52730
11.06185,49589
11.07118,47925
11.08053,46126
11.08987,50891
11.09920,54793
11.10855,69435
11.11788,90940
11.12722,94042
11.13657,85723
11.14590,80528
11.15525,79349
11.16458,71011
11.17392,63899
11.18327,56329
11.19260,53219
11.20193,52725
11.21128,51153
11.22062,54230
11.22995,57052
11.23930,59617
11.24863,54401
11.25797,55926
11.26732,64907
11.27665,67396
11.28598,64704
11.29533,57087
11.30467,55486
11.31400,56850
11.32335,60019
11.33268,66528
11.34203,95665
11.35137,137414
11.36070,175114
11.37005,177463
11.37938,145521
11.38872,107011
11.39807,89920
11.40740,97914
11.41673,101071
11.42608,86694
11.43542,71127
11.44475,61699
11.45410,61341
11.46343,76751
11.47277,109087
11.48212,128571
11.49145,108439
11.50078,73801
11.51013,60917
11.51947,57607
11.52882,55926
11.53815,53231
11.54748,61871
11.55683,75135
11.56617,110108
11.57550,175689
11.58485,241202
11.59418,242388
11.60352,192031
11.61287,142095
11.62220,119142
11.63153,111345
11.64088,107632
11.65022,93928
11.65955,87499
11.66890,85301
11.67823,83589
11.68757,80198
11.69692,68322
11.70625,67300
11.71560,69238
11.72493,67138
11.73427,66134
11.74362,61561
11.75295,69105
11.76228,73469
11.77163,79443
11.78097,82444
11.79030,88942
11.79965,94915
11.80898,89106
11.81832,76307
11.82767,71335
11.83700,72512
11.84633,74892
11.85568,79816
11.86502,79644
11.87435,81097
11.88370,87693
11.89303,89908
11.90238,86174
11.91172,84877
11.92105,81356
11.93040,72379
11.93973,75147
11.94907,96979
11.95842,105991
11.96775,98968
11.97708,85223
11.98643,74535
11.99577,74872
12.00510,83044
12.01445,107608
12.02378,147013
12.03312,145716
12.04247,118616
12.05180,96861
12.06113,86262
12.07048,72789
12.07982,68845
12.08917,70552
12.09850,73701
12.10783,77564
12.11718,81142
12.12652,80637
12.13585,79191
12.14520,85389
12.15453,84133
12.16387,94845
12.17322,153715
12.18255,273036
12.19188,327927
12.20123,237283
12.21057,128675
12.21990,93774
12.22925,109511
12.23858,136523
12.24793,140092
12.25727,111805
12.26660,127541
12.27595,269406
12.28528,532846
12.29462,614291
12.30397,395284
12.31330,182085
12.32263,107475
12.33198,90369
12.34132,101410
12.35065,112512
12.36000,103275
12.36933,88189
12.37867,84409
12.38802,96779
12.39735,137906
12.40668,177457
12.41603,164063
12.42537,130316
12.43472,111381
12.44405,97576
12.45338,91488
12.46273,96827
12.47207,106074
12.48140,108358
12.49075,109465
12.50008,116771
12.50942,122364
12.51877,123160
12.52810,116544
12.53743,116431
12.54678,109532
12.55612,103705
12.56545,105082
12.57480,117418
12.58413,139249
12.59347,157957
12.60282,146137
12.61215,116284
12.62150,93085
12.63083,90147
12.64017,101991
12.64952,117794
12.65885,121358
12.66818,112102
12.67753,99017
12.68687,88421
12.69620,79991
12.70555,77079
12.71488,83614
12.72422,94858
12.73357,99702
12.74290,95799
12.75223,106592
12.76158,123773
12.77092,121552
12.78025,105033
12.78960,88458
12.79893,77013
12.80828,75393
12.81762,78099
12.82695,77951
12.83630,81665
12.84563,83644
12.85497,81205
12.86432,74381
12.87365,71137
12.88298,68923
12.89233,70333
12.90167,79892
12.91100,80354
12.92035,74520
12.92968,65584
12.93902,69814
12.94837,76748
12.95770,82455
12.96705,81411
12.97638,73203
12.98572,66966
12.99507,59128
13.00440,57630
13.01373,60968
13.02308,61932
13.03242,75616
13.04175,91842
13.05110,98799
13.06043,84648
13.06977,86024
13.07912,104495
13.08845,112107
13.09778,96212
13.10713,78138
13.11647,73963
13.12580,69846
13.13515,75846
13.14448,87649
13.15383,90448
13.16317,93942
13.17250,100261
13.18185,116400
13.19118,235172
13.20052,1156085
13.20987,4529537
13.21920,9597116
13.22853,1.106171E+07
13.23788,6724913
13.24722,2203029
13.25655,598180
13.26590,281435
13.27523,183938
13.28457,132588
13.29392,126148
13.30325,112146
13.31258,100656
13.32193,107985
13.33127,120586
13.34062,116506
13.34995,115234
13.35928,115904
13.36863,102106
13.37797,88255
13.38730,79792
13.39665,91288
13.40598,120912
13.41532,129169
13.42467,103782
13.43400,86583
13.44333,95502
13.45268,107558
13.46202,106135
13.47135,91077
13.48070,87862
13.49003,88196
13.49937,77720
13.50872,74798
13.51805,93451
13.52740,192276
13.53673,319601
13.54607,324803
13.55542,206655
13.56475,105115
13.57408,74143
13.58343,65750
13.59277,64265
13.60210,61516
13.61145,65593
13.62078,63134
13.63012,64564
13.63947,75909
13.64880,91263
13.65813,105008
13.66748,103651
13.67682,90057
13.68615,70493
13.69550,64281
13.70483,66243
13.71418,74387
13.72352,73879
13.73285,63867
13.74220,58162
13.75153,53374
13.76087,54262
13.77022,61810
13.77955,60287
13.78888,59689
13.79823,58785
13.80757,73250
13.81690,85094
13.82625,82333
13.83558,68365
13.84492,58528
13.85427,59648
13.86360,66489
13.87295,73921
13.88228,81229
13.89162,95381
13.90097,139237
13.91030,260429
13.91963,550825
13.92898,828370
13.93832,728315
13.94765,371081
13.95700,153186
13.96633,111599
13.97567,97247
13.98502,82336
13.99435,73559
14.00368,74616
14.01303,72714
14.02237,69735
14.03170,65854
14.04105,74032
14.05038,221011
14.05973,1319865
14.06907,5375993
14.07840,1.297638E+07
14.08775,1.944559E+07
14.09708,1.691338E+07
14.10642,6620555
14.11577,1075806
14.12510,170465
14.13443,99024
14.14378,88597
14.15312,91275
14.16245,102008
14.17180,117499
14.18113,132956
14.19047,182116
14.19982,308812
14.20915,392113
14.21848,301631
14.22783,152407
14.23717,78045
14.24652,60382
14.25585,57005
14.26518,61493
14.27453,73761
14.28387,81235
14.29320,76001
14.30255,68800
14.31188,63695
14.32122,82864
14.33057,123663
14.33990,154629
14.34923,147439
14.35858,115192
14.36792,85982
14.37725,70131
14.38660,64079
14.39593,62723
14.40527,66157
14.41462,62036
14.42395,55482
14.43330,53445
14.44263,58466
14.45197,80089
14.46132,134722
14.47065,194489
14.47998,217411
14.48933,180701
14.49867,116497
14.50800,76328
14.51735,59571
14.52668,53133
14.53602,53054
14.54537,58501
14.55470,62504
14.56403,68861
14.57338,70764
14.58272,71883
14.59207,67746
14.60140,62674
14.61073,58231
14.62008,57988
14.62942,59144
14.63875,68075
14.64810,84341
14.65743,111656
14.66677,131926
14.67612,117639
14.68545,91887
14.69478,71811
14.70413,62079
14.71347,59549
14.72280,55326
14.73215,58768
14.74148,62425
14.75082,66209
14.76017,61642
14.76950,62880
14.77885,79552
14.78818,139702
14.79752,298925
14.80687,478436
14.81620,481606
14.82553,302484
14.83488,150192
14.84422,87581
14.85355,65293
14.86290,68880
14.87223,94249
14.88157,128253
14.89092,125904
14.90025,96162
14.90958,76290
14.91893,66830
14.92827,66901
14.93760,70422
14.94695,73439
14.95628,80504
14.96563,86389
14.97497,99524
14.98430,102235
14.99365,93523
15.00298,80118
15.01232,86722
15.02167,98771
15.03100,95921
15.04033,82586
15.04968,82793
15.05902,93038
15.06835,98537
15.07770,106032
15.08703,104247
15.09637,80873
15.10572,63835
15.11505,63667
15.12438,72989
15.13373,90164
15.14307,112617
15.15242,108023
15.16175,81739
15.17108,62835
15.18043,62219
15.18977,68121
15.19910,89471
15.20845,131042
15.21778,206537
15.22712,280227
15.23647,294504
15.24580,250062
15.25513,172453
15.26448,117110
15.27382,83482
15.28315,73250
15.29250,69650
15.30183,69425
15.31117,65573
15.32052,65368
15.32985,70691
15.33920,79961
15.34853,87878
15.35787,87303
15.36722,89400
15.37655,105498
15.38588,118455
15.39523,104441
15.40457,76536
15.41390,63768
15.42325,68851
15.43258,76828
15.44192,80009
15.45127,75319
15.46060,66663
15.46993,65504
15.47928,65738
15.48862,69530
15.49795,77756
15.50730,89352
15.51663,129310
15.52598,200623
15.53532,219386
15.54465,172112
15.55400,112758
15.56333,75068
15.57267,60989
15.58202,57530
15.59135,60737
15.60068,64208
15.61003,70715
15.61937,75045
15.62870,80370
15.63805,92056
15.64738,101061
15.65672,100962
15.66607,109277
15.67540,113981
15.68475,99493
15.69408,83286
15.70342,104651
15.71277,141054
15.72210,150573
15.73143,113862
15.74078,83831
15.75012,85801
15.75945,105896
15.76880,128887
15.77813,119927
15.78747,100222
15.79682,84755
15.80615,77276
15.81548,80588
15.82483,105389
15.83417,172007
15.84350,329939
15.85285,485797
15.86218,436635
15.87153,256089
15.88087,133213
15.89020,114852
15.89955,130859
15.90888,150345
15.91822,147540
15.92757,114985
15.93690,88557
15.94623,73220
15.95558,66183
15.96492,68529
15.97425,76963
15.98360,102103
15.99293,146937
16.00227,188461
16.01162,177453
16.02095,120957
16.03028,79842
16.03963,68599
16.04897,71022
16.05832,76989
16.06765,77288
16.07698,79309
16.08633,75045
16.09567,72961
16.10500,70761
16.11435,77674
16.12368,91315
16.13302,99849
16.14237,94556
16.15170,80785
16.16103,74070
16.17038,76950
16.17972,75044
16.18905,70550
16.19840,73070
16.20773,85786
16.21707,97238
16.22642,105427
16.23575,105187
16.24510,100389
16.25443,90733
16.26377,81613
16.27312,118886
16.28245,372889
16.29178,1395333
16.30113,3363608
16.31047,4510147
16.31980,3217184
16.32915,1281447
16.33848,335323
16.34782,109637
16.35717,72864
16.36650,62354
16.37583,58896
16.38518,56503
16.39452,55502
16.40387,59314
16.41320,63485
16.42253,66935
16.43188,68559
16.44122,68572
16.45055,69336
16.45990,85765
16.46923,100073
16.47857,96498
16.48792,80727
16.49725,73900
16.50658,76089
16.51593,77428
16.52527,82260
16.53460,83251
16.54395,79967
16.55328,75512
16.56262,68998
16.57197,64563
16.58130,65631
16.59065,76226
16.59998,76536
16.60932,70139
16.61867,63403
16.62800,76716
16.63733,95718
16.64668,105255
16.65602,103678
16.66535,90648
16.67470,77633
16.68403,75800
16.69337,85811
16.70272,112655
16.71205,118081
16.72138,99533
16.73073,79682
16.74007,81570
16.74940,152893
16.75875,271008
16.76808,292614
16.77743,189682
16.78677,100730
16.79610,71056
16.80545,70803
16.81478,74727
16.82412,82538
16.83347,91376
16.84280,104591
16.85213,107586
16.86148,93537
16.87082,80257
16.88015,69887
16.88950,65924
16.89883,65291
16.90817,74964
16.91752,104134
16.92685,126679
16.93618,118776
16.94553,98494
16.95487,100119
16.96422,114357
16.97355,129811
16.98288,125225
16.99223,103238
17.00157,87542
17.01090,76544
17.02025,71707
17.02958,101291
17.03892,172700
17.04827,219037
17.05760,172860
17.06693,115295
17.07628,94047
17.08562,89796
17.09495,83901
17.10430,81928
17.11363,77954
17.12297,71540
17.13232,73178
17.14165,84803
17.15100,93842
17.16033,83887
17.16967,71431
17.17902,68276
17.18835,68855
17.19768,70551
17.20703,66462
17.21637,61846
17.22570,59858
17.23505,61926
17.24438,63164
17.25372,63669
17.26307,66710
17.27240,73813
17.28173,77082
17.29108,91327
17.30042,95268
17.30975,86984
17.31910,85273
17.32843,87894
17.33778,91763
17.34712,84061
17.35645,73378
17.36580,71442
17.37513,104136
17.38447,242093
17.39382,494815
17.40315,576696
17.41248,377925
17.42183,185140
17.43117,113618
17.44050,89570
17.44985,81836
17.45918,85541
17.46852,82108
17.47787,78619
17.48720,85007
17.49655,248939
17.50588,1352723
17.51522,4322175
17.52457,7580004
17.53390,7419040
17.54323,3585371
17.55258,840690
17.56192,165298
17.57125,94954
17.58060,95214
17.58993,106139
17.59927,108997
17.60862,101013
17.61795,85666
17.62728,79543
17.63663,83835
17.64597,81089
17.65530,81778
17.66465,94579
17.67398,106481
17.68333,121075
17.69267,129032
17.70200,133983
17.71135,122523
17.72068,114472
17.73002,102481
17.73937,87304
17.74870,85909
17.75803,97784
17.76738,108956
17.77672,113789
17.78605,113728
17.79540,91738
17.80473,83414
17.81407,74943
17.82342,72591
17.83275,68136
17.84208,71265
17.85143,79150
17.86077,93413
17.87012,112382
17.87945,117858
17.88878,103589
17.89813,98271
17.90747,95016
17.91680,83119
17.92615,74411
17.93548,73256
17.94482,75051
17.95417,77077
17.96350,76265
17.97283,79309
17.98218,79505
17.99152,75400
18.00085,70521
18.01020,71058
18.01953,74242
18.02887,73663
18.03822,77715
18.04755,100056
18.05690,147587
18.06623,208950
18.07557,213716
18.08492,150645
18.09425,97887
18.10358,94017
18.11293,121367
18.12227,145244
18.13160,138155
18.14095,115948
18.15028,103841
18.15962,97451
18.16897,92175
18.17830,86269
18.18763,81933
18.19698,79352
18.20632,76327
18.21567,74702
18.22500,73423
18.23433,73576
18.24368,76451
18.25302,69635
18.26235,65233
18.27170,68228
18.28103,75992
18.29037,90302
18.29972,102964
18.30905,110275
18.31838,113441
18.32773,105705
18.33707,104171
18.34640,109982
18.35575,125996
18.36508,141186
18.37442,133882
18.38377,120327
18.39310,121878
18.40245,161067
18.41178,231381
18.42112,262275
18.43047,189549
18.43980,120710
18.44913,104913
18.45848,109073
18.46782,105519
18.47715,92693
18.48650,84773
18.49583,97206
18.50517,132668
18.51452,177990
18.52385,197115
18.53318,166848
18.54253,129096
18.55187,109257
18.56120,112204
18.57055,113436
18.57988,98598
18.58923,88767
18.59857,94762
18.60790,114650
18.61725,135915
18.62658,136313
18.63592,125967
18.64527,107082
18.65460,102018
18.66393,99334
18.67328,104961
18.68262,114221
18.69195,120348
18.70130,118684
18.71063,122026
18.71997,124989
18.72932,133231
18.73865,129841
18.74798,114637
18.75733,99809
18.76667,88108
18.77602,74841
18.78535,71452
18.79468,71350
18.80403,75128
18.81337,79666
18.82270,80541
18.83205,80975
18.84138,79213
18.85072,79019
18.86007,76661
18.86940,79931
18.87873,78937
18.88808,78418
18.89742,77892
18.90675,83386
18.91610,100868
18.92543,122077
18.93477,123687
18.94412,108830
18.95345,112675
18.96280,122640
18.97213,141932
18.98147,142970
18.99082,126976
19.00015,97801
19.00948,85447
19.01883,82908
19.02817,83439
19.03750,85667
19.04685,101533
19.05618,145875
19.06552,220694
19.07487,328842
19.08420,546495
19.09353,720305
19.10288,614550
19.11222,342963
19.12155,168737
19.13090,100824
19.14023,83923
19.14958,74701
19.15892,71329
19.16825,68105
19.17760,65572
19.18693,72766
19.19627,78904
19.20562,86442
19.21495,98660
19.22428,97742
19.23363,94882
19.24297,90739
19.25230,85269
19.26165,80660
19.27098,78467
19.28032,82009
19.28967,91823
19.29900,106110
19.30835,135961
19.31768,196993
19.32702,243468
19.33637,197931
19.34570,135657
19.35503,104560
19.36438,83293
19.37372,76089
19.38305,71133
19.39240,73020
19.40173,78687
19.41107,88971
19.42042,89590
19.42975,87611
19.43908,76891
19.44843,71309
19.45777,72029
19.46710,70546
19.47645,76385
19.48578,83112
19.49513,90859
19.50447,93740
19.51380,86774
19.52315,78587
19.53248,73085
19.54182,73154
19.55117,76320
19.56050,71848
19.56983,72281
19.57918,85778
19.58852,92384
19.59785,97005
19.60720,93044
19.61653,83372
19.62587,81735
19.63522,87458
19.64455,94384
19.65388,96964
19.66323,91286
19.67257,83416
19.68192,79153
19.69125,86868
19.70058,98699
19.70993,106395
19.71927,108683
19.72860,121549
19.73795,144452
19.74728,150932
19.75662,125817
19.76597,101647
19.77530,92899
19.78463,90867
19.79398,95102
19.80332,97687
19.81265,89158
19.82200,79529
19.83133,84013
19.84067,81877
19.85002,75821
19.85935,74941
19.86870,85059
19.87803,113894
19.88737,149106
19.89672,158077
19.90605,120128
19.91538,93644
19.92473,84569
19.93407,84729
19.94340,81845
19.95275,78801
19.96208,85606
19.97142,87901
19.98077,88012
19.99010,82085
19.99943,75082
20.00878,75743
20.01812,74648
20.02747,77379
20.03680,81781
20.04613,87674
20.05548,89217
20.06482,82853
20.07415,81193
20.08350,86732
20.09283,91431
20.10217,93600
20.11152,82195
20.12085,75336
20.13018,67624
20.13953,68396
20.14887,79304
20.15820,98153
20.16755,113280
20.17688,109114
20.18622,92028
20.19557,79586
20.20490,75334
20.21425,76769
20.22358,77903
20.23292,84745
20.24227,85644
20.25160,79808
20.26093,74062
20.27028,68921
20.27962,72257
20.28895,74678
20.29830,77532
20.30763,74837
20.31697,76507
20.32632,70086
20.33565,67395
20.34498,66284
20.35433,64877
20.36367,72574
20.37300,72664
20.38235,76392
20.39168,74589
20.40103,71466
20.41037,67293
20.41970,66442
20.42905,66349
20.43838,72196
20.44772,73968
20.45707,74179
20.46640,80429
20.47573,106254
20.48508,132301
20.49442,121260
20.50375,95918
20.51310,76526
20.52243,73297
20.53177,71902
20.54112,75766
20.55045,74152
20.55978,93963
20.56913,170688
20.57847,411063
20.58782,731606
20.59715,733111
20.60648,408638
20.61583,170842
20.62517,106510
20.63450,138984
20.64385,258585
20.65318,392489
20.66252,390187
20.67187,250697
20.68120,147678
20.69053,110417
20.69988,97643
20.70922,91170
20.71855,90894
20.72790,89455
20.73723,89247
20.74657,88524
20.75592,88847
20.76525,85707
20.77460,77601
20.78393,79480
20.79327,81010
20.80262,86545
20.81195,89727
20.82128,85957
20.83063,83752
20.83997,77476
20.84930,73327
20.85865,69527
20.86798,71610
20.87732,70859
20.88667,72689
20.89600,75916
20.90533,81241
20.91468,89540
20.92402,90369
20.93337,82709
20.94270,74476
20.95203,73762
20.96138,74222
20.97072,69699
20.98005,67790
20.98940,67660
20.99873,67176
21.00807,71322
21.01742,71554
21.02675,69902
21.03608,70143
21.04543,69707
21.05477,71868
21.06410,73748
21.07345,74677
21.08278,73977
21.09212,74206
21.10147,74906
21.11080,78210
21.12015,79698
21.12948,81115
21.13882,81680
21.14817,80732
21.15750,81702
21.16683,79332
21.17618,85059
21.18552,94340
21.19485,103879
21.20420,98893
21.21353,89679
21.22287,82045
21.23222,77207
21.24155,77734
21.25088,73886
21.26023,74965
21.26957,77196
21.27890,86961
21.28825,98779
21.29758,107768
21.30693,103068
21.31627,92602
21.32560,82947
21.33495,78977
21.34428,77577
21.35362,77896
21.36297,78908
21.37230,78075
21.38163,78205
21.39098,82516
21.40032,83857
21.40965,83593
21.41900,90858
21.42833,88647
21.43767,91070
21.44702,87685
21.45635,83562
21.46568,81257
21.47503,76586
21.48437,85053
21.49372,92611
21.50305,105442
21.51238,122866
21.52173,126825
21.53107,107397
21.54040,89825
21.54975,84590
21.55908,90841
21.56842,115997
21.57777,158860
21.58710,184723
21.59643,157437
21.60578,115657
21.61512,94250
21.62445,89657
21.63380,90275
21.64313,90714
21.65248,87884
21.66182,84125
21.67115,83294
21.68050,94763
21.68983,111504
21.69917,122611
21.70852,116027
21.71785,109881
21.72718,105613
21.73653,104690
21.74587,94655
21.75520,86054
21.76455,81231
21.77388,74578
21.78322,74710
21.79257,77434
21.80190,82857
21.81123,88167
21.82058,100888
21.82992,104258
21.83927,101755
21.84860,93294
21.85793,86451
21.86728,80991
21.87662,87840
21.88595,95116
21.89530,107834
21.90463,115413
21.91397,106633
21.92332,95602
21.93265,87720
21.94198,80575
21.95133,76863
21.96067,82192
21.97000,90884
21.97935,102114
21.98868,121567
21.99802,136400
22.00737,143315
22.01670,121451
22.02605,101101
22.03538,88663
22.04472,92949
22.05407,104773
22.06340,108444
22.07273,106740
22.08208,101942
22.09142,97702
22.10075,91324
22.11010,86598
22.11943,85611
22.12877,82949
22.13812,82908
22.14745,82238
22.15678,90150
22.16613,114241
22.17547,140325
22.18480,156269
22.19415,129195
22.20348,107193
22.21283,95132
22.22217,98802
22.23150,102074
22.24085,106556
22.25018,105805
22.25952,100786
22.26887,101423
22.27820,114180
22.28753,143158
22.29688,163390
22.30622,157812
22.31555,139264
22.32490,115668
22.33423,101033
22.34357,98593
22.35292,105500
22.36225,121738
22.37158,138040
22.38093,152214
22.39027,148169
22.39962,139989
22.40895,121147
22.41828,109800
22.42763,109392
22.43697,118842
22.44630,132186
22.45565,128796
22.46498,121780
22.47432,116139
22.48367,108375
22.49300,106193
22.50233,105201
22.51168,101504
22.52102,99787
22.53035,103094
22.53970,102929
22.54903,106308
22.55837,107048
22.56772,116232
22.57705,129634
22.58640,138748
22.59573,141814
22.60507,141864
22.61442,141742
22.62375,142254
22.63308,141006
22.64243,131130
22.65177,128502
22.66110,116126
22.67045,113550
22.67978,120639
22.68912,128102
22.69847,148308
22.70780,154274
22.71713,143390
22.72648,129380
22.73582,133427
22.74517,145609
22.75450,146947
22.76383,143886
22.77318,143489
22.78252,128451
22.79185,123644
22.80120,130516
22.81053,143700
22.81987,149408
22.82922,137977
22.83855,125591
22.84788,118615
22.85723,113406
22.86657,111483
22.87590,111213
22.88525,112793
22.89458,112056
22.90392,110552
22.91327,111252
22.92260,114104
22.93195,120649
22.94128,120827
22.95062,114367
22.95997,108104
22.96930,103035
22.97863,98779
22.98798,94988
22.99732,89991
23.00665,88681
23.01600,90106
23.02533,83992
23.03467,86791
23.04402,91127
23.05335,93681
23.06268,95406
23.07203,91309
23.08137,89577
23.09070,88818
23.10005,85440
23.10938,84844
23.11873,84252
23.12807,84318
23.13740,85137
23.14675,88110
23.15608,85623
23.16542,90762
23.17477,89382
23.18410,90181
23.19343,90354
23.20278,88748
23.21212,86356
23.22145,85059
23.23080,83427
23.24013,90848
23.24947,94022
23.25882,101618
23.26815,103755
23.27748,98448
23.28683,96730
23.29617,92395
23.30552,86582
23.31485,86516
23.32418,90330
23.33353,114010
23.34287,141434
23.35220,156460
23.36155,127761
23.37088,102308
23.38022,91391
23.38957,89251
23.39890,90740
23.40823,93880
23.41758,89767
23.42692,88003
23.43625,86217
23.44560,90795
23.45493,90112
23.46428,87305
23.47362,91477
23.48295,89407
23.49230,87400
23.50163,83743
23.51097,83379
23.52032,86206
23.52965,91139
23.53898,89694
23.54833,85424
23.55767,84607
23.56700,86451
23.57635,85443
23.58568,89966
23.59502,89806
23.60437,93088
23.61370,85904
23.62303,89041
23.63238,86225
23.64172,82829
23.65107,80875
23.66040,82861
23.66973,80521
23.67908,85119
23.68842,91065
23.69775,94918
23.70710,99245
23.71643,98131
23.72577,100211
23.73512,107858
23.74445,114044
23.75378,104166
23.76313,94748
23.77247,91816
23.78180,85172
23.79115,83829
23.80048,84111
23.80982,82124
23.81917,84854
23.82850,84184
23.83785,82764
23.84718,81056
23.85652,82734
23.86587,84107
23.87520,84012
23.88453,83070
23.89388,84605
23.90322,87569
23.91255,90737
23.92190,85876
23.93123,86337
23.94057,83233
23.94992,83468
23.95925,85002
23.96858,84757
23.97793,80757
23.98727,82533
23.99660,83296
24.00595,81926
24.01528,82458
24.02463,85571
24.03397,84560
24.04330,84716
24.05265,79976
24.06198,80792
24.07132,79421
24.08067,83988
24.09000,87236
24.09933,88676
24.10868,87892
24.11802,86710
24.12735,86100
24.13670,83226
24.14603,86435
24.15537,85855
24.16472,86205
24.17405,85870
24.18338,88130
24.19273,84835
24.20207,83124
24.21142,83823
24.22075,86402
24.23008,88809
24.23943,88687
24.24877,89532
24.25810,92484
24.26745,91274
24.27678,88006
24.28612,87417
24.29547,88592
24.30480,87005
24.31413,91214
24.32348,94602
24.33282,101115
24.34215,99833
24.35150,92988
24.36083,91767
24.37018,89113
24.37952,89398
24.38885,93836
24.39820,95119
24.40753,97066
24.41687,92561
24.42622,95635
24.43555,90993
24.44488,92191
24.45423,91017
24.46357,88010
24.47290,91849
24.48225,90216
24.49158,90729
24.50092,93008
24.51027,91720
24.51960,92452
24.52893,96295
24.53828,93413
24.54762,93514
24.55697,92614
24.56630,93625
24.57563,91166
24.58498,93421
24.59432,91748
24.60365,92940
24.61300,92975
24.62233,100869
24.63167,101625
24.64102,99781
24.65035,92630
24.65968,94439
24.66903,99336
24.67837,110581
24.68770,109530
24.69705,106884
24.70638,104073
24.71572,101148
24.72507,100204
24.73440,98538
24.74375,93950
24.75308,92182
24.76242,94277
24.77177,94811
24.78110,94939
24.79043,94586
24.79978,91087
24.80912,90567
24.81845,89527
24.82780,93084
24.83713,95086
24.84647,88251
24.85582,91642
24.86515,90020
24.87448,93288
24.88383,90483
24.89317,95414
24.90250,93116
24.91185,92035
24.92118,98818
24.93053,97157
24.93987,94596
24.94920,95877
24.95855,95312
24.96788,100137
24.97722,100650
24.98657,99581
24.99590,94453
25.00523,96046
25.01458,95268
25.02392,95264
25.03325,92997
25.04260,95023
25.05193,93844
25.06127,90911
25.07062,93045
25.07995,95945
25.08930,97084
25.09863,100350
25.10797,98147
25.11732,100213
25.12665,101328
25.13598,98198
25.14533,102409
25.15467,107232
25.16400,107511
25.17335,109418
25.18268,103147
25.19202,99642
25.20137,98278
25.21070,100889
25.22003,99111
25.22938,96530
25.23872,99661
25.24805,98980
25.25740,99972
25.26673,99700
25.27608,99718
25.28542,100016
25.29475,101550
25.30410,100974
25.31343,98799
25.32277,106308
25.33212,125751
25.34145,143457
25.35078,144632
25.36013,130681
25.36947,119998
25.37880,118662
25.38815,111422
25.39748,112499
25.40682,109946
25.41617,109096
25.42550,109395
25.43483,106218
25.44418,108880
25.45352,107613
25.46287,106273
25.47220,111308
25.48153,113416
25.49088,124098
25.50022,130336
25.50955,127603
25.51890,126680
25.52823,125864
25.53757,123189
25.54692,121880
25.55625,124111
25.56558,120679
25.57493,115051
25.58427,116953
25.59360,117957
25.60295,115393
25.61228,115146
25.62162,112685
25.63097,112413
25.64030,113689
25.64965,118969
25.65898,123778
25.66832,125572
25.67767,123705
25.68700,120758
25.69633,117459
25.70568,112166
25.71502,115979
25.72435,114482
25.73370,113049
25.74303,115725
25.75237,114296
25.76172,115953
25.77105,115455
25.78038,115142
25.78973,114883
25.79907,117830
25.80840,121065
25.81775,126722
25.82708,125048
25.83643,125476
25.84577,126348
25.85510,128028
25.86445,119817
25.87378,114911
25.88312,116675
25.89247,119486
25.90180,118224
25.91113,117214
25.92048,117151
25.92982,119717
25.93915,122514
25.94850,121564
25.95783,130761
25.96717,133831
25.97652,126564
25.98585,125567
25.99518,123546
26.00453,121480
26.01387,123857
26.02322,123446
26.03255,126235
26.04188,130299
26.05123,134161
26.06057,132988
26.06990,134517
26.07925,135551
26.08858,131134
26.09792,129367
26.10727,125599
26.11660,123819
26.12593,124953
26.13528,126503
26.14462,127412
26.15395,136230
26.16330,140539
26.17263,143961
26.18198,146934
26.19132,137894
26.20065,128438
26.21000,120303
26.21933,121287
26.22867,121441
26.23802,122968
26.24735,121708
26.25668,119100
26.26603,119714
26.27537,123925
26.28470,125302
26.29405,124304
26.30338,127677
26.31272,131529
26.32207,132036
26.33140,129338
26.34073,133749
26.35008,132207
26.35942,132921
26.36877,133543
26.37810,133382
26.38743,133180
26.39678,139829
26.40612,135034
26.41545,136499
26.42480,133264
26.43413,136563
26.44347,141505
26.45282,151077
26.46215,161134
26.47148,164218
26.48083,160615
26.49017,159542
26.49950,160674
26.50885,161741
26.51818,159812
26.52752,161337
26.53687,168019
26.54620,174495
26.55555,173733
26.56488,164250
26.57422,158839
26.58357,154402
26.59290,160058
26.60223,160799
26.61158,167332
26.62092,173018
26.63025,166920
26.63960,157627
26.64893,150916
26.65827,152810
26.66762,152054
26.67695,158175
26.68628,154256
26.69563,153048
26.70497,147956
26.71430,148593
26.72365,149224
26.73298,145818
26.74233,144494
26.75167,148928
26.76100,151458
26.77035,151939
26.77968,154392
26.78902,160598
26.79837,156609
26.80770,160303
26.81703,153757
26.82638,154496
26.83572,154532
26.84505,157902
26.85440,159935
26.86373,156503
26.87307,161143
26.88242,161054
26.89175,159317
26.90110,154458
26.91043,160165
26.91977,154226
26.92912,154048
26.93845,149179
26.94778,153269
26.95713,151402
26.96647,152595
26.97580,150109
26.98515,152350
26.99448,154199
27.00382,158385
27.01317,159986
27.02250,160747
27.03183,156679
27.04118,159595
27.05052,156909
27.05985,162923
27.06920,164696
27.07853,166264
27.08788,166408
27.09722,160536
27.10655,164338
27.11590,161490
27.12523,165080
27.13457,167766
27.14392,168642
27.15325,174768
27.16258,171484
27.17193,165367
27.18127,163805
27.19060,165321
27.19995,163346
27.20928,163566
27.21862,168144
27.22797,166605
27.23730,171023
27.24663,174462
27.25598,185813
27.26532,194678
27.27467,197575
27.28400,194294
27.29333,187843
27.30268,188672
27.31202,180401
27.32135,180120
27.33070,182832
27.34003,181836
27.34937,185366
27.35872,184173
27.36805,184815
27.37738,181864
27.38673,183380
27.39607,180120
27.40540,182246
27.41475,182900
27.42408,186663
27.43342,190139
27.44277,193241
27.45210,192861
27.46145,192964
27.47078,189761
27.48012,190191
27.48947,196833
27.49880,201067
27.50813,205851
27.51748,213663
27.52682,224617
27.53615,235775
27.54550,247809
27.55483,247627
27.56417,242813
27.57352,238087
27.58285,223538
27.59218,222006
27.60153,210782
27.61087,202966
27.62020,197308
27.62955,193528
27.63888,190486
27.64823,187129
27.65757,192235
27.66690,192157
27.67625,197792
27.68558,207162
27.69492,205178
27.70427,202206
27.71360,197051
27.72293,193098
27.73228,192756
27.74162,191081
27.75095,190056
27.76030,187297
27.76963,189524
27.77897,192270
27.78832,199049
27.79765,196110
27.80698,193211
27.81633,192919
27.82567,192491
27.83502,191583
27.84435,189086
27.85368,193043
27.86303,193462
27.87237,188505
27.88170,194743
27.89105,190865
27.90038,192455
27.90972,188402
27.91907,189443
27.92840,192082
27.93773,193926
27.94708,194505
27.95642,192020
27.96575,195841
27.97510,190958
27.98443,193422
27.99378,195995
28.00312,196810
28.01245,193090
28.02180,195804
28.03113,192707
28.04047,191326
28.04982,191695
28.05915,199391
28.06848,198703
28.07783,201914
28.08717,203020
28.09650,204690
28.10585,206283
28.11518,207341
28.12452,212844
28.13387,212087
28.14320,215714
28.15253,211461
28.16188,215977
28.17122,217039
28.18057,216072
28.18990,210773
28.19923,209602
28.20858,213206
28.21792,210810
28.22725,216103
28.23660,214690
28.24593,217030
28.25527,216368
28.26462,214900
28.27395,214172
28.28328,215757
28.29263,217846
28.30197,213785
28.31130,213127
28.32065,215108
28.32998,217888
28.33932,218036
28.34867,214382
28.35800,217720
28.36735,215330
28.37668,220307
28.38602,219435
28.39537,222378
28.40470,218626
28.41403,221164
28.42338,221745
28.43272,221658
28.44205,225891
28.45140,226139
28.46073,229702
28.47007,227831
28.47942,231972
28.48875,224559
28.49808,227870
28.50743,231651
28.51677,228106
28.52610,231150
28.53545,236428
28.54478,240667
28.55413,247429
28.56347,246392
28.57280,247603
28.58215,257638
28.59148,264985
28.60082,280632
28.61017,293876
28.61950,290922
28.62883,295931
28.63818,290633
28.64752,286562
28.65685,289792
28.66620,297286
28.67553,334959
28.68487,380838
28.69422,413643
28.70355,376301
28.71290,321377
28.72223,284291
28.73157,269073
28.74092,262776
28.75025,262498
28.75958,259912
28.76893,260005
28.77827,261246
28.78760,262556
28.79695,258210
28.80628,265475
28.81562,261728
28.82497,267746
28.83430,271270
28.84363,271275
28.85298,271688
28.86232,268685
28.87165,268579
28.88100,263636
28.89033,268832
28.89968,267359
28.90902,274586
28.91835,267270
28.92770,271182
28.93703,264511
28.94637,267133
28.95572,271570
28.96505,275237
28.97438,283983
28.98373,291524
28.99307,291451
29.00240,290454
29.01175,284101
29.02108,282174
29.03042,285437
29.03977,290233
29.04910,292141
29.05843,289955
29.06778,282784
29.07712,282895
29.08647,283882
29.09580,282182
29.10513,283503
29.11448,279562
29.12382,280340
29.13315,281164
29.14250,276799
29.15183,274122
29.16117,272744
29.17052,270112
29.17985,273499
29.18918,272600
29.19853,281110
29.20787,289740
29.21720,292667
29.22655,291590
29.23588,278977
29.24522,279236
29.25457,284448
29.26390,285136
29.27325,287860
29.28258,288273
29.29192,287234
29.30127,281145
29.31060,287080
29.31993,285054
29.32928,282375
29.33862,287026
29.34795,283771
29.35730,284896
29.36663,283006
29.37597,286863
29.38532,283128
29.39465,286648
29.40398,284472
29.41333,287377
29.42267,289481
29.43200,294825
29.44135,286169
29.45068,291572
29.46003,293355
29.46937,303886
29.47870,303449
29.48805,304636
29.49738,298589
29.50672,293867
29.51607,291582
29.52540,283062
29.53473,281312
29.54408,279215
29.55342,287414
29.56275,286300
29.57210,288380
29.58143,288028
29.59077,284653
29.60012,286552
29.60945,287353
29.61880,287793
29.62813,288324
29.63747,288515
29.64682,287023
29.65615,288846
29.66548,289088
29.67483,290825
29.68417,287721
29.69350,291727
29.70285,291960
29.71218,293406
29.72152,289218
29.73087,290263
29.74020,289610
29.74953,293274
29.75888,294195
29.76822,289025
29.77755,291316
29.78690,291955
29.79623,284534
29.80558,281985
29.81492,284039
29.82425,280880
29.83360,280019
29.84293,279056
29.85227,281652
29.86162,280061
29.87095,277768
29.88028,283846
29.88963,283132
29.89897,285819
29.90830,291250
29.91765,291959
29.92698,294380
29.93632,302838
29.94567,304193
29.95500,302737
29.96433,303346
29.97368,309432
29.98302,311938
29.99237,322086
30.00170,331836
30.01103,326819
30.02038,316600
30.02972,305401
30.03905,297076
30.04840,295942
30.05773,297859
30.06707,295044
30.07642,290339
30.08575,291313
30.09508,293882
30.10443,293198
30.11377,296284
30.12310,300014
30.13245,301318
30.14178,308955
30.15112,316802
30.16047,332972
30.16980,338296
30.17915,343602
30.18848,345691
30.19782,346853
30.20717,339686
30.21650,331375
30.22583,330285
30.23518,320955
30.24452,319837
30.25385,315802
30.26320,304951
30.27253,301276
30.28187,303887
30.29122,300822
30.30055,300996
30.30988,300408
30.31923,300551
30.32857,300788
30.33792,298045
30.34725,295862
30.35658,291723
30.36593,294331
30.37527,294559
30.38460,295316
30.39395,301258
30.40328,306465
30.41262,312435
30.42197,313129
30.43130,308851
30.44063,300570
30.44998,295942
30.45932,297997
30.46865,293215
30.47800,298283
30.48733,307537
30.49667,306018
30.50602,305005
30.51535,303728
30.52470,296916
30.53403,294040
30.54337,285526
30.55272,284832
30.56205,290962
30.57138,286117
30.58073,286552
30.59007,287228
30.59940,285382
30.60875,289647
30.61808,289239
30.62742,294783
30.63677,301702
30.64610,307311
30.65543,321215
30.66478,331476
30.67412,331466
30.68345,317729
30.69280,313851
30.70213,311178
30.71148,302686
30.72082,300345
30.73015,296448
30.73950,293729
30.74883,291059
30.75817,290676
30.76752,290948
30.77685,298061
30.78618,298669
30.79553,306928
30.80487,312768
30.81420,312253
30.82355,312488
30.83288,311992
30.84222,310413
30.85157,308116
30.86090,309381
30.87023,308088
30.87958,308392
30.88892,304286
30.89827,303926
30.90760,308255
30.91693,308351
30.92628,306219
30.93562,309936
30.94495,308808
30.95430,316584
30.96363,311524
30.97297,314977
30.98232,317937
30.99165,315651
31.00098,314199
31.01033,314870
31.01967,318198
31.02900,318974
31.03835,311470
31.04768,317047
31.05702,315013
31.06637,311430
31.07570,306056
31.08505,302584
31.09438,302545
31.10372,301430
31.11307,301572
31.12240,298960
31.13173,306353
31.14108,304381
31.15042,298851
31.15975,303274
31.16910,305558
31.17843,308570
31.18777,304999
31.19712,305675
31.20645,307965
31.21578,308777
31.22513,305784
31.23447,302330
31.24380,308599
31.25315,305892
31.26248,301437
31.27183,302881
31.28117,301769
31.29050,300786
31.29985,303247
31.30918,298879
31.31852,296280
31.32787,299344
31.33720,303512
31.34653,301251
31.35588,300701
31.36522,301139
