D:\数据\202112114\ZS1E-TJ-000109.D Tue Dec 14 17:37:15 2021
Start of data points
0.09753,28354
0.10687,27743
0.11620,28309
0.12555,29451
0.13488,28964
0.14422,28729
0.15357,28440
0.16290,27487
0.17223,29146
0.18158,28558
0.19092,28563
0.20025,27732
0.20960,28499
0.21893,27702
0.22828,26951
0.23762,28797
0.24695,28296
0.25630,28557
0.26563,27799
0.27497,26620
0.28432,27438
0.29365,27567
0.30298,27002
0.31233,27354
0.32167,27224
0.33100,27113
0.34035,28104
0.34968,27702
0.35902,27178
0.36837,27441
0.37770,28313
0.38703,28018
0.39638,26921
0.40572,27664
0.41507,22596
0.42440,18896
0.43373,18866
0.44308,12236
0.45242,7332
0.46175,6033
0.47110,5306
0.48043,5908
0.48977,6877
0.49912,6427
0.50845,5799
0.51778,6279
0.52713,6006
0.53647,5907
0.54580,5572
0.55515,6112
0.56448,5413
0.57382,6164
0.58317,5718
0.59250,5070
0.60185,5223
0.61118,5357
0.62052,5460
0.62987,5415
0.63920,5068
0.64853,5010
0.65788,5010
0.66722,4506
0.67655,4952
0.68590,5314
0.69523,4797
0.70457,4459
0.71392,4803
0.72325,4684
0.73258,4752
0.74193,5267
0.75127,5075
0.76060,5177
0.76995,4720
0.77928,4786
0.78863,4644
0.79797,4677
0.80730,4914
0.81665,5379
0.82598,4790
0.83532,4068
0.84467,4854
0.85400,4563
0.86333,5006
0.87268,5562
0.88202,5050
0.89135,4436
0.90070,4766
0.91003,4300
0.91937,4928
0.92872,5016
0.93805,4177
0.94738,4451
0.95673,4760
0.96607,5394
0.97542,4787
0.98475,5798
0.99408,4659
1.00343,4287
1.01277,4423
1.02210,4515
1.03145,4701
1.04078,4494
1.05012,4064
1.05947,4089
1.06880,4331
1.07813,4344
1.08748,4215
1.09682,4734
1.10615,4628
1.11550,4112
1.12483,4923
1.13418,4791
1.14352,4640
1.15285,5341
1.16220,4561
1.17153,4172
1.18087,4344
1.19022,4079
1.19955,4264
1.20888,4559
1.21823,4672
1.22757,4470
1.23690,5473
1.24625,4932
1.25558,4442
1.26492,4677
1.27427,4734
1.28360,4330
1.29293,4517
1.30228,4212
1.31162,4156
1.32097,4028
1.33030,4250
1.33963,4378
1.34898,4407
1.35832,4508
1.36765,4662
1.37700,4647
1.38633,4309
1.39567,4384
1.40502,4981
1.41435,4823
1.42368,4436
1.43303,4746
1.44237,4567
1.45170,4873
1.46105,4782
1.47038,4356
1.47972,4225
1.48907,3970
1.49840,4672
1.50775,4008
1.51708,3983
1.52642,3942
1.53577,4179
1.54510,4268
1.55443,4371
1.56378,4266
1.57312,4920
1.58245,7948
1.59180,15836
1.60113,23288
1.61047,27689
1.61982,36472
1.62915,51066
1.63848,60291
1.64783,61339
1.65717,54207
1.66650,44911
1.67585,39965
1.68518,34939
1.69453,26774
1.70387,21304
1.71320,20206
1.72255,23437
1.73188,25281
1.74122,28887
1.75057,33096
1.75990,36619
1.76923,37366
1.77858,37510
1.78792,36631
1.79725,39187
1.80660,37218
1.81593,37693
1.82527,38243
1.83462,36559
1.84395,35299
1.85330,36282
1.86263,34790
1.87197,41908
1.88132,57820
1.89065,96523
1.89998,139579
1.90933,167425
1.91867,206471
1.92800,358258
1.93735,702698
1.94668,1231174
1.95602,1664890
1.96537,1677850
1.97470,1366726
1.98403,997783
1.99338,729250
2.00272,570093
2.01205,488785
2.02140,461058
2.03073,413966
2.04008,314739
2.04942,223887
2.05875,159363
2.06810,126668
2.07743,97071
2.08677,77767
2.09612,72316
2.10545,65650
2.11478,66436
2.12413,68219
2.13347,84889
2.14280,144818
2.15215,175653
2.16148,152196
2.17082,122580
2.18017,110993
2.18950,153421
2.19883,211118
2.20818,177640
2.21752,114438
2.22687,96655
2.23620,124198
2.24553,206883
2.25488,915185
2.26422,2901036
2.27355,3258593
2.28290,2382538
2.29223,1468508
2.30157,1046223
2.31092,2760957
2.32025,8787277
2.32958,1.147755E+07
2.33893,7550986
2.34827,3453956
2.35760,1459136
2.36695,661194
2.37628,363321
2.38562,252296
2.39497,201752
2.40430,163281
2.41365,144985
2.42298,136050
2.43232,129356
2.44167,115680
2.45100,98821
2.46033,93595
2.46968,113169
2.47902,146832
2.48835,145136
2.49770,112626
2.50703,87779
2.51637,76119
2.52572,70886
2.53505,66480
2.54438,66436
2.55373,71584
2.56307,83339
2.57240,431729
2.58175,525084
2.59108,415249
2.60043,306759
2.60977,231817
2.61910,217514
2.62845,230933
2.63778,212936
2.64712,176648
2.65647,148699
2.66580,127279
2.67513,106397
2.68448,89091
2.69382,73853
2.70315,66878
2.71250,69445
2.72183,97585
2.73117,138064
2.74052,169678
2.74985,206691
2.75918,250431
2.76853,306315
2.77787,414779
2.78722,501775
2.79655,410978
2.80588,300627
2.81523,220420
2.82457,184529
2.83390,158840
2.84325,133296
2.85258,130769
2.86192,145402
2.87127,151409
2.88060,176894
2.88993,164037
2.89928,134557
2.90862,108616
2.91795,98139
2.92730,90392
2.93663,82125
2.94598,74788
2.95532,67870
2.96465,63147
2.97400,59992
2.98333,60111
2.99267,61161
3.00202,70143
3.01135,77907
3.02068,77752
3.03003,70964
3.03937,70329
3.04870,101303
3.05805,164866
3.06738,231099
3.07672,230791
3.08607,168161
3.09540,109909
3.10473,77372
3.11408,62076
3.12342,56278
3.13277,56825
3.14210,57460
3.15143,60635
3.16078,65843
3.17012,67882
3.17945,62699
3.18880,60818
3.19813,56294
3.20747,54622
3.21682,54253
3.22615,53869
3.23548,54008
3.24483,50500
3.25417,50499
3.26350,50302
3.27285,49760
3.28218,49043
3.29152,49352
3.30087,50002
3.31020,53752
3.31955,53831
3.32888,50244
3.33822,47751
3.34757,49192
3.35690,50892
3.36623,49723
3.37558,48182
3.38492,46131
3.39425,45574
3.40360,48784
3.41293,59267
3.42227,67332
3.43162,71347
3.44095,64208
3.45028,64252
3.45963,66902
3.46897,68163
3.47830,62940
3.48765,58912
3.49698,58088
3.50633,57154
3.51567,52070
3.52500,50401
3.53435,52145
3.54368,55412
3.55302,95541
3.56237,231788
3.57170,417759
3.58103,439308
3.59038,301970
3.59972,168761
3.60905,113865
3.61840,86002
3.62773,77675
3.63707,84689
3.64642,79914
3.65575,70002
3.66510,66645
3.67443,62938
3.68377,64453
3.69312,60643
3.70245,53886
3.71178,53080
3.72113,60595
3.73047,67290
3.73980,64907
3.74915,57995
3.75848,56223
3.76782,52367
3.77717,48187
3.78650,47405
3.79583,46875
3.80518,50216
3.81452,65717
3.82385,80387
3.83320,77936
3.84253,66222
3.85188,54148
3.86122,50467
3.87055,50123
3.87990,51534
3.88923,56035
3.89857,61649
3.90792,67092
3.91725,67590
3.92658,68987
3.93593,72103
3.94527,83704
3.95460,113289
3.96395,144791
3.97328,141403
3.98262,127191
3.99197,120544
4.00130,124896
4.01063,131430
4.01998,146253
4.02932,157296
4.03867,131270
4.04800,111164
4.05733,103275
4.06668,94362
4.07602,97724
4.08535,121067
4.09470,142563
4.10403,131649
4.11337,109591
4.12272,83403
4.13205,66486
4.14138,60193
4.15073,57130
4.16007,55607
4.16940,57036
4.17875,52295
4.18808,50811
4.19742,50323
4.20677,52300
4.21610,52820
4.22545,50831
4.23478,50748
4.24412,49295
4.25347,47339
4.26280,47685
4.27213,50846
4.28148,53164
4.29082,56394
4.30015,61891
4.30950,62122
4.31883,72436
4.32817,94823
4.33752,94291
4.34685,82284
4.35618,69019
4.36553,59649
4.37487,54619
4.38420,50120
4.39355,53788
4.40288,57753
4.41223,53757
4.42157,48763
4.43090,47151
4.44025,45582
4.44958,44576
4.45892,45141
4.46827,51024
4.47760,57461
4.48693,64390
4.49628,60871
4.50562,54278
4.51495,49125
4.52430,47820
4.53363,46551
4.54297,47191
4.55232,49399
4.56165,50983
4.57100,51068
4.58033,49649
4.58967,47894
4.59902,45833
4.60835,45632
4.61768,44759
4.62703,44626
4.63637,44333
4.64570,46735
4.65505,51529
4.66438,57905
4.67372,55345
4.68307,55691
4.69240,55649
4.70173,59122
4.71108,61104
4.72042,56164
4.72975,50245
4.73910,44091
4.74843,46177
4.75778,51055
4.76712,52898
4.77645,50441
4.78580,49710
4.79513,49582
4.80447,47066
4.81382,51002
4.82315,47646
4.83248,47816
4.84183,49584
4.85117,48184
4.86050,49536
4.86985,54103
4.87918,64804
4.88852,70504
4.89787,69190
4.90720,66874
4.91653,62734
4.92588,57070
4.93522,53599
4.94457,54047
4.95390,52562
4.96323,48249
4.97258,47015
4.98192,44789
4.99125,43143
5.00060,45236
5.00993,49705
5.01927,58721
5.02862,67166
5.03795,79374
5.04728,83222
5.05663,73124
5.06597,61058
5.07530,57005
5.08465,55495
5.09398,56654
5.10332,52866
5.11267,49246
5.12200,48776
5.13135,49389
5.14068,53237
5.15002,59714
5.15937,62746
5.16870,61961
5.17803,55075
5.18738,48983
5.19672,52593
5.20605,57014
5.21540,54501
5.22473,50856
5.23407,48715
5.24342,52750
5.25275,53285
5.26208,53463
5.27143,68786
5.28077,129708
5.29012,254481
5.29945,326993
5.30878,261456
5.31813,161610
5.32747,108004
5.33680,86981
5.34615,71267
5.35548,59039
5.36482,51491
5.37417,49886
5.38350,58332
5.39283,74949
5.40218,88344
5.41152,82702
5.42085,69798
5.43020,59539
5.43953,51634
5.44887,46431
5.45822,44649
5.46755,43482
5.47690,43813
5.48623,45010
5.49557,43719
5.50492,45985
5.51425,48752
5.52358,57501
5.53293,69486
5.54227,73515
5.55160,70767
5.56095,65090
5.57028,65859
5.57962,73337
5.58897,80354
5.59830,89866
5.60763,98811
5.61698,87162
5.62632,67032
5.63565,57445
5.64500,53444
5.65433,51766
5.66368,52391
5.67302,55168
5.68235,74597
5.69170,81631
5.70103,76582
5.71037,68347
5.71972,63105
5.72905,58580
5.73838,55931
5.74773,59988
5.75707,66187
5.76640,67449
5.77575,66257
5.78508,70649
5.79442,70798
5.80377,65190
5.81310,57085
5.82243,55438
5.83178,62838
5.84112,71143
5.85047,64683
5.85980,50173
5.86913,41900
5.87848,36189
5.88782,33499
5.89715,32185
5.90650,45612
5.91583,112160
5.92517,261007
5.93452,365296
5.94385,279693
5.95318,156759
5.96253,104130
5.97187,80164
5.98120,61548
5.99055,44296
5.99988,34410
6.00922,28271
6.01857,26455
6.02790,22752
6.03725,23830
6.04658,26114
6.05592,25769
6.06527,25942
6.07460,26869
6.08393,25003
6.09328,22127
6.10262,20901
6.11195,21680
6.12130,25858
6.13063,45244
6.13997,68000
6.14932,75063
6.15865,54406
6.16798,33254
6.17733,23703
6.18667,21617
6.19602,20787
6.20535,20120
6.21468,19300
6.22403,20283
6.23337,21915
6.24270,23714
6.25205,23638
6.26138,21320
6.27072,20321
6.28007,26161
6.28940,33882
6.29873,33290
6.30808,26879
6.31742,20949
6.32675,18241
6.33610,18380
6.34543,17241
6.35477,18731
6.36412,18636
6.37345,20142
6.38280,29062
6.39213,55262
6.40147,187640
6.41082,631937
6.42015,1196481
6.42948,1178091
6.43883,660693
6.44817,237955
6.45750,79964
6.46685,38919
6.47618,28571
6.48552,27170
6.49487,24877
6.50420,22782
6.51353,22683
6.52288,21883
6.53222,21885
6.54155,21273
6.55090,19377
6.56023,20507
6.56958,19145
6.57892,17976
6.58825,21785
6.59760,24284
6.60693,26892
6.61627,27030
6.62562,25506
6.63495,23933
6.64428,24260
6.65363,24935
6.66297,23833
6.67230,26736
6.68165,25274
6.69098,22688
6.70032,22793
6.70967,32659
6.71900,45974
6.72833,51703
6.73768,44823
6.74702,35885
6.75637,29853
6.76570,26843
6.77503,23489
6.78438,26467
6.79372,29035
6.80305,33582
6.81240,34681
6.82173,29125
6.83107,24982
6.84042,24035
6.84975,23579
6.85908,26642
6.86843,27127
6.87777,23903
6.88710,21949
6.89645,21989
6.90578,21968
6.91513,27612
6.92447,35357
6.93380,41640
6.94315,40156
6.95248,33016
6.96182,28931
6.97117,28318
6.98050,26879
6.98983,26478
6.99918,25310
7.00852,21983
7.01785,22992
7.02720,21158
7.03653,20674
7.04587,15933
7.05522,17077
7.06455,15703
7.07388,15776
7.08323,17592
7.09257,18260
7.10192,20788
7.11125,24813
7.12058,25437
7.12993,26901
7.13927,23920
7.14860,20589
7.15795,18412
7.16728,18338
7.17662,18919
7.18597,18965
7.19530,19428
7.20463,19946
7.21398,20720
7.22332,23244
7.23265,37790
7.24200,68167
7.25133,89105
7.26067,74664
7.27002,51351
7.27935,37756
7.28870,34236
7.29803,31796
7.30737,28277
7.31672,21420
7.32605,18999
7.33538,17507
7.34473,18707
7.35407,17331
7.36340,17992
7.37275,19254
7.38208,18528
7.39142,28919
7.40077,62386
7.41010,122844
7.41943,163103
7.42878,144531
7.43812,90637
7.44745,51081
7.45680,32056
7.46613,21315
7.47548,19526
7.48482,18941
7.49415,21942
7.50350,26586
7.51283,26765
7.52217,23702
7.53152,20091
7.54085,17768
7.55018,18627
7.55953,18791
7.56887,19756
7.57820,21041
7.58755,22481
7.59688,23838
7.60622,23366
7.61557,25359
7.62490,26269
7.63423,26937
7.64358,26622
7.65292,23629
7.66227,22200
7.67160,19509
7.68093,19886
7.69028,21118
7.69962,21754
7.70895,22147
7.71830,24157
7.72763,23312
7.73697,23012
7.74632,26204
7.75565,29685
7.76498,28977
7.77433,29597
7.78367,27416
7.79300,26992
7.80235,26407
7.81168,23179
7.82102,21766
7.83037,20893
7.83970,20905
7.84905,23527
7.85838,35759
7.86772,62052
7.87707,87272
7.88640,85386
7.89573,63864
7.90508,46527
7.91442,57326
7.92375,84906
7.93310,93569
7.94243,66653
7.95177,40034
7.96112,33673
7.97045,43945
7.97978,59137
7.98913,69033
7.99847,70383
8.00782,53579
8.01715,38782
8.02648,33286
8.03583,34446
8.04517,46301
8.05450,55002
8.06385,49458
8.07318,34459
8.08252,28956
8.09187,31396
8.10120,44949
8.11053,56454
8.11988,50929
8.12922,36075
8.13855,29606
8.14790,24973
8.15723,24833
8.16657,23904
8.17592,23037
8.18525,23214
8.19460,23463
8.20393,23261
8.21327,23182
8.22262,23598
8.23195,21165
8.24128,21769
8.25063,25530
8.25997,26980
8.26930,26226
8.27865,24954
8.28798,22625
8.29732,21754
8.30667,21825
8.31600,21323
8.32533,21454
8.33468,21166
8.34402,20595
8.35335,22947
8.36270,20369
8.37203,20943
8.38138,21358
8.39072,21087
8.40005,25795
8.40940,30880
8.41873,33649
8.42807,31142
8.43742,30473
8.44675,29902
8.45608,27519
8.46543,29678
8.47477,30415
8.48410,30279
8.49345,29565
8.50278,28590
8.51212,27634
8.52147,23804
8.53080,24163
8.54013,24377
8.54948,27873
8.55882,32824
8.56817,32657
8.57750,30687
8.58683,27853
8.59618,27613
8.60552,31189
8.61485,32803
8.62420,32019
8.63353,29419
8.64287,28362
8.65222,34797
8.66155,50332
8.67088,56474
8.68023,47923
8.68957,35086
8.69890,29334
8.70825,29098
8.71758,27027
8.72693,23975
8.73627,24866
8.74560,32936
8.75495,46084
8.76428,55130
8.77362,47184
8.78297,37671
8.79230,44648
8.80163,99811
8.81098,216233
8.82032,289883
8.82965,222765
8.83900,108255
8.84833,45999
8.85767,28183
8.86702,30082
8.87635,31388
8.88568,33433
8.89503,33762
8.90437,32006
8.91372,31032
8.92305,29705
8.93238,32127
8.94173,33550
8.95107,31065
8.96040,27620
8.96975,28239
8.97908,30913
8.98842,32183
8.99777,30356
9.00710,28331
9.01643,31635
9.02578,31227
9.03512,29105
9.04445,29145
9.05380,30178
9.06313,31918
9.07247,34626
9.08182,42850
9.09115,52532
9.10050,55378
9.10983,48396
9.11917,42602
9.12852,58679
9.13785,87876
9.14718,104297
9.15653,82645
9.16587,48392
9.17520,33533
9.18455,31411
9.19388,30706
9.20322,34388
9.21257,41911
9.22190,68827
9.23123,112713
9.24058,135925
9.24992,110323
9.25925,71334
9.26860,45999
9.27793,36852
9.28728,33077
9.29662,28884
9.30595,29179
9.31530,34767
9.32463,46971
9.33397,78117
9.34332,89716
9.35265,69105
9.36198,68164
9.37133,127046
9.38067,214683
9.39000,216380
9.39935,156920
9.40868,99386
9.41802,72795
9.42737,63112
9.43670,60097
9.44603,46963
9.45538,33428
9.46472,30127
9.47407,27991
9.48340,28501
9.49273,30271
9.50208,36266
9.51142,37058
9.52075,30189
9.53010,29893
9.53943,36343
9.54877,43520
9.55812,59593
9.56745,84272
9.57678,94883
9.58613,68789
9.59547,50278
9.60480,59362
9.61415,65801
9.62348,52359
9.63283,36431
9.64217,33989
9.65150,40421
9.66085,50228
9.67018,55341
9.67952,49321
9.68887,37736
9.69820,33954
9.70753,31282
9.71688,33772
9.72622,59443
9.73555,166640
9.74490,397057
9.75423,562454
9.76357,471705
9.77292,265262
9.78225,142069
9.79158,92136
9.80093,75695
9.81027,60658
9.81962,62451
9.82895,76522
9.83828,95036
9.84763,111761
9.85697,113116
9.86630,89997
9.87565,67494
9.88498,63443
9.89432,76961
9.90367,83480
9.91300,72518
9.92233,62571
9.93168,62753
9.94102,60901
9.95035,51127
9.95970,40832
9.96903,41577
9.97837,69559
9.98772,152666
9.99705,244230
10.00640,225887
10.01573,138915
10.02507,75768
10.03442,47430
10.04375,41039
10.05308,39066
10.06243,45555
10.07177,54855
10.08110,67590
10.09045,62516
10.09978,50069
10.10912,52849
10.11847,110926
10.12780,277356
10.13713,465063
10.14648,508295
10.15582,1065954
10.16515,2947572
10.17450,4731627
10.18383,3731124
10.19318,1434686
10.20252,297813
10.21185,73373
10.22120,47278
10.23053,45513
10.23987,48392
10.24922,62556
10.25855,64909
10.26788,53986
10.27723,42033
10.28657,40565
10.29590,42946
10.30525,43447
10.31458,42224
10.32392,36693
10.33327,31652
10.34260,30981
10.35195,30737
10.36128,31010
10.37062,32865
10.37997,32544
10.38930,29855
10.39863,29221
10.40798,28236
10.41732,32836
10.42665,35338
10.43600,40883
10.44533,39383
10.45467,40172
10.46402,44000
10.47335,48614
10.48268,43646
10.49203,37105
10.50137,31050
10.51070,27014
10.52005,27791
10.52938,28972
10.53873,28314
10.54807,30444
10.55740,34296
10.56675,36564
10.57608,39044
10.58542,38691
10.59477,34740
10.60410,29822
10.61343,28175
10.62278,29712
10.63212,40210
10.64145,54642
10.65080,54682
10.66013,40428
10.66947,33974
10.67882,34221
10.68815,39082
10.69748,40654
10.70683,41170
10.71617,52421
10.72552,69787
10.73485,66020
10.74418,53188
10.75353,55488
10.76287,100047
10.77220,141149
10.78155,133567
10.79088,127628
10.80022,201963
10.80957,347678
10.81890,375133
10.82823,246678
10.83758,125830
10.84692,67586
10.85625,43300
10.86560,38942
10.87493,51549
10.88427,78166
10.89362,91243
10.90295,71562
10.91230,51907
10.92163,41621
10.93097,44939
10.94032,47954
10.94965,48813
10.95898,46745
10.96833,44803
10.97767,38393
10.98700,34917
10.99635,30541
11.00568,31808
11.01502,29938
11.02437,29489
11.03370,27844
11.04303,27343
11.05238,28990
11.06172,26676
11.07105,25728
11.08040,27493
11.08973,27267
11.09908,29591
11.10842,37976
11.11775,51773
11.12710,51935
11.13643,44172
11.14577,38083
11.15512,34690
11.16445,39121
11.17378,45888
11.18313,62565
11.19247,71101
11.20180,59758
11.21115,48969
11.22048,53576
11.22982,56710
11.23917,48272
11.24850,34998
11.25783,34846
11.26718,38444
11.27652,43228
11.28587,38884
11.29520,36411
11.30453,33984
11.31388,31681
11.32322,29470
11.33255,34775
11.34190,48922
11.35123,70676
11.36057,85812
11.36992,78036
11.37925,56060
11.38858,43782
11.39793,44199
11.40727,60075
11.41660,68850
11.42595,64588
11.43528,48991
11.44463,35589
11.45397,33301
11.46330,41036
11.47265,60613
11.48198,69709
11.49132,55556
11.50067,36739
11.51000,30171
11.51933,28184
11.52868,27850
11.53802,26781
11.54735,26178
11.55670,31165
11.56603,47173
11.57537,91818
11.58472,138056
11.59405,140684
11.60338,108746
11.61273,78285
11.62207,66040
11.63142,61622
11.64075,62557
11.65008,78778
11.65943,105441
11.66877,113891
11.67810,91442
11.68745,66637
11.69678,50527
11.70612,42634
11.71547,42642
11.72480,38957
11.73413,37663
11.74348,36034
11.75282,36912
11.76215,36244
11.77150,36387
11.78083,39459
11.79017,45887
11.79952,49166
11.80885,43528
11.81820,39084
11.82753,40451
11.83687,41595
11.84622,40238
11.85555,38445
11.86488,37741
11.87423,40571
11.88357,41952
11.89290,45604
11.90225,44468
11.91158,41664
11.92092,39707
11.93027,36185
11.93960,40155
11.94893,56071
11.95828,63226
11.96762,54064
11.97695,40629
11.98630,35070
11.99563,34633
12.00498,41685
12.01432,61727
12.02365,76043
12.03300,72039
12.04233,56268
12.05167,46394
12.06102,40287
12.07035,36231
12.07968,34481
12.08903,32264
12.09837,34386
12.10770,35832
12.11705,34111
12.12638,33405
12.13572,34628
12.14507,35020
12.15440,34385
12.16375,41647
12.17308,71618
12.18242,123617
12.19177,140215
12.20110,119210
12.21043,90851
12.21978,67751
12.22912,62414
12.23845,69208
12.24780,64333
12.25713,48898
12.26647,47849
12.27582,73775
12.28515,122266
12.29448,133766
12.30383,94111
12.31317,55633
12.32250,40590
12.33185,41682
12.34118,50363
12.35053,53697
12.35987,46788
12.36920,38808
12.37855,38628
12.38788,44557
12.39722,54263
12.40657,54633
12.41590,48797
12.42523,40707
12.43458,36625
12.44392,36091
12.45325,33768
12.46260,35732
12.47193,40084
12.48127,47618
12.49062,46051
12.49995,45992
12.50928,45365
12.51863,44631
12.52797,42462
12.53732,42826
12.54665,42952
12.55598,42522
12.56533,53342
12.57467,60837
12.58400,57395
12.59335,45857
12.60268,38042
12.61202,39178
12.62137,49554
12.63070,77985
12.64003,109036
12.64938,120290
12.65872,124946
12.66805,139909
12.67740,137626
12.68673,102046
12.69607,57933
12.70542,40055
12.71475,38119
12.72410,45541
12.73343,47868
12.74277,44087
12.75212,41376
12.76145,43611
12.77078,44147
12.78013,37268
12.78947,31730
12.79880,32719
12.80815,33261
12.81748,35391
12.82682,35681
12.83617,34827
12.84550,34722
12.85483,32532
12.86418,30597
12.87352,30869
12.88285,30494
12.89220,31297
12.90153,33990
12.91088,34935
12.92022,32414
12.92955,31136
12.93890,30357
12.94823,31961
12.95757,33192
12.96692,34275
12.97625,30930
12.98558,30385
12.99493,27654
13.00427,29176
13.01360,33273
13.02295,37356
13.03228,45424
13.04162,52785
13.05097,47002
13.06030,41479
13.06963,39730
13.07898,45727
13.08832,45067
13.09767,43147
13.10700,38363
13.11633,36996
13.12568,34825
13.13502,39499
13.14435,45045
13.15370,47739
13.16303,49102
13.17237,51303
13.18172,50937
13.19105,52577
13.20038,84883
13.20973,178702
13.21907,298295
13.22840,304414
13.23775,196532
13.24708,133618
13.25643,119013
13.26577,98989
13.27510,72218
13.28445,56651
13.29378,49558
13.30312,54160
13.31247,71523
13.32180,89126
13.33113,87814
13.34048,66728
13.34982,55159
13.35915,46819
13.36850,42839
13.37783,40382
13.38717,37473
13.39652,47745
13.40585,57850
13.41518,56130
13.42453,45116
13.43387,39786
13.44322,45763
13.45255,51969
13.46188,47085
13.47123,44460
13.48057,55167
13.48990,73205
13.49925,88494
13.50858,90031
13.51792,80893
13.52727,107482
13.53660,128557
13.54593,106421
13.55528,66358
13.56462,41933
13.57395,35780
13.58330,34794
13.59263,34328
13.60197,33001
13.61132,34089
13.62065,37996
13.63000,60796
13.63933,153791
13.64867,302220
13.65802,351841
13.66735,243570
13.67668,128773
13.68603,66631
13.69537,45418
13.70470,37833
13.71405,34808
13.72338,33878
13.73272,33318
13.74207,33676
13.75140,35056
13.76073,41246
13.77008,48591
13.77942,53354
13.78875,46270
13.79810,40852
13.80743,41134
13.81678,45400
13.82612,43885
13.83545,36739
13.84480,34650
13.85413,34253
13.86347,37223
13.87282,41583
13.88215,47705
13.89148,60084
13.90083,83464
13.91017,150075
13.91950,261604
13.92885,331440
13.93818,238070
13.94752,113739
13.95687,60356
13.96620,49783
13.97555,49413
13.98488,44130
13.99422,46579
14.00357,59818
14.01290,67514
14.02223,63493
14.03158,51841
14.04092,55596
14.05025,221023
14.05960,1273087
14.06893,4281156
14.07827,7760961
14.08762,7484846
14.09695,3271007
14.10628,696556
14.11563,133550
14.12497,78338
14.13430,66527
14.14365,58189
14.15298,54618
14.16233,55369
14.17167,61499
14.18100,62040
14.19035,64328
14.19968,70663
14.20902,76923
14.21837,61465
14.22770,41399
14.23703,34744
14.24638,31633
14.25572,31574
14.26505,34675
14.27440,39468
14.28373,42384
14.29307,38779
14.30242,34553
14.31175,35916
14.32108,47295
14.33043,68468
14.33977,76198
14.34912,67260
14.35845,50238
14.36778,43993
14.37713,42304
14.38647,38642
14.39580,39085
14.40515,37184
14.41448,35353
14.42382,31776
14.43317,31126
14.44250,36343
14.45183,53404
14.46118,89155
14.47052,123257
14.47985,122087
14.48920,88359
14.49853,58450
14.50787,43356
14.51722,36799
14.52655,33184
14.53590,31745
14.54523,33660
14.55457,35812
14.56392,38944
14.57325,40517
14.58258,38074
14.59193,37185
14.60127,37142
14.61060,36346
14.61995,40230
14.62928,48877
14.63862,56551
14.64797,61095
14.65730,74800
14.66663,83140
14.67598,70611
14.68532,56125
14.69465,43870
14.70400,40615
14.71333,35518
14.72268,35739
14.73202,36246
14.74135,39909
14.75070,38720
14.76003,37335
14.76937,38931
14.77872,38518
14.78805,42218
14.79738,41383
14.80673,39447
14.81607,37500
14.82540,37356
14.83475,37875
14.84408,37078
14.85342,38427
14.86277,44266
14.87210,56762
14.88145,67301
14.89078,60190
14.90012,46322
14.90947,39388
14.91880,37435
14.92813,36941
14.93748,36083
14.94682,34756
14.95615,36864
14.96550,42119
14.97483,49704
14.98417,52372
14.99352,46371
15.00285,44298
15.01218,49568
15.02153,51691
15.03087,47624
15.04020,44914
15.04955,47188
15.05888,53940
15.06823,54934
15.07757,56805
15.08690,57926
15.09625,55303
15.10558,55781
15.11492,49166
15.12427,49107
15.13360,59160
15.14293,61877
15.15228,54322
15.16162,41823
15.17095,35896
15.18030,35597
15.18963,37897
15.19897,46449
15.20832,68157
15.21765,97887
15.22698,123869
15.23633,113042
15.24567,83057
15.25502,56473
15.26435,43568
15.27368,39367
15.28303,39514
15.29237,39328
15.30170,39280
15.31105,38746
15.32038,38779
15.32972,42660
15.33907,48775
15.34840,50165
15.35773,46544
15.36708,46922
15.37642,53998
15.38575,55283
15.39510,46629
15.40443,38012
15.41377,34381
15.42312,38895
15.43245,42061
15.44180,43980
15.45113,38450
15.46047,35776
15.46982,34635
15.47915,35873
15.48848,38623
15.49783,44197
15.50717,52284
15.51650,80251
15.52585,100750
15.53518,95955
15.54452,71437
15.55387,48203
15.56320,35791
15.57253,34570
15.58188,33788
15.59122,35080
15.60057,36144
15.60990,36846
15.61923,40321
15.62858,40484
15.63792,47196
15.64725,54685
15.65660,59678
15.66593,84286
15.67527,215103
15.68462,624850
15.69395,1154584
15.70328,1234482
15.71263,770025
15.72197,305750
15.73130,116601
15.74065,68597
15.74998,64839
15.75932,69939
15.76867,73453
15.77800,66384
15.78735,58649
15.79668,53096
15.80602,70655
15.81537,145673
15.82470,312207
15.83403,501804
15.84338,595692
15.85272,492387
15.86205,300325
15.87140,151274
15.88073,93184
15.89007,88228
15.89942,94961
15.90875,101158
15.91808,90781
15.92743,70118
15.93677,56731
15.94610,46800
15.95545,44936
15.96478,45546
15.97413,51581
15.98347,62379
15.99280,79370
16.00215,90021
16.01148,83544
16.02082,58403
16.03017,47461
16.03950,44579
16.04883,43248
16.05818,45816
16.06752,46493
16.07685,47577
16.08620,46799
16.09553,44612
16.10487,49817
16.11422,55871
16.12355,62458
16.13288,61416
16.14223,52573
16.15157,46778
16.16092,45327
16.17025,43670
16.17958,41488
16.18893,42969
16.19827,44175
16.20760,53304
16.21695,56299
16.22628,56620
16.23562,53351
16.24497,51452
16.25430,48304
16.26363,48206
16.27298,49049
16.28232,68579
16.29165,115018
16.30100,203091
16.31033,237963
16.31967,186360
16.32902,98902
16.33835,58545
16.34770,43793
16.35703,38369
16.36637,33676
16.37572,34806
16.38505,32934
16.39438,34609
16.40373,37661
16.41307,38127
16.42240,39831
16.43175,38995
16.44108,37839
16.45042,42164
16.45977,48075
16.46910,56018
16.47843,50101
16.48778,47438
16.49712,46945
16.50645,44600
16.51580,44926
16.52513,45964
16.53448,44139
16.54382,43351
16.55315,39993
16.56250,38499
16.57183,36172
16.58117,39320
16.59052,44436
16.59985,44904
16.60918,42028
16.61853,45003
16.62787,49100
16.63720,56128
16.64655,55864
16.65588,49617
16.66522,46373
16.67457,43178
16.68390,41199
16.69325,48463
16.70258,58090
16.71192,59988
16.72127,50534
16.73060,40918
16.73993,50354
16.74928,83513
16.75862,124141
16.76795,116603
16.77730,73421
16.78663,46998
16.79597,40075
16.80532,39558
16.81465,43027
16.82398,49016
16.83333,54164
16.84267,57369
16.85200,51663
16.86135,47609
16.87068,40642
16.88003,39432
16.88937,39882
16.89870,40441
16.90805,50404
16.91738,61342
16.92672,68037
16.93607,63571
16.94540,55747
16.95473,59121
16.96408,61214
16.97342,62314
16.98275,57076
16.99210,47842
17.00143,40303
17.01077,37974
17.02012,41747
17.02945,61204
17.03878,88536
17.04813,94657
17.05747,71713
17.06682,53114
17.07615,49083
17.08548,44357
17.09483,43824
17.10417,42501
17.11350,39228
17.12285,39752
17.13218,40479
17.14152,45872
17.15087,45844
17.16020,42428
17.16953,38816
17.17888,38032
17.18822,38773
17.19755,42014
17.20690,38186
17.21623,33886
17.22557,36231
17.23492,34888
17.24425,35941
17.25360,37897
17.26293,42143
17.27227,47439
17.28162,49134
17.29095,53960
17.30028,54442
17.30963,57656
17.31897,56354
17.32830,55001
17.33765,50608
17.34698,44375
17.35632,39487
17.36567,39826
17.37500,56348
17.38433,114865
17.39368,188848
17.40302,186786
17.41237,118187
17.42170,66269
17.43103,48990
17.44038,46671
17.44972,45903
17.45905,47105
17.46840,47451
17.47773,50432
17.48707,65291
17.49642,204164
17.50575,904432
17.51508,2386217
17.52443,3226164
17.53377,2214357
17.54310,791335
17.55245,179011
17.56178,67744
17.57112,55986
17.58047,56104
17.58980,62161
17.59915,59422
17.60848,51830
17.61782,44037
17.62717,44054
17.63650,43129
17.64583,42431
17.65518,46626
17.66452,52189
17.67385,59643
17.68320,61839
17.69253,69884
17.70187,80025
17.71122,106816
17.72055,168899
17.72988,213413
17.73923,165305
17.74857,96441
17.75790,65395
17.76725,62675
17.77658,65358
17.78593,62096
17.79527,55625
17.80460,54217
17.81395,52516
17.82328,44941
17.83262,46691
17.84197,47274
17.85130,51558
17.86063,58084
17.86998,69630
17.87932,70585
17.88865,62570
17.89800,56152
17.90733,51822
17.91667,46055
17.92602,43592
17.93535,46414
17.94468,45917
17.95403,43816
17.96337,42208
17.97272,41988
17.98205,41662
17.99138,40631
18.00073,40097
18.01007,39945
18.01940,41681
18.02875,43805
18.03808,46231
18.04742,56021
18.05677,79705
18.06610,102260
18.07543,87436
18.08478,63219
18.09412,51770
18.10345,51570
18.11280,64098
18.12213,68737
18.13147,65082
18.14082,56380
18.15015,55066
18.15950,51904
18.16883,48934
18.17817,49279
18.18752,48356
18.19685,47932
18.20618,46637
18.21553,49129
18.22487,53838
18.23420,53138
18.24355,49024
18.25288,44157
18.26222,41498
18.27157,43276
18.28090,47917
18.29023,53824
18.29958,58879
18.30892,59948
18.31827,61103
18.32760,57857
18.33693,56587
18.34628,63644
18.35562,70364
18.36495,75059
18.37430,74067
18.38363,69992
18.39297,62973
18.40232,57490
18.41165,55035
18.42098,49991
18.43033,48913
18.43967,50106
18.44900,60450
18.45835,63294
18.46768,58626
18.47702,54666
18.48637,53716
18.49570,63413
18.50505,81314
18.51438,101851
18.52372,121764
18.53307,196852
18.54240,400174
18.55173,631947
18.56108,605245
18.57042,327750
18.57975,123804
18.58910,63133
18.59843,54002
18.60777,56144
18.61712,63726
18.62645,67463
18.63578,64863
18.64513,61407
18.65447,58087
18.66380,54115
18.67315,50213
18.68248,49238
18.69183,50935
18.70117,54985
18.71050,58434
18.71985,62367
18.72918,65278
18.73852,63085
18.74787,60648
18.75720,54135
18.76653,51010
18.77588,45263
18.78522,42904
18.79455,43090
18.80390,43393
18.81323,45669
18.82257,48428
18.83192,46911
18.84125,45118
18.85058,43072
18.85993,42215
18.86927,41446
18.87862,43579
18.88795,42899
18.89728,46606
18.90663,57927
18.91597,72940
18.92530,86053
18.93465,98804
18.94398,127319
18.95332,146980
18.96267,124222
18.97200,98278
18.98133,81734
18.99068,69082
19.00002,60054
19.00935,58228
19.01870,67633
19.02803,69667
19.03738,71306
19.04672,76262
19.05605,97001
19.06540,115239
19.07473,127318
19.08407,148712
19.09342,177323
19.10275,159744
19.11208,125396
19.12143,118439
19.13077,161879
19.14010,179825
19.14945,137964
19.15878,75226
19.16812,48021
19.17747,42538
19.18680,45248
19.19613,49945
19.20548,56116
19.21482,59919
19.22417,61699
19.23350,64247
19.24283,69012
19.25218,67885
19.26152,63494
19.27085,68837
19.28020,75180
19.28953,79450
19.29887,85102
19.30822,89767
19.31755,103457
19.32688,107275
19.33623,106192
19.34557,95780
19.35490,82612
19.36425,62431
19.37358,58128
19.38292,65989
19.39227,69868
19.40160,88514
19.41095,105194
19.42028,97555
19.42962,72625
19.43897,50990
19.44830,41814
19.45763,42512
19.46698,42385
19.47632,45857
19.48565,50714
19.49500,56017
19.50433,56264
19.51367,50953
19.52302,46610
19.53235,44585
19.54168,44282
19.55103,42967
19.56037,40775
19.56970,47319
19.57905,65118
19.58838,84752
19.59773,89629
19.60707,78074
19.61640,64376
19.62575,60473
19.63508,64112
19.64442,64827
19.65377,62037
19.66310,53107
19.67243,46840
19.68178,42655
19.69112,51702
19.70045,53348
19.70980,56738
19.71913,63356
19.72847,74316
19.73782,89346
19.74715,93197
19.75648,70858
19.76583,60589
19.77517,57106
19.78452,58964
19.79385,56647
19.80318,55028
19.81253,48006
19.82187,47672
19.83120,45553
19.84055,45125
19.84988,42506
19.85922,45737
19.86857,53507
19.87790,69133
19.88723,87432
19.89658,81777
19.90592,63550
19.91525,53788
19.92460,51751
19.93393,50419
19.94327,46819
19.95262,45000
19.96195,46274
19.97130,49019
19.98063,45885
19.98997,46001
19.99932,41960
20.00865,42351
20.01798,43642
20.02733,47597
20.03667,49092
20.04600,51429
20.05535,52301
20.06468,50965
20.07402,49548
20.08337,51506
20.09270,51887
20.10203,48822
20.11138,42568
20.12072,40861
20.13007,39534
20.13940,41068
20.14873,46702
20.15808,56207
20.16742,60059
20.17675,57780
20.18610,49795
20.19543,43364
20.20477,44664
20.21412,46380
20.22345,51164
20.23278,74065
20.24213,204779
20.25147,512128
20.26080,676301
20.27015,461559
20.27948,187764
20.28882,77305
20.29817,52594
20.30750,46616
20.31685,43488
20.32618,40960
20.33552,37058
20.34487,35709
20.35420,39053
20.36353,42603
20.37288,42154
20.38222,44413
20.39155,41701
20.40090,40747
20.41023,40138
20.41957,37690
20.42892,41756
20.43825,42819
20.44758,43423
20.45693,42923
20.46627,47944
20.47560,57600
20.48495,60685
20.49428,53817
20.50363,48757
20.51297,46244
20.52230,45576
20.53165,44974
20.54098,44605
20.55032,46644
20.55967,54915
20.56900,108314
20.57833,240871
20.58768,361495
20.59702,303922
20.60635,160979
20.61570,78793
20.62503,58407
20.63437,55857
20.64372,59383
20.65305,67967
20.66238,66673
20.67173,58338
20.68107,52060
20.69042,49094
20.69975,48008
20.70908,48447
20.71843,50901
20.72777,52716
20.73710,53345
20.74645,53422
20.75578,48411
20.76512,44714
20.77447,42631
20.78380,41096
20.79313,46187
20.80248,51896
20.81182,54594
20.82115,49767
20.83050,49695
20.83983,45971
20.84918,44725
20.85852,41026
20.86785,40504
20.87720,39204
20.88653,40048
20.89587,41155
20.90522,50426
20.91455,50106
20.92388,46026
20.93323,43917
20.94257,43528
20.95190,39919
20.96125,40952
20.97058,40817
20.97992,38793
20.98927,38895
20.99860,38173
21.00793,40925
21.01728,42005
21.02662,38928
21.03597,43238
21.04530,45508
21.05463,47693
21.06398,45896
21.07332,44670
21.08265,41785
21.09200,40833
21.10133,43201
21.11067,43129
21.12002,45975
21.12935,46336
21.13868,45270
21.14803,43978
21.15737,46567
21.16670,46899
21.17605,58081
21.18538,75214
21.19472,85175
21.20407,77759
21.21340,63650
21.22275,51979
21.23208,50260
21.24142,52866
21.25077,55953
21.26010,61314
21.26943,61345
21.27878,62265
21.28812,64927
21.29745,67686
21.30680,60681
21.31613,53579
21.32547,47642
21.33482,46833
21.34415,49369
21.35348,46693
21.36283,48374
21.37217,45726
21.38150,43172
21.39085,45820
21.40018,45858
21.40953,47941
21.41887,53780
21.42820,52413
21.43755,51290
21.44688,50214
21.45622,53216
21.46557,51326
21.47490,49549
21.48423,48869
21.49358,55150
21.50292,55029
21.51225,50399
21.52160,50632
21.53093,46575
21.54027,46131
21.54962,46187
21.55895,51247
21.56828,68852
21.57763,91821
21.58697,97552
21.59632,84473
21.60565,63816
21.61498,54476
21.62433,51535
21.63367,50930
21.64300,48778
21.65235,48465
21.66168,43533
21.67102,45490
21.68037,52116
21.68970,55721
21.69903,55125
21.70838,54437
21.71772,56323
21.72705,66349
21.73640,74507
21.74573,75069
21.75507,77321
21.76442,90547
21.77375,101925
21.78310,90173
21.79243,70339
21.80177,57740
21.81112,60609
21.82045,62947
21.82978,64976
21.83913,62740
21.84847,55823
21.85780,50783
21.86715,48475
21.87648,49728
21.88582,53246
21.89517,54879
21.90450,58856
21.91383,55280
21.92318,51912
21.93252,46468
21.94187,47513
21.95120,47371
21.96053,49566
21.96988,54972
21.97922,62232
21.98855,73248
21.99790,85233
22.00723,81236
22.01657,67236
22.02592,55458
22.03525,51137
22.04458,55558
22.05393,59170
22.06327,59020
22.07260,60082
22.08195,61175
22.09128,63983
22.10062,61012
22.10997,56452
22.11930,51740
22.12865,50382
22.13798,46380
22.14732,48057
22.15667,54667
22.16600,68175
22.17533,74765
22.18468,74052
22.19402,64334
22.20335,55118
22.21270,51585
22.22203,54379
22.23137,55440
22.24072,56877
22.25005,56502
22.25938,53344
22.26873,55962
22.27807,63870
22.28740,70112
22.29675,77626
22.30608,75538
22.31543,67099
22.32477,58722
22.33410,55777
22.34345,55040
22.35278,63100
22.36212,65149
22.37147,70522
22.38080,69307
22.39013,70951
22.39948,68468
22.40882,61639
22.41815,60635
22.42750,61151
22.43683,69733
22.44617,69609
22.45552,71152
22.46485,66949
22.47418,67661
22.48353,69351
22.49287,73179
22.50222,97198
22.51155,161071
22.52088,239158
22.53023,225169
22.53957,150106
22.54890,100173
22.55825,82807
22.56758,81672
22.57692,88181
22.58627,94925
22.59560,92766
22.60493,90469
22.61428,94018
22.62362,91700
22.63295,91301
22.64230,86727
22.65163,83451
22.66098,78671
22.67032,76880
22.67965,78544
22.68900,85647
22.69833,92149
22.70767,89217
22.71702,80985
22.72635,75786
22.73568,78193
22.74503,80798
22.75437,81385
22.76370,77206
22.77305,72604
22.78238,67715
22.79172,64715
22.80107,67311
22.81040,73153
22.81973,71446
22.82908,65966
22.83842,66058
22.84777,64034
22.85710,61803
22.86643,60791
22.87578,58473
22.88512,59526
22.89445,57819
22.90380,57755
22.91313,57784
22.92247,59583
22.93182,61581
22.94115,59004
22.95048,58034
22.95983,55284
22.96917,56968
22.97850,51158
22.98785,50633
22.99718,47477
23.00652,47995
23.01587,47539
23.02520,46059
23.03455,46871
23.04388,47851
23.05322,46836
23.06257,50072
23.07190,47998
23.08123,46719
23.09058,45283
23.09992,46568
23.10925,44249
23.11860,43883
23.12793,44145
23.13727,45417
23.14662,45844
23.15595,46637
23.16528,46991
23.17463,46835
23.18397,47676
23.19330,47185
23.20265,44002
23.21198,43851
23.22133,43676
23.23067,42575
23.24000,45814
23.24935,50194
23.25868,56526
23.26802,57773
23.27737,57204
23.28670,52585
23.29603,49439
23.30538,47743
23.31472,46251
23.32405,52005
23.33340,65100
23.34273,80055
23.35207,79395
23.36142,64094
23.37075,53591
23.38008,47554
23.38943,45743
23.39877,48024
23.40812,45987
23.41745,46799
23.42678,43105
23.43613,43322
23.44547,47387
23.45480,48213
23.46415,48301
23.47348,52508
23.48282,51522
23.49217,49000
23.50150,47929
23.51083,44885
23.52018,46331
23.52952,46331
23.53885,47310
23.54820,45168
23.55753,44031
23.56688,44006
23.57622,43733
23.58555,44524
23.59490,47628
23.60423,47628
23.61357,44400
23.62292,43712
23.63225,41894
23.64158,42254
23.65093,39956
23.66027,41590
23.66960,41082
23.67895,44574
23.68828,46202
23.69762,49221
23.70697,46477
23.71630,48573
23.72563,51576
23.73498,55136
23.74432,54817
23.75367,53059
23.76300,45952
23.77233,42678
23.78168,43503
23.79102,40807
23.80035,42827
23.80970,41718
23.81903,41553
23.82837,41585
23.83772,41565
23.84705,41457
23.85638,40726
23.86573,42144
23.87507,42590
23.88440,41693
23.89375,43346
23.90308,43866
23.91242,45474
23.92177,44270
23.93110,44634
23.94045,43884
23.94978,43483
23.95912,43957
23.96847,40610
23.97780,40818
23.98713,39451
23.99648,42650
24.00582,41404
24.01515,43426
24.02450,44076
24.03383,40918
24.04317,41617
24.05252,40099
24.06185,39209
24.07118,39622
24.08053,41869
24.08987,41560
24.09920,43353
24.10855,42122
24.11788,43469
24.12723,40777
24.13657,40720
24.14590,42114
24.15525,41902
24.16458,43895
24.17392,41097
24.18327,42192
24.19260,42131
24.20193,43114
24.21128,41218
24.22062,41717
24.22995,43748
24.23930,44226
24.24863,44857
24.25797,43355
24.26732,44772
24.27665,43442
24.28598,43726
24.29533,44294
24.30467,46573
24.31402,47205
24.32335,48526
24.33268,48548
24.34203,48957
24.35137,45392
24.36070,41345
24.37005,41162
24.37938,42037
24.38872,44011
24.39807,43773
24.40740,44307
24.41673,44835
24.42608,43316
24.43542,43660
24.44475,41917
24.45410,41251
24.46343,40775
24.47278,39271
24.48212,38835
24.49145,43631
24.50080,41806
24.51013,42932
24.51947,43521
24.52882,44215
24.53815,43233
24.54748,44452
24.55683,51927
24.56617,56356
24.57550,55427
24.58485,50289
24.59418,46384
24.60352,44766
24.61287,47453
24.62220,50539
24.63153,50249
24.64088,48894
24.65022,43373
24.65957,42547
24.66890,45660
24.67823,44764
24.68758,44804
24.69692,43648
24.70625,41564
24.71560,42601
24.72493,42181
24.73427,43333
24.74362,41160
24.75295,41678
24.76228,41466
24.77163,40809
24.78097,40887
24.79030,40043
24.79965,41030
24.80898,39483
24.81832,41082
24.82767,41889
24.83700,43785
24.84635,42338
24.85568,40117
24.86502,42334
24.87437,42707
24.88370,43940
24.89303,44494
24.90238,43515
24.91172,45128
24.92105,44160
24.93040,41395
24.93973,43017
24.94907,42523
24.95842,41715
24.96775,42045
24.97708,43337
24.98643,43142
24.99577,43422
25.00510,43225
25.01445,41680
25.02378,41786
25.03313,42321
25.04247,40576
25.05180,41769
25.06115,42471
25.07048,41874
25.07982,41536
25.08917,40434
25.09850,41250
25.10783,43869
25.11718,43011
25.12652,41528
25.13585,42415
25.14520,46244
25.15453,44175
25.16387,46052
25.17322,46046
25.18255,43806
25.19188,44427
25.20123,43037
25.21057,44537
25.21992,42817
25.22925,43951
25.23858,41445
25.24793,43138
25.25727,43858
25.26660,43501
25.27595,42817
25.28528,43206
25.29462,46510
25.30397,47321
25.31330,47671
25.32263,67357
25.33198,104585
25.34132,139409
25.35065,125068
25.36000,94320
25.36933,72877
25.37868,65663
25.38802,62760
25.39735,58279
25.40670,56100
25.41603,58179
25.42537,60932
25.43472,63420
25.44405,63147
25.45338,58198
25.46273,57174
25.47207,55922
25.48140,57590
25.49075,61377
25.50008,61221
25.50942,58264
25.51877,58056
25.52810,56619
25.53743,56471
25.54678,56935
25.55612,55424
25.56547,53723
25.57480,54078
25.58413,52332
25.59348,53464
25.60282,49485
25.61215,51468
25.62150,48964
25.63083,52316
25.64017,50085
25.64952,52368
25.65885,53634
25.66818,55302
25.67753,53342
25.68687,50889
25.69620,48882
25.70555,46920
25.71488,48479
25.72422,49703
25.73357,47459
25.74290,49236
25.75225,49476
25.76158,49337
25.77092,47084
25.78027,50380
25.78960,47608
25.79893,48291
25.80828,52764
25.81762,55002
25.82695,55448
25.83630,53719
25.84563,54220
25.85497,53591
25.86432,49768
25.87365,48534
25.88298,49863
25.89233,46083
25.90167,44675
25.91100,46169
25.92035,45963
25.92968,45487
25.93903,47601
25.94837,48482
25.95770,51581
25.96705,51208
25.97638,50028
25.98572,49215
25.99507,48091
26.00440,47879
26.01373,47726
26.02308,48659
26.03242,48488
26.04175,49257
26.05110,50011
26.06043,48692
26.06977,49493
26.07912,48267
26.08845,49858
26.09780,48362
26.10713,49555
26.11647,48489
26.12582,51705
26.13515,53074
26.14448,57673
26.15383,61556
26.16317,59888
26.17250,57135
26.18185,56234
26.19118,53727
26.20052,52568
26.20987,52171
26.21920,49142
26.22853,49626
26.23788,51245
26.24722,51083
26.25655,51156
26.26590,49983
26.27523,49468
26.28458,50176
26.29392,49251
26.30325,50616
26.31260,52978
26.32193,51123
26.33127,51075
26.34062,52580
26.34995,49955
26.35928,49059
26.36863,49512
26.37797,48778
26.38730,48495
26.39665,49590
26.40598,50136
26.41532,48020
26.42467,48379
26.43400,49228
26.44333,50427
26.45268,49431
26.46202,54417
26.47137,55806
26.48070,51670
26.49003,51727
26.49938,52065
26.50872,53022
26.51805,52573
26.52740,50716
26.53673,54433
26.54607,55431
26.55542,55095
26.56475,55728
26.57408,54615
26.58343,53767
26.59277,51326
26.60210,52416
26.61145,52922
26.62078,55156
26.63012,54635
26.63947,51400
26.64880,49205
26.65815,50049
26.66748,51042
26.67682,55146
26.68617,52069
26.69550,52725
26.70483,51148
26.71418,49395
26.72352,50545
26.73285,49547
26.74220,49617
26.75153,48818
26.76087,50618
26.77022,50455
26.77955,50041
26.78888,51177
26.79823,50898
26.80757,50924
26.81690,49794
26.82625,51093
26.83558,49203
26.84493,50215
26.85427,52684
26.86360,54026
26.87295,53500
26.88228,52503
26.89162,51433
26.90097,52204
26.91030,51981
26.91963,48640
26.92898,48034
26.93832,49144
26.94765,47963
26.95700,48653
26.96633,50263
26.97567,47215
26.98502,49106
26.99435,52536
27.00370,52205
27.01303,51036
27.02237,52780
27.03172,50853
27.04105,51497
27.05038,52353
27.05973,53385
27.06907,55530
27.07840,54123
27.08775,51562
27.09708,49755
27.10642,49065
27.11577,50065
27.12510,51861
27.13443,53999
27.14378,55305
27.15312,56449
27.16245,56551
27.17180,56671
27.18113,60500
27.19048,62294
27.19982,65497
27.20915,68982
27.21850,72122
27.22783,75587
27.23717,82914
27.24652,94279
27.25585,104238
27.26518,115913
27.27453,114620
27.28387,110331
27.29320,112017
27.30255,114902
27.31188,117373
27.32122,119706
27.33057,120095
27.33990,124300
27.34923,121374
27.35858,121122
27.36792,117136
27.37727,112811
27.38660,110238
27.39593,103807
27.40528,99614
27.41462,95445
27.42395,92400
27.43330,91225
27.44263,87029
27.45197,83588
27.46132,86072
27.47065,87342
27.47998,97859
27.48933,109818
27.49867,135395
27.50800,160319
27.51735,192809
27.52668,224179
27.53602,258825
27.54537,276807
27.55470,275379
27.56405,267513
27.57338,245377
27.58272,219308
27.59207,189595
27.60140,164998
27.61073,142877
27.62008,126577
27.62942,115881
27.63875,104699
27.64810,97963
27.65743,90656
27.66677,93986
27.67612,96076
27.68545,99365
27.69478,96297
27.70413,85732
27.71347,79721
27.72282,76074
27.73215,72856
27.74148,69182
27.75083,68864
27.76017,67241
27.76950,65081
27.77885,66213
27.78818,69700
27.79752,66398
27.80687,65622
27.81620,64782
27.82553,62858
27.83488,63545
27.84422,61924
27.85355,60296
27.86290,59943
27.87223,60732
27.88157,60549
27.89092,58095
27.90025,61410
27.90960,60977
27.91893,59526
27.92827,61374
27.93762,63257
27.94695,60570
27.95628,56951
27.96563,59831
27.97497,57961
27.98430,58701
27.99365,59672
28.00298,58317
28.01232,56556
28.02167,56649
28.03100,58619
28.04033,57782
28.04968,57045
28.05902,57664
28.06835,56267
28.07770,55401
28.08703,57900
28.09638,56101
28.10572,58146
28.11505,60627
28.12440,69058
28.13373,74682
28.14307,73879
28.15242,69333
28.16175,67151
28.17108,61133
28.18043,62641
28.18977,61149
28.19910,58972
28.20845,59625
28.21778,59297
28.22712,60749
28.23647,58624
28.24580,58544
28.25513,60209
28.26448,58055
28.27382,57237
28.28317,58479
28.29250,58139
28.30183,59088
28.31118,56482
28.32052,56166
28.32985,55322
28.33920,58957
28.34853,56720
28.35787,58007
28.36722,56620
28.37655,58294
28.38588,58450
28.39523,58606
28.40457,57803
28.41390,61662
28.42325,60452
28.43258,61553
28.44192,59940
28.45127,60509
28.46060,61631
28.46995,62622
28.47928,60860
28.48862,60384
28.49797,62640
28.50730,60502
28.51663,59292
28.52598,60166
28.53532,61019
28.54465,62106
28.55400,58837
28.56333,60185
28.57267,58056
28.58202,61845
28.59135,64305
28.60068,66287
28.61003,69530
28.61937,69443
28.62870,66697
28.63805,66000
28.64738,67562
28.65673,65394
28.66607,71311
28.67540,93491
28.68475,121970
28.69408,132783
28.70342,114185
28.71277,95591
28.72210,78248
28.73143,73115
28.74078,68524
28.75012,70711
28.75945,66180
28.76880,66115
28.77813,66120
28.78747,64216
28.79682,68072
28.80615,64224
28.81550,64775
28.82483,64119
28.83417,64833
28.84352,65633
28.85285,67149
28.86218,65880
28.87153,66060
28.88087,65375
28.89020,64635
28.89955,64432
28.90888,66726
28.91822,67130
28.92757,65970
28.93690,65206
28.94623,62813
28.95558,66959
28.96492,71348
28.97425,70743
28.98360,76480
28.99293,70839
29.00228,69335
29.01162,70002
29.02095,67752
29.03030,68306
29.03963,71501
29.04897,71072
29.05832,68012
29.06765,66751
29.07698,66196
29.08633,69134
29.09567,68240
29.10500,70212
29.11435,70568
29.12368,69689
29.13302,68545
29.14237,67230
29.15170,67722
29.16103,70030
29.17038,67576
29.17972,73203
29.18907,78975
29.19840,93310
29.20773,113768
29.21708,127586
29.22642,117843
29.23575,102274
29.24510,87148
29.25443,83722
29.26377,80509
29.27312,78180
29.28245,75264
29.29178,76195
29.30113,75243
29.31047,72447
29.31980,69953
29.32915,67304
29.33848,70914
29.34782,69241
29.35717,68452
29.36650,69214
29.37585,71131
29.38518,69802
29.39452,70069
29.40387,69790
29.41320,69848
29.42253,70918
29.43188,70628
29.44122,72422
29.45055,76636
29.45990,77322
29.46923,79411
29.47857,82224
29.48792,80827
29.49725,78204
29.50658,75695
29.51593,75760
29.52527,75568
29.53462,72229
29.54395,74573
29.55328,72741
29.56263,71499
29.57197,70598
29.58130,69963
29.59065,69913
29.59998,70903
29.60932,71699
29.61867,70394
29.62800,70572
29.63733,70595
29.64668,73469
29.65602,70105
29.66535,69777
29.67470,70566
29.68403,69624
29.69337,68101
29.70272,70801
29.71205,70623
29.72140,71806
29.73073,72526
29.74007,76584
29.74942,74419
29.75875,73496
29.76808,75752
29.77743,73841
29.78677,72474
29.79610,71065
29.80545,73576
29.81478,70852
29.82412,70713
29.83347,70190
29.84280,71285
29.85213,69037
29.86148,69770
29.87082,70852
29.88015,71249
29.88950,70181
29.89883,68927
29.90818,70835
29.91752,69648
29.92685,73143
29.93620,72348
29.94553,74018
29.95487,72743
29.96422,73512
29.97355,76867
29.98288,76576
29.99223,83739
30.00157,80622
30.01090,82920
30.02025,76017
30.02958,75085
30.03892,73509
30.04827,72613
30.05760,70937
30.06693,71289
30.07628,74873
30.08562,76644
30.09497,80556
30.10430,82214
30.11363,97846
30.12298,115849
30.13232,134781
30.14165,162267
30.15100,191179
30.16033,222609
30.16967,245906
30.17902,259956
30.18835,265117
30.19768,258483
30.20703,242326
30.21637,217808
30.22570,197206
30.23505,169755
30.24438,154683
30.25372,136148
30.26307,123464
30.27240,114404
30.28175,108584
30.29108,105765
30.30042,102133
30.30977,96453
30.31910,94908
30.32843,89783
30.33778,88593
30.34712,88480
30.35645,91736
30.36580,93350
30.37513,95132
30.38447,105571
30.39382,123559
30.40315,155696
30.41248,185473
30.42183,188025
30.43117,167900
30.44052,138361
30.44985,120989
30.45918,107605
30.46853,98109
30.47787,93471
30.48720,90090
30.49655,87963
30.50588,87530
30.51522,85182
30.52457,82639
30.53390,81114
30.54323,80354
30.55258,82948
30.56192,80868
30.57125,78208
30.58060,78141
30.58993,81876
30.59927,84258
30.60862,84742
30.61795,87167
30.62730,88528
30.63663,93791
30.64597,99443
30.65532,107247
30.66465,105652
30.67398,106774
30.68333,103089
30.69267,99757
30.70200,95991
30.71135,91012
30.72068,90089
30.73002,88185
30.73937,85712
30.74870,86213
30.75803,83955
30.76738,86244
30.77672,83247
30.78605,83332
30.79540,83344
30.80473,82440
30.81408,84330
30.82342,80854
30.83275,83546
30.84210,83160
30.85143,87122
30.86077,86311
30.87012,86141
30.87945,87283
30.88878,89525
30.89813,88276
30.90747,92111
30.91680,90490
30.92615,89818
30.93548,92635
30.94482,92096
30.95417,91802
30.96350,90329
30.97283,88919
30.98218,90598
30.99152,87712
31.00087,88011
31.01020,88368
31.01953,87036
31.02888,88005
31.03822,85461
31.04755,86140
31.05690,86562
31.06623,84701
31.07557,83858
31.08492,84885
31.09425,86195
31.10358,87109
31.11293,85484
31.12227,85999
31.13160,89948
31.14095,92887
31.15028,91917
31.15963,91716
31.16897,91746
31.17830,95679
31.18765,91441
31.19698,93062
31.20632,93895
31.21567,93535
31.22500,91606
31.23433,93838
31.24368,94206
31.25302,91890
31.26235,89354
31.27170,92970
31.28103,91449
31.29037,93364
31.29972,92225
31.30905,91790
31.31838,89472
31.32773,88611
31.33707,89438
31.34642,89436
31.35575,89194
31.36508,87022
