D:\数据\20211215\ZS1E-TJ-000201.D Wed Dec 15 11:11:43 2021
Start of data points
0.09760,30188
0.10695,30160
0.11628,28751
0.12562,30173
0.13497,30687
0.14430,30580
0.15363,29014
0.16298,31600
0.17232,30150
0.18167,30095
0.19100,29055
0.20033,30298
0.20968,29701
0.21902,28633
0.22835,28354
0.23770,28848
0.24703,28724
0.25637,28825
0.26572,28958
0.27505,29515
0.28438,29560
0.29373,28889
0.30307,28898
0.31240,27969
0.32175,29867
0.33108,28630
0.34042,28401
0.34977,29077
0.35910,27501
0.36845,28739
0.37778,28049
0.38712,30181
0.39647,29521
0.40580,29856
0.41513,30588
0.42448,26856
0.43382,23019
0.44315,21052
0.45250,20639
0.46183,18879
0.47117,12757
0.48052,8393
0.48985,7412
0.49918,7682
0.50853,7294
0.51787,7285
0.52722,6568
0.53655,6487
0.54588,6759
0.55523,6370
0.56457,6713
0.57390,7079
0.58325,6448
0.59258,6834
0.60192,6353
0.61127,6825
0.62060,6650
0.62993,5511
0.63928,6053
0.64862,6271
0.65795,5899
0.66730,6256
0.67663,6971
0.68597,6043
0.69532,6497
0.70465,6344
0.71400,6934
0.72333,6009
0.73267,6760
0.74202,6632
0.75135,6281
0.76068,6454
0.77003,5772
0.77937,6490
0.78870,6018
0.79805,5948
0.80738,5987
0.81672,6067
0.82607,6543
0.83540,6494
0.84473,6377
0.85408,5588
0.86342,5642
0.87275,5791
0.88210,5621
0.89143,6123
0.90078,6127
0.91012,5917
0.91945,6293
0.92880,5976
0.93813,6161
0.94747,6522
0.95682,6440
0.96615,6165
0.97548,5430
0.98483,6218
0.99417,5689
1.00350,5914
1.01285,5450
1.02218,5277
1.03152,6113
1.04087,6086
1.05020,5612
1.05953,5615
1.06888,5654
1.07822,5968
1.08757,5216
1.09690,6141
1.10623,5619
1.11558,5218
1.12492,5480
1.13425,5558
1.14360,5722
1.15293,5718
1.16227,5151
1.17162,5281
1.18095,5892
1.19028,5936
1.19963,5027
1.20897,5597
1.21830,5625
1.22765,5356
1.23698,5199
1.24632,6157
1.25567,4976
1.26500,5788
1.27435,6006
1.28368,5067
1.29302,5228
1.30237,5651
1.31170,5578
1.32103,5235
1.33038,5856
1.33972,5856
1.34905,5492
1.35840,5749
1.36773,5710
1.37707,5501
1.38642,5668
1.39575,5774
1.40508,5334
1.41443,5308
1.42377,5529
1.43312,5745
1.44245,5407
1.45178,5978
1.46113,5478
1.47047,5543
1.47980,5513
1.48915,5806
1.49848,5504
1.50782,5484
1.51717,5872
1.52650,5324
1.53583,5269
1.54518,5863
1.55452,6064
1.56385,5741
1.57320,5857
1.58253,5787
1.59187,6023
1.60122,5423
1.61055,7212
1.61990,14470
1.62923,21846
1.63857,26356
1.64792,32303
1.65725,41064
1.66658,52940
1.67593,58678
1.68527,59764
1.69460,53058
1.70395,43539
1.71328,31062
1.72262,23084
1.73197,22338
1.74130,26361
1.75063,28143
1.75998,31590
1.76932,34090
1.77865,37239
1.78800,39817
1.79733,41430
1.80668,40467
1.81602,39111
1.82535,39997
1.83470,38810
1.84403,38955
1.85337,38384
1.86272,40103
1.87205,45676
1.88138,63418
1.89073,103559
1.90007,148808
1.90940,179632
1.91875,219638
1.92808,353467
1.93742,658617
1.94677,1085059
1.95610,1420265
1.96543,1422699
1.97478,1190371
1.98412,903109
1.99347,687256
2.00280,562488
2.01213,508373
2.02148,487008
2.03082,426491
2.04015,319375
2.04950,231313
2.05883,172764
2.06817,131038
2.07752,102815
2.08685,85028
2.09618,73157
2.10553,66876
2.11487,69096
2.12420,80753
2.13355,127045
2.14288,222103
2.15223,236143
2.16157,189909
2.17090,145761
2.18025,145584
2.18958,229805
2.19892,254091
2.20827,172720
2.21760,121000
2.22693,134927
2.23628,200028
2.24562,249384
2.25495,897705
2.26430,2583986
2.27363,2694483
2.28297,1883427
2.29232,1126815
2.30165,685326
2.31098,592023
2.32033,653504
2.32967,506811
2.33902,291072
2.34835,173444
2.35768,119557
2.36703,105798
2.37637,128182
2.38570,169998
2.39505,156672
2.40438,137827
2.41372,126360
2.42307,118193
2.43240,117710
2.44173,107337
2.45108,88326
2.46042,81088
2.46975,95349
2.47910,108412
2.48843,101319
2.49777,81575
2.50712,70063
2.51645,66389
2.52580,62247
2.53513,57817
2.54447,57605
2.55382,62597
2.56315,73498
2.57248,192982
2.58183,281922
2.59117,252881
2.60050,203900
2.60985,182221
2.61918,191793
2.62852,201057
2.63787,173661
2.64720,133575
2.65653,119435
2.66588,118958
2.67522,107761
2.68455,87389
2.69390,71548
2.70323,63798
2.71258,69190
2.72192,97902
2.73125,133052
2.74060,141318
2.74993,152354
2.75927,180744
2.76862,228191
2.77795,286473
2.78728,316181
2.79663,283363
2.80597,216621
2.81530,171917
2.82465,156707
2.83398,143063
2.84332,120810
2.85267,128065
2.86200,140506
2.87133,174415
2.88068,225009
2.89002,189254
2.89937,146944
2.90870,115112
2.91803,102922
2.92738,91698
2.93672,81685
2.94605,71813
2.95540,65373
2.96473,61465
2.97407,60411
2.98342,57915
2.99275,56006
3.00208,57696
3.01143,59647
3.02077,58719
3.03010,59967
3.03945,123815
3.04878,205563
3.05813,208466
3.06747,199152
3.07680,167519
3.08615,131848
3.09548,100139
3.10482,75543
3.11417,63200
3.12350,58778
3.13283,57404
3.14218,62786
3.15152,69152
3.16085,75336
3.17020,75480
3.17953,68846
3.18887,62440
3.19822,60878
3.20755,57940
3.21688,55451
3.22623,55851
3.23557,54604
3.24492,53063
3.25425,50999
3.26358,51081
3.27293,51005
3.28227,49275
3.29160,48734
3.30095,52338
3.31028,53939
3.31962,52853
3.32897,49745
3.33830,46610
3.34763,49018
3.35698,49306
3.36632,50572
3.37565,47483
3.38500,46134
3.39433,47296
3.40367,55311
3.41302,81941
3.42235,94485
3.43170,84382
3.44103,70327
3.45037,67979
3.45972,70396
3.46905,68501
3.47838,63169
3.48773,61438
3.49707,60856
3.50640,57010
3.51575,52658
3.52508,50484
3.53442,51309
3.54377,58270
3.55310,110376
3.56243,256574
3.57178,426768
3.58112,416450
3.59045,266270
3.59980,158487
3.60913,110079
3.61848,109965
3.62782,137062
3.63715,122004
3.64650,101850
3.65583,88708
3.66517,78735
3.67452,74752
3.68385,71333
3.69318,64129
3.70253,58571
3.71187,60960
3.72120,72775
3.73055,77211
3.73988,74270
3.74922,62900
3.75857,56692
3.76790,53572
3.77725,49637
3.78658,46423
3.79592,46795
3.80527,52664
3.81460,67523
3.82393,81509
3.83328,78230
3.84262,70961
3.85195,63823
3.86130,61100
3.87063,63859
3.87997,62827
3.88932,69459
3.89865,83305
3.90798,90573
3.91733,83776
3.92667,74906
3.93600,76735
3.94535,84855
3.95468,99093
3.96403,119875
3.97337,121927
3.98270,112534
3.99205,91859
4.00138,68382
4.01072,62674
4.02007,67583
4.02940,69823
4.03873,76351
4.04808,89195
4.05742,89029
4.06675,80768
4.07610,94942
4.08543,129892
4.09477,157346
4.10412,151176
4.11345,115955
4.12278,84625
4.13213,68765
4.14147,60431
4.15082,56583
4.16015,57344
4.16948,53490
4.17883,52059
4.18817,51056
4.19750,48940
4.20685,50205
4.21618,53748
4.22552,50829
4.23487,51489
4.24420,50399
4.25353,48192
4.26288,48795
4.27222,50062
4.28155,54591
4.29090,58765
4.30023,63180
4.30957,75156
4.31892,85665
4.32825,90513
4.33760,92207
4.34693,82045
4.35627,75272
4.36562,62516
4.37495,59376
4.38428,66541
4.39363,86032
4.40297,85318
4.41230,71778
4.42165,60139
4.43098,53210
4.44032,47274
4.44967,47700
4.45900,48914
4.46833,53362
4.47768,62473
4.48702,72000
4.49635,70189
4.50570,59038
4.51503,51465
4.52438,50470
4.53372,49130
4.54305,49894
4.55240,51550
4.56173,53091
4.57107,52326
4.58042,49915
4.58975,48193
4.59908,50528
4.60843,49772
4.61777,48977
4.62710,47176
4.63645,47451
4.64578,49206
4.65512,54314
4.66447,57801
4.67380,57062
4.68313,57195
4.69248,54371
4.70182,53444
4.71117,50192
4.72050,49622
4.72983,44810
4.73918,44802
4.74852,49275
4.75785,53904
4.76720,55930
4.77653,54365
4.78587,53463
4.79522,49532
4.80455,49221
4.81388,50443
4.82323,50683
4.83257,50740
4.84190,55989
4.85125,59831
4.86058,56699
4.86993,57937
4.87927,60920
4.88860,62083
4.89795,56052
4.90728,48386
4.91662,48387
4.92597,46664
4.93530,49921
4.94463,56346
4.95398,56795
4.96332,54278
4.97265,48681
4.98200,44602
4.99133,45430
5.00067,46631
5.01002,49856
5.01935,52733
5.02868,57132
5.03803,65859
5.04737,63788
5.05672,58436
5.06605,50879
5.07538,50187
5.08473,53748
5.09407,55343
5.10340,51879
5.11275,50796
5.12208,48586
5.13142,50283
5.14077,49520
5.15010,50650
5.15943,49933
5.16878,50119
5.17812,49879
5.18745,56778
5.19680,78505
5.20613,90320
5.21547,79291
5.22482,65658
5.23415,57485
5.24350,57356
5.25283,59867
5.26217,60866
5.27152,86500
5.28085,196847
5.29018,395186
5.29953,503881
5.30887,380499
5.31820,195686
5.32755,97488
5.33688,65133
5.34622,58234
5.35557,54452
5.36490,55848
5.37423,56695
5.38358,62449
5.39292,65229
5.40225,62537
5.41160,59103
5.42093,54997
5.43028,50374
5.43962,48031
5.44895,45582
5.45830,46557
5.46763,45826
5.47697,46802
5.48632,47335
5.49565,48305
5.50498,49000
5.51433,50960
5.52367,53881
5.53300,56845
5.54235,59601
5.55168,58062
5.56102,58893
5.57037,61686
5.57970,66227
5.58905,60886
5.59838,53886
5.60772,49909
5.61707,49557
5.62640,47669
5.63573,46417
5.64508,45823
5.65442,46150
5.66375,49119
5.67310,49372
5.68243,49836
5.69177,51519
5.70112,55862
5.71045,60533
5.71978,62375
5.72913,61273
5.73847,56448
5.74780,59165
5.75715,64567
5.76648,67028
5.77583,59905
5.78517,66206
5.79450,69563
5.80385,62587
5.81318,57632
5.82252,52562
5.83187,52966
5.84120,56770
5.85053,57726
5.85988,52627
5.86922,49568
5.87855,47005
5.88790,46524
5.89723,44845
5.90657,45355
5.91592,66395
5.92525,115299
5.93458,146886
5.94393,127146
5.95327,106458
5.96262,100110
5.97195,84593
5.98128,63541
5.99063,52853
5.99997,45581
6.00930,46053
6.01865,46268
6.02798,43709
6.03732,42016
6.04667,39105
6.05600,33096
6.06533,32418
6.07468,30415
6.08402,27810
6.09335,24164
6.10270,19897
6.11203,20395
6.12137,23033
6.13072,32665
6.14005,45001
6.14940,46179
6.15873,35350
6.16807,24131
6.17742,20268
6.18675,22113
6.19608,28005
6.20543,27260
6.21477,25460
6.22410,24166
6.23345,26636
6.24278,27199
6.25212,26236
6.26147,24562
6.27080,30032
6.28013,53064
6.28948,73137
6.29882,60332
6.30815,43052
6.31750,31202
6.32683,24740
6.33618,22571
6.34552,22867
6.35485,22188
6.36420,22677
6.37353,24445
6.38287,29511
6.39222,43125
6.40155,96230
6.41088,290760
6.42023,551275
6.42957,554059
6.43890,316275
6.44825,127161
6.45758,54731
6.46692,36687
6.47627,29932
6.48560,30235
6.49495,29359
6.50428,26892
6.51362,28103
6.52297,27010
6.53230,27984
6.54163,25473
6.55098,25105
6.56032,23614
6.56965,23269
6.57900,24320
6.58833,24588
6.59767,25197
6.60702,26355
6.61635,27083
6.62568,27313
6.63503,28269
6.64437,31299
6.65370,29487
6.66305,32469
6.67238,35011
6.68173,33803
6.69107,30760
6.70040,29858
6.70975,31972
6.71908,37229
6.72842,37940
6.73777,31421
6.74710,30947
6.75643,28062
6.76578,26529
6.77512,26405
6.78445,27227
6.79380,29358
6.80313,33424
6.81247,35926
6.82182,32839
6.83115,27482
6.84048,26893
6.84983,25816
6.85917,28422
6.86852,28945
6.87785,25358
6.88718,26504
6.89653,23808
6.90587,25500
6.91520,26945
6.92455,28497
6.93388,26414
6.94322,27326
6.95257,24470
6.96190,25061
6.97123,25640
6.98058,25897
6.98992,26090
6.99925,23907
7.00860,24516
7.01793,24560
7.02727,23368
7.03662,22828
7.04595,19657
7.05530,18521
7.06463,18555
7.07397,18272
7.08332,18334
7.09265,20159
7.10198,24262
7.11133,26227
7.12067,28352
7.13000,26403
7.13935,25035
7.14868,22441
7.15802,20186
7.16737,19159
7.17670,20876
7.18603,19527
7.19538,20394
7.20472,21039
7.21407,23507
7.22340,28461
7.23273,59356
7.24208,118397
7.25142,163459
7.26075,135484
7.27010,75134
7.27943,45400
7.28877,34210
7.29812,31089
7.30745,25832
7.31678,22943
7.32613,21984
7.33547,20438
7.34480,21175
7.35415,21538
7.36348,20926
7.37282,19517
7.38217,22571
7.39150,45031
7.40085,120011
7.41018,258720
7.41952,337936
7.42887,283768
7.43820,173980
7.44753,85251
7.45688,43299
7.46622,27200
7.47555,25174
7.48490,35523
7.49423,47609
7.50357,43100
7.51292,33906
7.52225,27128
7.53158,22436
7.54093,21358
7.55027,21534
7.55960,20755
7.56895,23480
7.57828,23725
7.58763,23723
7.59697,25096
7.60630,26409
7.61565,26211
7.62498,27404
7.63432,27366
7.64367,27795
7.65300,26669
7.66233,23177
7.67168,22410
7.68102,22568
7.69035,22225
7.69970,23136
7.70903,23783
7.71837,27035
7.72772,29402
7.73705,34680
7.74638,35362
7.75573,35726
7.76507,33477
7.77442,32718
7.78375,30153
7.79308,31224
7.80243,30720
7.81177,28003
7.82110,24539
7.83045,21446
7.83978,21053
7.84912,24968
7.85847,39398
7.86780,69888
7.87713,96713
7.88648,95974
7.89582,67982
7.90515,57686
7.91450,84731
7.92383,143614
7.93317,156780
7.94252,107573
7.95185,59110
7.96120,59022
7.97053,70477
7.97987,60707
7.98922,47249
7.99855,38717
8.00788,33036
8.01723,29332
8.02657,28765
8.03590,37123
8.04525,58133
8.05458,73034
8.06392,57700
8.07327,38922
8.08260,28987
8.09193,32015
8.10128,49922
8.11062,61418
8.11997,50362
8.12930,38732
8.13863,30209
8.14798,29267
8.15732,27766
8.16665,27122
8.17600,26290
8.18533,24283
8.19467,23202
8.20402,24031
8.21335,24403
8.22268,25043
8.23203,25818
8.24137,28489
8.25070,32158
8.26005,32020
8.26938,28932
8.27872,28257
8.28807,24939
8.29740,22182
8.30675,22459
8.31608,22826
8.32542,22786
8.33477,22117
8.34410,23959
8.35343,23129
8.36278,23217
8.37212,21235
8.38145,21330
8.39080,21968
8.40013,26687
8.40947,29657
8.41882,33321
8.42815,32138
8.43748,31671
8.44683,30434
8.45617,27344
8.46550,26850
8.47485,27432
8.48418,28020
8.49353,27148
8.50287,27171
8.51220,24752
8.52155,24789
8.53088,24124
8.54022,24613
8.54957,24698
8.55890,27729
8.56823,26379
8.57758,24114
8.58692,25948
8.59625,28657
8.60560,33288
8.61493,35851
8.62427,34900
8.63362,31511
8.64295,28991
8.65228,26800
8.66163,26700
8.67097,26889
8.68032,25729
8.68965,26186
8.69898,25408
8.70833,26433
8.71767,24974
8.72700,24234
8.73635,24263
8.74568,23244
8.75502,25209
8.76437,26587
8.77370,29191
8.78303,30769
8.79238,32782
8.80172,50669
8.81105,88651
8.82040,113158
8.82973,88613
8.83908,53259
8.84842,32703
8.85775,26933
8.86710,26651
8.87643,25334
8.88577,26018
8.89512,25798
8.90445,26347
8.91378,26663
8.92313,25882
8.93247,27573
8.94180,26574
8.95115,24312
8.96048,24722
8.96982,24135
8.97917,24027
8.98850,23361
8.99783,24948
9.00718,25092
9.01652,27656
9.02587,26865
9.03520,26621
9.04453,27032
9.05388,25848
9.06322,25708
9.07255,26994
9.08190,28036
9.09123,29350
9.10057,28674
9.10992,28083
9.11925,26746
9.12858,31123
9.13793,35572
9.14727,41424
9.15660,37646
9.16595,30309
9.17528,25682
9.18462,25357
9.19397,27075
9.20330,27018
9.21265,30336
9.22198,46725
9.23132,72690
9.24067,81762
9.25000,64043
9.25933,44623
9.26868,36481
9.27802,34287
9.28735,32787
9.29670,33827
9.30603,30868
9.31537,30622
9.32472,30890
9.33405,33939
9.34338,35274
9.35273,35646
9.36207,58253
9.37140,119287
9.38075,198872
9.39008,216667
9.39943,164176
9.40877,118583
9.41810,82193
9.42745,67729
9.43678,61750
9.44612,52818
9.45547,39229
9.46480,30169
9.47413,28432
9.48348,27096
9.49282,25523
9.50215,28678
9.51150,28558
9.52083,30680
9.53017,31105
9.53952,36375
9.54885,44728
9.55818,49413
9.56753,50408
9.57687,47932
9.58622,38003
9.59555,31030
9.60488,30245
9.61423,30214
9.62357,29808
9.63290,29880
9.64225,30055
9.65158,34130
9.66092,35410
9.67027,33346
9.67960,31545
9.68893,29762
9.69828,29602
9.70762,27077
9.71695,29341
9.72630,55347
9.73563,161476
9.74497,412534
9.75432,614124
9.76365,524479
9.77300,305641
9.78233,161803
9.79167,109064
9.80102,87174
9.81035,71024
9.81968,62360
9.82903,60700
9.83837,68899
9.84770,68614
9.85705,60283
9.86638,52639
9.87572,48072
9.88507,52188
9.89440,67607
9.90373,72973
9.91308,66858
9.92242,60932
9.93177,58247
9.94110,55959
9.95043,50038
9.95978,43096
9.96912,44686
9.97845,61413
9.98780,110794
9.99713,160807
10.00647,145778
10.01582,92737
10.02515,57252
10.03448,43901
10.04383,38988
10.05317,38219
10.06250,47927
10.07185,73412
10.08118,96637
10.09052,88814
10.09987,63092
10.10920,48839
10.11855,78059
10.12788,169057
10.13722,266780
10.14657,265455
10.15590,384114
10.16523,878951
10.17458,1288369
10.18392,944093
10.19325,352660
10.20260,94888
10.21193,43453
10.22127,37460
10.23062,38617
10.23995,47344
10.24928,64486
10.25863,67621
10.26797,55483
10.27730,41193
10.28665,36424
10.29598,34985
10.30533,33460
10.31467,34335
10.32400,33433
10.33335,32237
10.34268,31135
10.35202,29446
10.36137,34115
10.37070,34001
10.38003,34538
10.38938,30912
10.39872,30378
10.40805,26934
10.41740,27570
10.42673,31473
10.43607,34287
10.44542,35260
10.45475,37063
10.46408,40369
10.47343,40886
10.48277,37834
10.49212,33493
10.50145,31082
10.51078,29091
10.52013,26212
10.52947,26747
10.53880,27157
10.54815,29313
10.55748,29913
10.56682,29454
10.57617,30795
10.58550,31849
10.59483,33727
10.60418,30245
10.61352,29747
10.62285,30463
10.63220,36906
10.64153,42135
10.65088,41787
10.66022,35698
10.66955,35465
10.67890,40934
10.68823,48634
10.69757,49512
10.70692,42677
10.71625,42765
10.72558,50542
10.73493,47701
10.74427,48499
10.75360,88072
10.76295,188653
10.77228,250234
10.78162,203484
10.79097,137720
10.80030,140055
10.80963,186951
10.81898,189382
10.82832,128649
10.83767,67617
10.84700,45988
10.85633,37482
10.86568,38932
10.87502,46359
10.88435,59636
10.89370,69959
10.90303,63466
10.91237,51818
10.92172,40783
10.93105,39047
10.94038,38620
10.94973,37453
10.95907,38741
10.96840,41545
10.97775,41372
10.98708,36083
10.99642,32189
11.00577,30795
11.01510,30917
11.02445,31330
11.03378,31358
11.04312,29263
11.05247,29837
11.06180,30847
11.07113,32239
11.08048,35605
11.08982,33666
11.09915,34214
11.10850,36063
11.11783,43464
11.12717,49399
11.13652,44786
11.14585,47395
11.15518,59142
11.16453,61037
11.17387,55581
11.18320,43907
11.19255,38419
11.20188,33319
11.21123,32908
11.22057,35088
11.22990,37036
11.23925,36284
11.24858,34711
11.25792,37110
11.26727,41859
11.27660,44968
11.28593,38502
11.29528,32670
11.30462,30930
11.31395,30218
11.32330,30619
11.33263,36849
11.34197,46423
11.35132,59306
11.36065,66932
11.36998,66115
11.37933,57416
11.38867,46433
11.39802,45076
11.40735,54383
11.41668,56576
11.42603,47970
11.43537,38338
11.44470,33019
11.45405,32636
11.46338,36744
11.47272,47882
11.48207,53823
11.49140,46328
11.50073,34930
11.51008,31372
11.51942,30822
11.52875,29505
11.53810,30451
11.54743,30748
11.55678,35831
11.56612,54090
11.57545,92883
11.58480,133660
11.59413,131923
11.60347,104469
11.61282,79740
11.62215,64996
11.63148,52890
11.64083,45603
11.65017,43951
11.65950,46375
11.66885,48765
11.67818,44597
11.68752,40753
11.69687,37431
11.70620,34688
11.71553,35067
11.72488,36606
11.73422,33671
11.74357,33799
11.75290,32754
11.76223,33976
11.77158,34704
11.78092,39527
11.79025,47535
11.79960,50669
11.80893,45332
11.81827,40212
11.82762,43342
11.83695,45161
11.84628,43776
11.85563,41618
11.86497,38678
11.87430,37755
11.88365,36899
11.89298,39133
11.90232,36009
11.91167,34432
11.92100,33459
11.93035,33828
11.93968,41346
11.94902,58675
11.95837,72905
11.96770,62026
11.97703,43646
11.98638,35383
11.99572,34683
12.00505,39301
12.01440,54395
12.02373,62752
12.03307,59175
12.04242,48491
12.05175,41093
12.06108,40176
12.07043,35221
12.07977,32402
12.08910,32150
12.09845,32587
12.10778,33422
12.11713,31522
12.12647,28951
12.13580,30363
12.14515,33240
12.15448,37896
12.16382,49200
12.17317,77767
12.18250,117634
12.19183,125069
12.20118,85053
12.21052,52255
12.21985,40721
12.22920,43453
12.23853,47268
12.24787,45053
12.25722,37366
12.26655,43543
12.27590,73018
12.28523,119428
12.29457,129466
12.30392,91394
12.31325,54733
12.32258,46131
12.33193,41881
12.34127,44236
12.35060,41869
12.35995,38693
12.36928,36875
12.37862,40264
12.38797,45043
12.39730,49060
12.40663,47904
12.41598,42241
12.42532,37621
12.43465,37757
12.44400,32478
12.45333,32565
12.46268,34678
12.47202,39338
12.48135,42923
12.49070,43094
12.50003,40270
12.50937,42186
12.51872,39380
12.52805,39373
12.53738,41345
12.54673,41421
12.55607,47651
12.56540,54750
12.57475,55053
12.58408,47271
12.59342,39550
12.60277,33884
12.61210,34372
12.62143,37070
12.63078,50403
12.64012,71078
12.64947,89917
12.65880,94676
12.66813,81138
12.67748,66992
12.68682,49456
12.69615,37435
12.70550,35783
12.71483,34466
12.72417,39078
12.73352,38514
12.74285,36599
12.75218,36206
12.76153,38205
12.77087,37311
12.78020,34756
12.78955,33198
12.79888,35213
12.80822,38231
12.81757,38781
12.82690,38161
12.83625,37765
12.84558,36692
12.85492,34256
12.86427,31063
12.87360,31626
12.88293,30265
12.89228,33923
12.90162,37700
12.91095,38132
12.92030,35554
12.92963,33296
12.93897,34182
12.94832,35569
12.95765,38488
12.96698,39875
12.97633,35849
12.98567,31554
12.99500,32315
13.00435,32472
13.01368,37235
13.02303,41721
13.03237,49624
13.04170,54593
13.05105,49283
13.06038,41191
13.06972,39411
13.07907,40694
13.08840,40798
13.09773,40280
13.10708,38212
13.11642,39624
13.12575,38577
13.13510,42699
13.14443,44246
13.15377,45288
13.16312,43233
13.17245,43876
13.18178,45004
13.19113,51360
13.20047,96624
13.20982,230144
13.21915,357765
13.22848,331064
13.23783,202586
13.24717,124797
13.25650,115243
13.26585,97347
13.27518,72689
13.28452,63328
13.29387,53109
13.30320,45226
13.31253,41038
13.32188,48883
13.33122,55260
13.34055,54318
13.34990,51614
13.35923,49550
13.36858,46376
13.37792,41055
13.38725,39468
13.39660,47664
13.40593,53907
13.41527,55184
13.42462,45025
13.43395,42223
13.44328,48833
13.45263,52804
13.46197,51562
13.47130,49439
13.48065,49624
13.48998,48228
13.49932,46159
13.50867,44014
13.51800,61177
13.52733,99567
13.53668,132818
13.54602,112932
13.55537,72044
13.56470,47587
13.57403,40452
13.58338,37419
13.59272,34879
13.60205,34457
13.61140,33362
13.62073,35720
13.63007,33348
13.63942,37838
13.64875,42052
13.65808,47772
13.66743,48370
13.67677,41875
13.68610,40033
13.69545,35302
13.70478,33555
13.71412,32349
13.72347,30000
13.73280,30437
13.74215,29832
13.75148,33867
13.76082,36251
13.77017,38752
13.77950,37346
13.78883,38074
13.79818,40353
13.80752,47739
13.81685,49996
13.82620,47130
13.83553,40872
13.84487,40517
13.85422,38728
13.86355,40733
13.87288,43457
13.88223,47469
13.89157,65580
13.90090,104697
13.91025,183520
13.91958,311868
13.92893,344830
13.93827,230836
13.94760,113853
13.95695,64146
13.96628,54772
13.97562,52234
13.98497,46102
13.99430,46615
14.00363,50768
14.01298,50552
14.02232,44127
14.03165,42467
14.04100,59167
14.05033,286331
14.05967,1542745
14.06902,4843439
14.07835,8334532
14.08770,7523705
14.09703,3145962
14.10637,622567
14.11572,116496
14.12505,66185
14.13438,55532
14.14373,52581
14.15307,56619
14.16240,59933
14.17175,62079
14.18108,58708
14.19042,65217
14.19977,85904
14.20910,87919
14.21843,66980
14.22778,45892
14.23712,38940
14.24645,37052
14.25580,38420
14.26513,39671
14.27448,39980
14.28382,41051
14.29315,38499
14.30250,36747
14.31183,41193
14.32117,51875
14.33052,69728
14.33985,77413
14.34918,68684
14.35853,56669
14.36787,46147
14.37720,41561
14.38655,41296
14.39588,41535
14.40522,39939
14.41457,38486
14.42390,36876
14.43323,38682
14.44258,39679
14.45192,45462
14.46127,59996
14.47060,77741
14.47993,80950
14.48928,65751
14.49862,54612
14.50795,45527
14.51730,39391
14.52663,35384
14.53597,37193
14.54532,41705
14.55465,41255
14.56398,45316
14.57333,48293
14.58267,44216
14.59200,43451
14.60135,42150
14.61068,39134
14.62002,38222
14.62937,40066
14.63870,44810
14.64805,57520
14.65738,77206
14.66672,87713
14.67607,74404
14.68540,60923
14.69473,50999
14.70408,44971
14.71342,40459
14.72275,40442
14.73210,40714
14.74143,44491
14.75077,43355
14.76012,44449
14.76945,44646
14.77878,44191
14.78813,46310
14.79747,46519
14.80680,45938
14.81615,46690
14.82548,47763
14.83483,48304
14.84417,48361
14.85350,53967
14.86285,62974
14.87218,72392
14.88152,68933
14.89087,62516
14.90020,47333
14.90953,41341
14.91888,41848
14.92822,41628
14.93755,41595
14.94690,43369
14.95623,40786
14.96557,42775
14.97492,48390
14.98425,49025
14.99358,44704
15.00293,47090
15.01227,56009
15.02162,62792
15.03095,51759
15.04028,50530
15.04963,53898
15.05897,60981
15.06830,59263
15.07765,55536
15.08698,54185
15.09632,47178
15.10567,44634
15.11500,46790
15.12433,49309
15.13368,62557
15.14302,68800
15.15235,60238
15.16170,50615
15.17103,42179
15.18038,40274
15.18972,44336
15.19905,52664
15.20840,79006
15.21773,104920
15.22707,119902
15.23642,97498
15.24575,75671
15.25508,54921
15.26443,49925
15.27377,46974
15.28310,48103
15.29245,49407
15.30178,44902
15.31112,42408
15.32047,45584
15.32980,53272
15.33913,64106
15.34848,62166
15.35782,53123
15.36717,59513
15.37650,69164
15.38583,70792
15.39518,57609
15.40452,44454
15.41385,42864
15.42320,45059
15.43253,47781
15.44187,45095
15.45122,45151
15.46055,42313
15.46988,42189
15.47923,42711
15.48857,43307
15.49790,45713
15.50725,52123
15.51658,65396
15.52592,79749
15.53527,79805
15.54460,61076
15.55395,50661
15.56328,41592
15.57262,41437
15.58197,43202
15.59130,42733
15.60063,43452
15.60998,45770
15.61932,45652
15.62865,49182
15.63800,56645
15.64733,62063
15.65667,62719
15.66602,60861
15.67535,57575
15.68468,53233
15.69403,55443
15.70337,68534
15.71270,79431
15.72205,73937
15.73138,61353
15.74073,53210
15.75007,57892
15.75940,61168
15.76875,66264
15.77808,61079
15.78742,56037
15.79677,52090
15.80610,51204
15.81543,60211
15.82478,81028
15.83412,129249
15.84345,208867
15.85280,256135
15.86213,185645
15.87147,101911
15.88082,72413
15.89015,74214
15.89950,82644
15.90883,89583
15.91817,81932
15.92752,65106
15.93685,52854
15.94618,46315
15.95553,44001
15.96487,43099
15.97420,48747
15.98355,59285
15.99288,70531
16.00222,71798
16.01157,64932
16.02090,53431
16.03023,49270
16.03958,50200
16.04892,50946
16.05825,54819
16.06760,57182
16.07693,56641
16.08628,53901
16.09562,52794
16.10495,50615
16.11430,52688
16.12363,61005
16.13297,61476
16.14232,55903
16.15165,52365
16.16098,52367
16.17033,52200
16.17967,48515
16.18900,46987
16.19835,49604
16.20768,56189
16.21702,60255
16.22637,58305
16.23570,60001
16.24503,58538
16.25438,56267
16.26372,52932
16.27307,57280
16.28240,76916
16.29173,147467
16.30108,249243
16.31042,269860
16.31975,190002
16.32910,100822
16.33843,66085
16.34777,50926
16.35712,44649
16.36645,40401
16.37578,38851
16.38513,40958
16.39447,45627
16.40380,45285
16.41315,51289
16.42248,54704
16.43182,52075
16.44117,49171
16.45050,49867
16.45985,59212
16.46918,57757
16.47852,55102
16.48787,51201
16.49720,51925
16.50653,50138
16.51588,52886
16.52522,55865
16.53455,54955
16.54390,51397
16.55323,47170
16.56257,45231
16.57192,43847
16.58125,44777
16.59058,46517
16.59993,45656
16.60927,46373
16.61860,49805
16.62795,56646
16.63728,64082
16.64663,62704
16.65597,59428
16.66530,53004
16.67465,49841
16.68398,51589
16.69332,58572
16.70267,70000
16.71200,69186
16.72133,61070
16.73068,48885
16.74002,58725
16.74935,95662
16.75870,132943
16.76803,116903
16.77737,77499
16.78672,67806
16.79605,145268
16.80540,462662
16.81473,1043380
16.82407,1598170
16.83342,2059935
16.84275,2460386
16.85208,2116818
16.86143,1114882
16.87077,408762
16.88010,157720
16.88945,94688
16.89878,78723
16.90812,79230
16.91747,90493
16.92680,96832
16.93613,87187
16.94548,82069
16.95482,84767
16.96415,88953
16.97350,88114
16.98283,75571
16.99218,65482
17.00152,58765
17.01085,57996
17.02020,66297
17.02953,96912
17.03887,125522
17.04822,124791
17.05755,88991
17.06688,68984
17.07623,59292
17.08557,57420
17.09490,56192
17.10425,55261
17.11358,55305
17.12292,55233
17.13227,54190
17.14160,61611
17.15093,59118
17.16028,52094
17.16962,48545
17.17897,50087
17.18830,49789
17.19763,51409
17.20698,50207
17.21632,46308
17.22565,46059
17.23500,45800
17.24433,47235
17.25367,47634
17.26302,50782
17.27235,53512
17.28168,60088
17.29103,63430
17.30037,61953
17.30970,55342
17.31905,58936
17.32838,67654
17.33772,84760
17.34707,117836
17.35640,137203
17.36575,142186
17.37508,155191
17.38442,219821
17.39377,291816
17.40310,266186
17.41243,186448
17.42178,120678
17.43112,94506
17.44045,83200
17.44980,80372
17.45913,80275
17.46847,73046
17.47782,72249
17.48715,84831
17.49648,244343
17.50583,985365
17.51517,2318934
17.52452,2835717
17.53385,1785183
17.54318,582746
17.55253,149926
17.56187,79825
17.57120,97362
17.58055,212297
17.58988,475754
17.59922,737316
17.60857,690903
17.61790,418766
17.62723,207294
17.63658,117851
17.64592,93213
17.65525,106850
17.66460,219422
17.67393,599491
17.68327,1119932
17.69262,1225406
17.70195,832792
17.71130,464837
17.72063,346852
17.72997,475868
17.73932,815892
17.74865,1007778
17.75798,841034
17.76733,492902
17.77667,270077
17.78600,172634
17.79535,131167
17.80468,112029
17.81402,100958
17.82337,91700
17.83270,82525
17.84203,78590
17.85138,79195
17.86072,89805
17.87005,100890
17.87940,102672
17.88873,90404
17.89808,79875
17.90742,70972
17.91675,65142
17.92610,60366
17.93543,62651
17.94477,63194
17.95412,65129
17.96345,66377
17.97278,71226
17.98213,70305
17.99147,66458
18.00080,60898
18.01015,58281
18.01948,58206
18.02882,59630
18.03817,58157
18.04750,64893
18.05683,68523
18.06618,72306
18.07552,64272
18.08487,57876
18.09420,52575
18.10353,54947
18.11288,62852
18.12222,68042
18.13155,65585
18.14090,61104
18.15023,61137
18.15957,60936
18.16892,62709
18.17825,63046
18.18758,60041
18.19693,55784
18.20627,53173
18.21560,52850
18.22495,51407
18.23428,52492
18.24362,53002
18.25297,50296
18.26230,50989
18.27165,50685
18.28098,56998
18.29032,61864
18.29967,60900
18.30900,64482
18.31833,65564
18.32768,64121
18.33702,63269
18.34635,69462
18.35570,72684
18.36503,77260
18.37437,78326
18.38372,71516
18.39305,73359
18.40238,74484
18.41173,80304
18.42107,75004
18.43040,65827
18.43975,61566
18.44908,64208
18.45843,65827
18.46777,60108
18.47710,56365
18.48645,58990
18.49578,70105
18.50512,84156
18.51447,95869
18.52380,97847
18.53313,82378
18.54248,71992
18.55182,72588
18.56115,73559
18.57050,71483
18.57983,73834
18.58917,97924
18.59852,106692
18.60785,91819
18.61720,75613
18.62653,66674
18.63587,61264
18.64522,62043
18.65455,61896
18.66388,58527
18.67323,57772
18.68257,57854
18.69190,61512
18.70125,66537
18.71058,67682
18.71992,69689
18.72927,74843
18.73860,70288
18.74793,64534
18.75728,58697
18.76662,53154
18.77595,51165
18.78530,45460
18.79463,46698
18.80398,49422
18.81332,49752
18.82265,51341
18.83200,53462
18.84133,53436
18.85067,52999
18.86002,50558
18.86935,50472
18.87868,47769
18.88803,49506
18.89737,48925
18.90670,56491
18.91605,66552
18.92538,71295
18.93472,70478
18.94407,67341
18.95340,66540
18.96273,72300
18.97208,73579
18.98142,70533
18.99077,64583
19.00010,55789
19.00943,53737
19.01878,54675
19.02812,55684
19.03745,58410
19.04680,65499
19.05613,87099
19.06547,104120
19.07482,107758
19.08415,124153
19.09348,142867
19.10283,124736
19.11217,86996
19.12150,62298
19.13085,52304
19.14018,49093
19.14952,50117
19.15887,47713
19.16820,45722
19.17755,45911
19.18688,49235
19.19622,51737
19.20557,57358
19.21490,58748
19.22423,58510
19.23358,58611
19.24292,53624
19.25225,49418
19.26160,47599
19.27093,44987
19.28027,48573
19.28962,51213
19.29895,57475
19.30828,76141
19.31763,99699
19.32697,105004
19.33632,83160
19.34565,66236
19.35498,53504
19.36433,46887
19.37367,44296
19.38300,45835
19.39235,52890
19.40168,66393
19.41102,77593
19.42037,73119
19.42970,57439
19.43903,45983
19.44838,46004
19.45772,44216
19.46705,42268
19.47640,45335
19.48573,48897
19.49507,52566
19.50442,54265
19.51375,50714
19.52310,47580
19.53243,48302
19.54177,46050
19.55112,46417
19.56045,45792
19.56978,46293
19.57913,49675
19.58847,53378
19.59780,54193
19.60715,51478
19.61648,48800
19.62582,50609
19.63517,54013
19.64450,57717
19.65383,57821
19.66318,49698
19.67252,46109
19.68185,47243
19.69120,50550
19.70053,53003
19.70988,55460
19.71922,61766
19.72855,69962
19.73790,81292
19.74723,78101
19.75657,65781
19.76592,55759
19.77525,53455
19.78458,56062
19.79393,53091
19.80327,53428
19.81260,50020
19.82195,48637
19.83128,47092
19.84062,46910
19.84997,45333
19.85930,44789
19.86863,51779
19.87798,64193
19.88732,76589
19.89667,70314
19.90600,59290
19.91533,51347
19.92468,50784
19.93402,49586
19.94335,44727
19.95270,45205
19.96203,47236
19.97137,46685
19.98072,45949
19.99005,45906
19.99938,44514
20.00873,41290
20.01807,45867
20.02740,47815
20.03675,48627
20.04608,51576
20.05542,51627
20.06477,50537
20.07410,49427
20.08345,51684
20.09278,51488
20.10212,48776
20.11147,46467
20.12080,42792
20.13013,41464
20.13948,42566
20.14882,47754
20.15815,54999
20.16750,55674
20.17683,52136
20.18617,45196
20.19552,43891
20.20485,43475
20.21418,44614
20.22353,49921
20.23287,70945
20.24222,161342
20.25155,336962
20.26088,397312
20.27023,274887
20.27957,119847
20.28890,64318
20.29825,53749
20.30758,48207
20.31692,46367
20.32627,42303
20.33560,40666
20.34493,39736
20.35428,41221
20.36362,46424
20.37295,46702
20.38230,47750
20.39163,46237
20.40097,45792
20.41032,44863
20.41965,45362
20.42900,44680
20.43833,45840
20.44767,47781
20.45702,45922
20.46635,50354
20.47568,64659
20.48503,79830
20.49437,77835
20.50370,63395
20.51305,53820
20.52238,47140
20.53172,46909
20.54107,44651
20.55040,44783
20.55973,56479
20.56908,99176
20.57842,208738
20.58775,282675
20.59710,214654
20.60643,114090
20.61578,65583
20.62512,53657
20.63445,54315
20.64380,61145
20.65313,64570
20.66247,61935
20.67182,55039
20.68115,50383
20.69048,48912
20.69983,48975
20.70917,47280
20.71850,47922
20.72785,49658
20.73718,47558
20.74652,47518
20.75587,44974
20.76520,46584
20.77453,43079
20.78388,43328
20.79322,42098
20.80257,47030
20.81190,47297
20.82123,48895
20.83058,45842
20.83992,43807
20.84925,42608
20.85860,42147
20.86793,42096
20.87727,41440
20.88662,41253
20.89595,44654
20.90528,48280
20.91463,49663
20.92397,48263
20.93330,43695
20.94265,44046
20.95198,42891
20.96132,40347
20.97067,40810
20.98000,40742
20.98935,37463
20.99868,42200
21.00802,41809
21.01737,38242
21.02670,40207
21.03603,41505
21.04538,42325
21.05472,43532
21.06405,46573
21.07340,47123
21.08273,47516
21.09207,43865
21.10142,44818
21.11075,44008
21.12008,45474
21.12943,44757
21.13877,44850
21.14812,43760
21.15745,45667
21.16678,45340
21.17613,50707
21.18547,54329
21.19480,58880
21.20415,55437
21.21348,47528
21.22282,45284
21.23217,47016
21.24150,44955
21.25083,44218
21.26018,44041
21.26952,45631
21.27885,50360
21.28820,55576
21.29753,58668
21.30687,52970
21.31622,48615
21.32555,46058
21.33490,45159
21.34423,44293
21.35357,42651
21.36292,44278
21.37225,44041
21.38158,44652
21.39093,43842
21.40027,44225
21.40960,47009
21.41895,48525
21.42828,47567
21.43762,49354
21.44697,53750
21.45630,56240
21.46563,53075
21.47498,59270
21.48432,136463
21.49365,684808
21.50300,2459509
21.51233,4293356
21.52168,4054008
21.53102,1892247
21.54035,555039
21.54970,169980
21.55903,93665
21.56837,86497
21.57772,91960
21.58705,90162
21.59638,77829
21.60573,68586
21.61507,61483
21.62440,62994
21.63375,68900
21.64308,73875
21.65242,68115
21.66177,61167
21.67110,57705
21.68043,60646
21.68978,62223
21.69912,64491
21.70847,58787
21.71780,57735
21.72713,62469
21.73648,61579
21.74582,57373
21.75515,52451
21.76450,48998
21.77383,45301
21.78317,46743
21.79252,47943
21.80185,48922
21.81118,52927
21.82053,60810
21.82987,64994
21.83920,64563
21.84855,58961
21.85788,52222
21.86722,50064
21.87657,52714
21.88590,57380
21.89525,58890
21.90458,64002
21.91392,68020
21.92327,66502
21.93260,65390
21.94193,100160
21.95128,320879
21.96062,994396
21.96995,1812059
21.97930,1959101
21.98863,1334720
21.99797,647243
22.00732,287292
22.01665,155182
22.02598,100887
22.03533,83057
22.04467,78252
22.05402,74365
22.06335,67685
22.07268,65592
22.08203,62690
22.09137,63632
22.10070,59602
22.11005,57997
22.11938,53817
22.12872,53721
22.13807,51596
22.14740,50455
22.15673,58739
22.16608,66525
22.17542,70001
22.18475,70754
22.19410,60913
22.20343,51942
22.21277,52261
22.22212,54443
22.23145,52622
22.24080,52737
22.25013,52420
22.25947,52206
22.26882,56262
22.27815,62931
22.28748,69258
22.29683,73391
22.30617,68957
22.31550,62783
22.32485,54844
22.33418,50539
22.34352,50549
22.35287,56964
22.36220,60577
22.37153,65344
22.38088,65041
22.39022,65503
22.39955,60720
22.40890,56850
22.41823,56745
22.42758,57087
22.43692,58314
22.44625,61475
22.45560,58573
22.46493,59413
22.47427,57997
22.48362,57577
22.49295,71076
22.50228,132843
22.51163,310058
22.52097,465663
22.53030,400843
22.53965,218253
22.54898,105011
22.55832,69722
22.56767,62077
22.57700,66020
22.58633,66704
22.59568,64744
22.60502,66208
22.61437,65860
22.62370,68815
22.63303,64105
22.64238,60543
22.65172,56885
22.66105,55336
22.67040,55286
22.67973,65297
22.68907,69465
22.69842,72848
22.70775,67594
22.71708,62147
22.72643,58147
22.73577,60598
22.74510,62925
22.75445,65065
22.76378,70179
22.77313,76677
22.78247,76601
22.79180,73907
22.80115,71109
22.81048,69162
22.81982,68238
22.82917,63025
22.83850,60571
22.84783,59712
22.85718,57580
22.86652,57933
22.87585,57111
22.88520,57808
22.89453,56467
22.90387,54645
22.91322,55116
22.92255,57700
22.93188,60634
22.94123,64384
22.95057,99777
22.95992,269205
22.96925,689616
22.97858,1048770
22.98793,922350
22.99727,481079
23.00660,170034
23.01595,68974
23.02528,51581
23.03462,50597
23.04397,50452
23.05330,49567
23.06263,50479
23.07198,49984
23.08132,50454
23.09065,47640
23.10000,47150
23.10933,46721
23.11867,46603
23.12802,48854
23.13735,46722
23.14670,44668
23.15603,47455
23.16537,46563
23.17472,48848
23.18405,46357
23.19338,46754
23.20273,46967
23.21207,45454
23.22140,45515
23.23075,46399
23.24008,46445
23.24942,49612
23.25877,54790
23.26810,53465
23.27743,52469
23.28678,49588
23.29612,48229
23.30545,45143
23.31480,46997
23.32413,51445
23.33348,60367
23.34282,70039
23.35215,68362
23.36150,57958
23.37083,51506
23.38017,50356
23.38952,47541
23.39885,48729
23.40818,47223
23.41753,48193
23.42687,46087
23.43620,45836
23.44555,47159
23.45488,47717
23.46422,47162
23.47357,48562
23.48290,48344
23.49223,47807
23.50158,45270
23.51092,48217
23.52027,48996
23.52960,55163
23.53893,84626
23.54828,142234
23.55762,193755
23.56695,182052
23.57630,127930
23.58563,89519
23.59497,72687
23.60432,67163
23.61365,60796
23.62298,59443
23.63233,56736
23.64167,55630
23.65100,53584
23.66035,54687
23.66968,53579
23.67903,55329
23.68837,53630
23.69770,57588
23.70705,57740
23.71638,57410
23.72572,58512
23.73507,62402
23.74440,58444
23.75373,58945
23.76308,54155
23.77242,52583
23.78175,50365
23.79110,49012
23.80043,50853
23.80977,47961
23.81912,51370
23.82845,49841
23.83778,47024
23.84713,47148
23.85647,48937
23.86582,46720
23.87515,46855
23.88448,49735
23.89383,50415
23.90317,52353
23.91250,50056
23.92185,49897
23.93118,47872
23.94052,48188
23.94987,49807
23.95920,49323
23.96853,48969
23.97788,45818
23.98722,45421
23.99655,49177
24.00590,47646
24.01523,49470
24.02457,50353
24.03392,46761
24.04325,45012
24.05260,44767
24.06193,45212
24.07127,46637
24.08062,46385
24.08995,48336
24.09928,48907
24.10863,47985
24.11797,47156
24.12730,49295
24.13665,46700
24.14598,47676
24.15532,48716
24.16467,46252
24.17400,47892
24.18333,46604
24.19268,45421
24.20202,46614
24.21135,47621
24.22070,46227
24.23003,49702
24.23938,52167
24.24872,54072
24.25805,52102
24.26740,51078
24.27673,50884
24.28607,48850
24.29542,48604
24.30475,48917
24.31408,53841
24.32343,54948
24.33277,56351
24.34210,54868
24.35145,51678
24.36078,49982
24.37012,50621
24.37947,53112
24.38880,52599
24.39815,53353
24.40748,52526
24.41682,50129
24.42617,50154
24.43550,49646
24.44483,49528
24.45418,48205
24.46352,49120
24.47285,46629
24.48220,48580
24.49153,50145
24.50087,49441
24.51022,51561
24.51955,48245
24.52888,48365
24.53823,52584
24.54757,60448
24.55690,76817
24.56625,96184
24.57558,94274
24.58493,79782
24.59427,62498
24.60360,57015
24.61295,55463
24.62228,57884
24.63162,58350
24.64097,53582
24.65030,51255
24.65963,50967
24.66898,55142
24.67832,53653
24.68765,53235
24.69700,52220
24.70633,53762
24.71567,51271
24.72502,50121
24.73435,49962
24.74368,48888
24.75303,49406
24.76237,48327
24.77172,47755
24.78105,49756
24.79038,49780
24.79973,48469
24.80907,50201
24.81840,49844
24.82775,50989
24.83708,49016
24.84642,46441
24.85577,48734
24.86510,48039
24.87443,49923
24.88378,52910
24.89312,49394
24.90245,52257
24.91180,51380
24.92113,51599
24.93047,51514
24.93982,51592
24.94915,50816
24.95850,52558
24.96783,50925
24.97717,49367
24.98652,49345
24.99585,51609
25.00518,50588
25.01453,51289
25.02387,51239
25.03320,50077
25.04255,51921
25.05188,50023
25.06122,50440
25.07057,49519
25.07990,52318
25.08923,49565
25.09858,49071
25.10792,49687
25.11725,52386
25.12660,50168
25.13593,52402
25.14528,53854
25.15462,56444
25.16395,55119
25.17330,55016
25.18263,53744
25.19197,53489
25.20132,53396
25.21065,53056
25.21998,53167
25.22933,52913
25.23867,52249
25.24800,53721
25.25735,52903
25.26668,50368
25.27602,51701
25.28537,51024
25.29470,52449
25.30403,51504
25.31338,57576
25.32272,77788
25.33207,118086
25.34140,161868
25.35073,155830
25.36008,111602
25.36942,87438
25.37875,76925
25.38810,70761
25.39743,66116
25.40677,66868
25.41612,62458
25.42545,64683
25.43478,61683
25.44413,61472
25.45347,61679
25.46280,63280
25.47215,63392
25.48148,65575
25.49083,69858
25.50017,70777
25.50950,70219
25.51885,66948
25.52818,68083
25.53752,64959
25.54687,64981
25.55620,63785
25.56553,63324
25.57488,62255
25.58422,63165
25.59355,62194
25.60290,61587
25.61223,60790
25.62157,60687
25.63092,61258
25.64025,58458
25.64958,58909
25.65893,62810
25.66827,63083
25.67762,64869
25.68695,61171
25.69628,60529
25.70563,59617
25.71497,56978
25.72430,58208
25.73365,57965
25.74298,58556
25.75232,60394
25.76167,59932
25.77100,61166
25.78033,59610
25.78968,59562
25.79902,61171
25.80835,62157
25.81770,59455
25.82703,62741
25.83637,63359
25.84572,63205
25.85505,62390
25.86440,59746
25.87373,55884
25.88307,59532
25.89242,58796
25.90175,56336
25.91108,56578
25.92043,57408
25.92977,58249
25.93910,56820
25.94845,58414
25.95778,59640
25.96712,60947
25.97647,60889
25.98580,59461
25.99513,61868
26.00448,57924
26.01382,57523
26.02315,59781
26.03250,58744
26.04183,61049
26.05118,60604
26.06052,61168
26.06985,62113
26.07920,61255
26.08853,59106
26.09787,61090
26.10722,61821
26.11655,58960
26.12588,60015
26.13523,61784
26.14457,66526
26.15390,68574
26.16325,68813
26.17258,65551
26.18192,64902
26.19127,62841
26.20060,60504
26.20995,58914
26.21928,61428
26.22862,59953
26.23797,57824
26.24730,58353
26.25663,58276
26.26598,58787
26.27532,59587
26.28465,59214
26.29400,60638
26.30333,62194
26.31267,59500
26.32202,63127
26.33135,60200
26.34068,59531
26.35003,58936
26.35937,59073
26.36870,58722
26.37805,58605
26.38738,58109
26.39673,57828
26.40607,58367
26.41540,59985
26.42475,60771
26.43408,63717
26.44342,66327
26.45277,63966
26.46210,62788
26.47143,65031
26.48078,63226
26.49012,62417
26.49945,64439
26.50880,63812
26.51813,65354
26.52747,63619
26.53682,66438
26.54615,65380
26.55548,65704
26.56483,63554
26.57417,63097
26.58352,60943
26.59285,64525
26.60218,64328
26.61153,62527
26.62087,66182
26.63020,61882
26.63955,59976
26.64888,61172
26.65822,59295
26.66757,59346
26.67690,61863
26.68623,61086
26.69558,59676
26.70492,59104
26.71425,58988
26.72360,60038
26.73293,60070
26.74227,60841
26.75162,60170
26.76095,61194
26.77030,62160
26.77963,61966
26.78897,62694
26.79832,64749
26.80765,63782
26.81698,65839
26.82633,66655
26.83567,68794
26.84500,65561
26.85435,65485
26.86368,64716
26.87302,63476
26.88237,65352
26.89170,64109
26.90103,65286
26.91038,59820
26.91972,64093
26.92905,61251
26.93840,60846
26.94773,61508
26.95708,59160
26.96642,62367
26.97575,61538
26.98510,63526
26.99443,62903
27.00377,64027
27.01312,66586
27.02245,63637
27.03178,64434
27.04113,64937
27.05047,66646
27.05980,65799
27.06915,65103
27.07848,68920
27.08782,64954
27.09717,65642
27.10650,63010
27.11583,63998
27.12518,65993
27.13452,65071
27.14387,67957
27.15320,66667
27.16253,67079
27.17188,66533
27.18122,65579
27.19055,62829
27.19990,65573
27.20923,64496
27.21857,64034
27.22792,64639
27.23725,66571
27.24658,67870
27.25593,71497
27.26527,72220
27.27460,74558
27.28395,68705
27.29328,66472
27.30263,67516
27.31197,65716
27.32130,65474
27.33065,65016
27.33998,66375
27.34932,66117
27.35867,64646
27.36800,65682
27.37733,67721
27.38668,65312
27.39602,64335
27.40535,67669
27.41470,67600
27.42403,68215
27.43337,69930
27.44272,66877
27.45205,68111
27.46138,65398
27.47073,68309
27.48007,66090
27.48942,68170
27.49875,70315
27.50808,70269
27.51743,73090
27.52677,73096
27.53610,73686
27.54545,72397
27.55478,73435
27.56412,70760
27.57347,69457
27.58280,67986
27.59213,70372
27.60148,70917
27.61082,69670
27.62015,71111
27.62950,68742
27.63883,69175
27.64817,67910
27.65752,72371
27.66685,74535
27.67620,89381
27.68553,102027
27.69487,98537
27.70422,89157
27.71355,83730
27.72288,75503
27.73223,75541
27.74157,73780
27.75090,74449
27.76025,72089
27.76958,72619
27.77892,71785
27.78827,72710
27.79760,71817
27.80693,71934
27.81628,71351
27.82562,70729
27.83495,68195
27.84430,70326
27.85363,72830
27.86298,71655
27.87232,71954
27.88165,72123
27.89100,69024
27.90033,72669
27.90967,72129
27.91902,70178
27.92835,69859
27.93768,68883
27.94703,70734
27.95637,70978
27.96570,71490
27.97505,72417
27.98438,71668
27.99372,70478
28.00307,70301
28.01240,69014
28.02175,66920
28.03108,70265
28.04042,72040
28.04977,68187
28.05910,69679
28.06843,71774
28.07778,69192
28.08712,72413
28.09645,70748
28.10580,73192
28.11513,76740
28.12447,82059
28.13382,89835
28.14315,86983
28.15248,81603
28.16183,79207
28.17117,76023
28.18050,74812
28.18985,75422
28.19918,73816
28.20853,73715
28.21787,74251
28.22720,72858
28.23655,74854
28.24588,74128
28.25522,72152
28.26457,74027
28.27390,75127
28.28323,71105
28.29258,71080
28.30192,72820
28.31125,71785
28.32060,71722
28.32993,72614
28.33927,71549
28.34862,69725
28.35795,71599
28.36728,72668
28.37663,73728
28.38597,72379
28.39532,73034
28.40465,72482
28.41398,72618
28.42333,75355
28.43267,74079
28.44200,75174
28.45135,77046
28.46068,76287
28.47002,76217
28.47937,74858
28.48870,73835
28.49803,74931
28.50738,72898
28.51672,78289
28.52605,75152
28.53540,75452
28.54473,77699
28.55407,75303
28.56342,76658
28.57275,76488
28.58210,76087
28.59143,80241
28.60077,79079
28.61012,83195
28.61945,79847
28.62878,81353
28.63813,78914
28.64747,78451
28.65680,80555
28.66615,88271
28.67548,101967
28.68482,124942
28.69417,129740
28.70350,119233
28.71283,101878
28.72218,90352
28.73152,86622
28.74085,87729
28.75020,84647
28.75953,84074
28.76888,82157
28.77822,82974
28.78755,79342
28.79690,81554
28.80623,80013
28.81557,81089
28.82492,81843
28.83425,82965
28.84358,81747
28.85293,84568
28.86227,82365
28.87160,82370
28.88095,83994
28.89028,83316
28.89962,82975
28.90897,82358
28.91830,83495
28.92765,81918
28.93698,83926
28.94632,84423
28.95567,82774
28.96500,85240
28.97433,88388
28.98368,87360
28.99302,88018
29.00235,85535
29.01170,83674
29.02103,81603
29.03037,85789
29.03972,84556
29.04905,83689
29.05838,85228
29.06773,84796
29.07707,84023
29.08640,85531
29.09575,84865
29.10508,87079
29.11443,87111
29.12377,86421
29.13310,83315
29.14245,85941
29.15178,85772
29.16112,84585
29.17047,84683
29.17980,87078
29.18913,91155
29.19848,106555
29.20782,122473
29.21715,134140
29.22650,124911
29.23583,111722
29.24517,100227
29.25452,98984
29.26385,93962
29.27318,91320
29.28253,89318
29.29187,88278
29.30122,93132
29.31055,87883
29.31988,88236
29.32923,90972
29.33857,87764
29.34790,88009
29.35725,88784
29.36658,92778
29.37592,91640
29.38527,89366
29.39460,91426
29.40393,90496
29.41328,89681
29.42262,91068
29.43195,89759
29.44130,92462
29.45063,91789
29.45997,91642
29.46932,93334
29.47865,95550
29.48800,97291
29.49733,95622
29.50667,92897
29.51602,92572
29.52535,91720
29.53468,89930
29.54403,92784
29.55337,89498
29.56270,88599
29.57205,89960
29.58138,89817
29.59072,89385
29.60007,86300
29.60940,87795
29.61873,89641
29.62808,88411
29.63742,87490
29.64677,86902
29.65610,87797
29.66543,88495
29.67478,87845
29.68412,85960
29.69345,92065
29.70280,90482
29.71213,87970
29.72147,89625
29.73082,86047
29.74015,91670
29.74948,92545
29.75883,89802
29.76817,91538
29.77750,92620
29.78685,96761
29.79618,101526
29.80552,103346
29.81487,102859
29.82420,97108
29.83355,94374
29.84288,91721
29.85222,92654
29.86157,89860
29.87090,90650
29.88023,90721
29.88958,90945
29.89892,89060
29.90825,88415
29.91760,91799
29.92693,91673
29.93627,92331
29.94562,91613
29.95495,93768
29.96428,89947
29.97363,91603
29.98297,92959
29.99230,95223
30.00165,94245
30.01098,92241
30.02033,93185
30.02967,91679
30.03900,88308
30.04835,88714
30.05768,87414
30.06702,89131
30.07637,88309
30.08570,88844
30.09503,88532
30.10438,89055
30.11372,88508
30.12305,90895
30.13240,90211
30.14173,91412
30.15107,94363
30.16042,93272
30.16975,92216
30.17908,91578
30.18843,92867
30.19777,91374
30.20712,88447
30.21645,90394
30.22578,87905
30.23513,92534
30.24447,89258
30.25380,91623
30.26315,89533
30.27248,89655
30.28182,89489
30.29117,88662
30.30050,91851
30.30983,90111
30.31918,89878
30.32852,92861
30.33785,91409
30.34720,92359
30.35653,91204
30.36587,91356
30.37522,99158
30.38455,100157
30.39390,118167
30.40323,143179
30.41257,159358
30.42192,166595
30.43125,149840
30.44058,131994
30.44993,119161
30.45927,108999
30.46860,103429
30.47795,101909
30.48728,100924
30.49662,98987
30.50597,100027
30.51530,98189
30.52463,97892
30.53398,93559
30.54332,93399
30.55265,91882
30.56200,92128
30.57133,94662
30.58068,96338
30.59002,94327
30.59935,98908
30.60870,98200
30.61803,103591
30.62737,105684
30.63672,111420
30.64605,115948
30.65538,118064
30.66473,118596
30.67407,118066
30.68340,118958
30.69275,114395
30.70208,111722
30.71142,110284
30.72077,109964
30.73010,103554
30.73945,103202
30.74878,102774
30.75812,99550
30.76747,100246
30.77680,98685
30.78613,98670
30.79548,97724
30.80482,101631
30.81415,97382
30.82350,97338
30.83283,99735
30.84217,95915
30.85152,98443
30.86085,100081
30.87018,99842
30.87953,100706
30.88887,105954
30.89820,107346
30.90755,107651
30.91688,109621
30.92623,109698
30.93557,111573
30.94490,111261
30.95425,111092
30.96358,110119
30.97292,110437
30.98227,111676
30.99160,110129
31.00093,110352
31.01028,106579
31.01962,105883
31.02895,104783
31.03830,103748
31.04763,104865
31.05697,100954
31.06632,102668
31.07565,102695
31.08498,104328
31.09433,100294
31.10367,103225
31.11302,102998
31.12235,102783
31.13168,104127
31.14103,105172
31.15037,106593
31.15970,108539
31.16905,108237
31.17838,108681
31.18772,110505
31.19707,110000
31.20640,112295
31.21573,111297
31.22508,110340
31.23442,111527
31.24375,112865
31.25310,110545
31.26243,109733
31.27177,110715
31.28112,109422
31.29045,107944
31.29980,107385
31.30913,108654
31.31847,104767
31.32782,105079
31.33715,104360
31.34648,105854
31.35583,106672
31.36517,105920
