D:\数据\20211215\ZS1E-TJ-000204.D Wed Dec 15 13:32:10 2021
Start of data points
0.09775,28187
0.10708,29063
0.11642,29091
0.12577,29381
0.13510,29033
0.14443,28987
0.15378,29141
0.16312,28833
0.17245,29145
0.18180,29826
0.19113,29832
0.20047,28732
0.20982,28627
0.21915,28272
0.22850,28409
0.23783,28219
0.24717,28129
0.25652,27065
0.26585,29308
0.27518,27469
0.28453,27244
0.29387,27764
0.30320,28623
0.31255,27175
0.32188,26826
0.33122,28156
0.34057,27626
0.34990,28328
0.35923,27820
0.36858,27461
0.37792,26851
0.38725,27269
0.39660,27130
0.40593,23583
0.41528,20814
0.42462,18353
0.43395,13930
0.44330,8360
0.45263,7050
0.46197,7023
0.47132,6546
0.48065,5930
0.48998,6469
0.49933,5495
0.50867,6522
0.51800,6180
0.52735,5153
0.53668,5469
0.54602,5309
0.55537,5350
0.56470,5998
0.57403,5386
0.58338,5596
0.59272,5132
0.60207,4975
0.61140,5374
0.62073,4948
0.63008,5909
0.63942,5816
0.64875,5324
0.65810,5798
0.66743,5169
0.67677,5725
0.68612,5040
0.69545,5545
0.70478,5085
0.71413,5460
0.72347,5313
0.73280,5434
0.74215,5223
0.75148,4829
0.76082,5275
0.77017,5581
0.77950,4945
0.78885,5958
0.79818,5439
0.80752,5789
0.81687,4833
0.82620,4686
0.83553,4925
0.84488,5097
0.85422,4595
0.86355,4536
0.87290,5043
0.88223,5468
0.89157,5143
0.90092,4580
0.91025,4841
0.91958,4897
0.92893,5328
0.93827,5108
0.94760,4770
0.95695,5177
0.96628,5334
0.97563,4626
0.98497,4741
0.99430,4959
1.00365,5215
1.01298,4661
1.02232,4729
1.03167,4688
1.04100,4244
1.05033,4934
1.05968,4888
1.06902,4826
1.07835,4084
1.08770,4796
1.09703,4116
1.10637,4818
1.11572,5187
1.12505,4557
1.13440,4531
1.14373,4547
1.15307,5129
1.16242,4930
1.17175,4489
1.18108,4542
1.19043,4648
1.19977,4889
1.20910,4865
1.21845,5239
1.22778,4765
1.23712,4534
1.24647,4729
1.25580,4144
1.26513,4289
1.27448,5385
1.28382,4018
1.29315,4895
1.30250,4935
1.31183,4790
1.32118,4683
1.33052,5064
1.33985,4485
1.34920,4914
1.35853,5178
1.36787,4080
1.37722,4538
1.38655,4825
1.39588,4765
1.40523,4320
1.41457,4867
1.42390,4078
1.43325,4700
1.44258,4052
1.45192,4983
1.46127,5078
1.47060,5334
1.47993,4685
1.48928,4912
1.49862,3838
1.50797,4862
1.51730,5041
1.52663,4513
1.53598,4336
1.54532,4229
1.55465,4998
1.56400,4914
1.57333,5843
1.58267,9476
1.59202,17104
1.60135,22456
1.61068,28176
1.62003,39535
1.62937,52995
1.63870,59045
1.64805,58300
1.65738,54172
1.66672,46802
1.67607,38481
1.68540,34103
1.69475,27215
1.70408,20694
1.71342,21340
1.72277,23643
1.73210,24937
1.74143,30730
1.75078,34576
1.76012,39744
1.76945,40236
1.77880,40360
1.78813,38566
1.79747,39555
1.80682,37581
1.81615,37566
1.82548,39028
1.83483,38174
1.84417,36122
1.85352,35521
1.86285,36527
1.87218,40828
1.88153,55582
1.89087,86617
1.90020,133544
1.90955,169764
1.91888,223258
1.92822,374444
1.93757,681598
1.94690,1082008
1.95623,1351362
1.96558,1320152
1.97492,1085974
1.98425,812116
1.99360,606027
2.00293,507725
2.01227,483684
2.02162,494883
2.03095,466278
2.04030,354283
2.04963,239421
2.05897,172252
2.06832,126674
2.07765,104859
2.08698,86426
2.09633,73471
2.10567,67280
2.11500,66589
2.12435,71551
2.13368,92208
2.14302,152403
2.15237,180676
2.16170,154349
2.17103,126828
2.18038,123926
2.18972,193938
2.19905,258721
2.20840,196185
2.21773,124127
2.22708,110470
2.23642,149013
2.24575,225767
2.25510,855266
2.26443,2619433
2.27377,2827368
2.28312,2062666
2.29245,1253690
2.30178,854918
2.31113,1803682
2.32047,4756745
2.32980,5515883
2.33915,3332159
2.34848,1476744
2.35782,661787
2.36717,335892
2.37650,224832
2.38583,207169
2.39518,182168
2.40452,155300
2.41387,138732
2.42320,125119
2.43253,120555
2.44188,107848
2.45122,92592
2.46055,89752
2.46990,130271
2.47923,201809
2.48857,203592
2.49792,154783
2.50725,115799
2.51658,97580
2.52593,84783
2.53527,76939
2.54460,77630
2.55395,82541
2.56328,91099
2.57262,231900
2.58197,345819
2.59130,298994
2.60065,232843
2.60998,193840
2.61932,204213
2.62867,226084
2.63800,205703
2.64733,171292
2.65668,144774
2.66602,138846
2.67535,124923
2.68470,100980
2.69403,81009
2.70337,71339
2.71272,74634
2.72205,106438
2.73138,151120
2.74073,174451
2.75007,193882
2.75940,232573
2.76875,305591
2.77808,458111
2.78743,596055
2.79677,567632
2.80610,363256
2.81545,256978
2.82478,216841
2.83412,187302
2.84347,158691
2.85280,152244
2.86213,169889
2.87148,207719
2.88082,253065
2.89015,213870
2.89950,162081
2.90883,128709
2.91817,113726
2.92752,109221
2.93685,97318
2.94620,84454
2.95553,74834
2.96487,70354
2.97422,65676
2.98355,64983
2.99288,63564
3.00223,65508
3.01157,74080
3.02090,70406
3.03025,68248
3.03958,87495
3.04892,135694
3.05827,161616
3.06760,177097
3.07693,182558
3.08628,151620
3.09562,109625
3.10495,79849
3.11430,65911
3.12363,59286
3.13298,59507
3.14232,63475
3.15165,69986
3.16100,76873
3.17033,84267
3.17967,73418
3.18902,67279
3.19835,63741
3.20768,91327
3.21703,101833
3.22637,88796
3.23570,75820
3.24505,66231
3.25438,61326
3.26372,58730
3.27307,58176
3.28240,55281
3.29173,52470
3.30108,57620
3.31042,60382
3.31977,58926
3.32910,55484
3.33843,54374
3.34778,55839
3.35712,53954
3.36645,53584
3.37580,52616
3.38513,50495
3.39447,47299
3.40382,51608
3.41315,65860
3.42248,82041
3.43183,78122
3.44117,71905
3.45050,77480
3.45985,83163
3.46918,80454
3.47853,71134
3.48787,68936
3.49720,65256
3.50655,62425
3.51588,57721
3.52522,55584
3.53457,55143
3.54390,59326
3.55323,101044
3.56258,243659
3.57192,443179
3.58125,473508
3.59060,324870
3.59993,186998
3.60927,121010
3.61862,97782
3.62795,124839
3.63728,115658
3.64663,97768
3.65597,85598
3.66532,77422
3.67465,81857
3.68398,82992
3.69333,75667
3.70267,63392
3.71200,61014
3.72135,68456
3.73068,77399
3.74002,74832
3.74937,66782
3.75870,60286
3.76803,54784
3.77738,52721
3.78672,48883
3.79605,47437
3.80540,51002
3.81473,64360
3.82407,79482
3.83342,78861
3.84275,69264
3.85210,60052
3.86143,59237
3.87077,56554
3.88012,60785
3.88945,65819
3.89878,77586
3.90813,84870
3.91747,80750
3.92680,76847
3.93615,80981
3.94548,91396
3.95482,130696
3.96417,158974
3.97350,148202
3.98283,127843
3.99218,125492
4.00152,139823
4.01085,153331
4.02020,165429
4.02953,194039
4.03888,230126
4.04822,304890
4.05755,324126
4.06690,245341
4.07623,178393
4.08557,175599
4.09492,179795
4.10425,159159
4.11358,120211
4.12293,90389
4.13227,75690
4.14160,69420
4.15095,64971
4.16028,66142
4.16962,63368
4.17897,61708
4.18830,56891
4.19763,54682
4.20698,56988
4.21632,57728
4.22567,57082
4.23500,55867
4.24433,54911
4.25368,52730
4.26302,52756
4.27235,57922
4.28170,71563
4.29103,87447
4.30037,87447
4.30972,104777
4.31905,99339
4.32838,94557
4.33773,91221
4.34707,84739
4.35640,74317
4.36575,66535
4.37508,59724
4.38442,64575
4.39377,70736
4.40310,75194
4.41245,66181
4.42178,58146
4.43112,52148
4.44047,48733
4.44980,47958
4.45913,50010
4.46848,56577
4.47782,67678
4.48715,80357
4.49650,78766
4.50583,63966
4.51517,56497
4.52452,54563
4.53385,52683
4.54318,53525
4.55253,57350
4.56187,55453
4.57122,56119
4.58055,56069
4.58988,52529
4.59923,53249
4.60857,51831
4.61790,50689
4.62725,47289
4.63658,49781
4.64592,51496
4.65527,57199
4.66460,63415
4.67393,62144
4.68328,62244
4.69262,66409
4.70195,75344
4.71130,79195
4.72063,68357
4.72997,56300
4.73932,47731
4.74865,49673
4.75800,52342
4.76733,54500
4.77667,55747
4.78602,54791
4.79535,54066
4.80468,52082
4.81403,52013
4.82337,51860
4.83270,54211
4.84205,58838
4.85138,60714
4.86072,56531
4.87007,58970
4.87940,67887
4.88873,71506
4.89808,64764
4.90742,57304
4.91675,49425
4.92610,48813
4.93543,52954
4.94478,57540
4.95412,60138
4.96345,54937
4.97280,50451
4.98213,47592
4.99147,47198
5.00082,48377
5.01015,50801
5.01948,58382
5.02883,66307
5.03817,72352
5.04750,70629
5.05685,65416
5.06618,56777
5.07552,57687
5.08487,61413
5.09420,62354
5.10353,60250
5.11288,53682
5.12222,52869
5.13157,53014
5.14090,51953
5.15023,59705
5.15958,67311
5.16892,66320
5.17825,63504
5.18760,61873
5.19693,67122
5.20627,75300
5.21562,70067
5.22495,61220
5.23428,58047
5.24363,59930
5.25297,60058
5.26230,58276
5.27165,76180
5.28098,165516
5.29033,327807
5.29967,411099
5.30900,318814
5.31835,170206
5.32768,90159
5.33702,67367
5.34637,59890
5.35570,55199
5.36503,55443
5.37438,57861
5.38372,59736
5.39305,71178
5.40240,75184
5.41173,69453
5.42107,62698
5.43042,55297
5.43975,49608
5.44908,49687
5.45843,47231
5.46777,46772
5.47712,47895
5.48645,48337
5.49578,49370
5.50513,51222
5.51447,54627
5.52380,58130
5.53315,61782
5.54248,67347
5.55182,64729
5.56117,64735
5.57050,68037
5.57983,77455
5.58918,82280
5.59852,89088
5.60785,91055
5.61720,75665
5.62653,62869
5.63587,54846
5.64522,54481
5.65455,54503
5.66390,60601
5.67323,61162
5.68257,70145
5.69192,79556
5.70125,73127
5.71058,69539
5.71993,71396
5.72927,65809
5.73860,63708
5.74795,68704
5.75728,78507
5.76662,83955
5.77597,97571
5.78530,105092
5.79463,89803
5.80398,74398
5.81332,59364
5.82265,56122
5.83200,65680
5.84133,72150
5.85068,64168
5.86002,51704
5.86935,41149
5.87870,40604
5.88803,38275
5.89737,37008
5.90672,40200
5.91605,68901
5.92538,129133
5.93473,170721
5.94407,154310
5.95340,138573
5.96275,130619
5.97208,103216
5.98142,70057
5.99077,47701
6.00010,35452
6.00943,30202
6.01878,29822
6.02812,27194
6.03747,27048
6.04680,28529
6.05613,27688
6.06548,27647
6.07482,29659
6.08415,27214
6.09350,23459
6.10283,22151
6.11217,23011
6.12152,27371
6.13085,40245
6.14018,54924
6.14953,57800
6.15887,42963
6.16820,29242
6.17755,23699
6.18688,23071
6.19623,21563
6.20557,20673
6.21490,20817
6.22425,21809
6.23358,23438
6.24292,26928
6.25227,27851
6.26160,25625
6.27093,26819
6.28028,38162
6.28962,47558
6.29895,43308
6.30830,33072
6.31763,24064
6.32697,21625
6.33632,21395
6.34565,20730
6.35498,20920
6.36433,21061
6.37367,21848
6.38302,28189
6.39235,57587
6.40168,250287
6.41103,909026
6.42037,1709559
6.42970,1677577
6.43905,933135
6.44838,346400
6.45772,113797
6.46707,54722
6.47640,40545
6.48573,32788
6.49508,28697
6.50442,27444
6.51375,27266
6.52310,26165
6.53243,25414
6.54177,24709
6.55112,23279
6.56045,21346
6.56980,20518
6.57913,21902
6.58847,21465
6.59782,24184
6.60715,25636
6.61648,26161
6.62583,27704
6.63517,29767
6.64450,31707
6.65385,30970
6.66318,34431
6.67252,34662
6.68187,31932
6.69120,28375
6.70053,36202
6.70988,46927
6.71922,50660
6.72855,44363
6.73790,37084
6.74723,30091
6.75658,30227
6.76592,27539
6.77525,26005
6.78460,27576
6.79393,32138
6.80327,35570
6.81262,37211
6.82195,32593
6.83128,27530
6.84063,26255
6.84997,28558
6.85930,29720
6.86865,30516
6.87798,28237
6.88732,25412
6.89667,25143
6.90600,25630
6.91535,33173
6.92468,38353
6.93402,39059
6.94337,33588
6.95270,29486
6.96203,29524
6.97138,29556
6.98072,30767
6.99005,31541
6.99940,28975
7.00873,25711
7.01807,25524
7.02742,23966
7.03675,22156
7.04608,19627
7.05543,19292
7.06477,16595
7.07410,16704
7.08345,20017
7.09278,22478
7.10213,26633
7.11147,29908
7.12080,30505
7.13015,28853
7.13948,26586
7.14882,23558
7.15817,19662
7.16750,20692
7.17683,19653
7.18618,20639
7.19552,21313
7.20485,22468
7.21420,24122
7.22353,26842
7.23287,46946
7.24222,89164
7.25155,125342
7.26088,105086
7.27023,61643
7.27957,37548
7.28892,31972
7.29825,29213
7.30758,26482
7.31693,25481
7.32627,21764
7.33560,21293
7.34495,21040
7.35428,22630
7.36362,19869
7.37297,20522
7.38230,23271
7.39163,38388
7.40098,91666
7.41032,193071
7.41965,251855
7.42900,220350
7.43833,136958
7.44767,72544
7.45702,38068
7.46635,27073
7.47570,23629
7.48503,29219
7.49437,37341
7.50372,38072
7.51305,31699
7.52238,26421
7.53173,23043
7.54107,21400
7.55040,20167
7.55975,21838
7.56908,23734
7.57842,25850
7.58777,27968
7.59710,29798
7.60643,31961
7.61578,33672
7.62512,34798
7.63445,34273
7.64380,32096
7.65313,27900
7.66248,26550
7.67182,24795
7.68115,26624
7.69050,27898
7.69983,27908
7.70917,27555
7.71852,26545
7.72785,27852
7.73718,27298
7.74653,30481
7.75587,34228
7.76520,35102
7.77455,36079
7.78388,36230
7.79322,37796
7.80257,37590
7.81190,34102
7.82123,27743
7.83058,24160
7.83992,24264
7.84927,26999
7.85860,42148
7.86793,75468
7.87728,108602
7.88662,105065
7.89595,74060
7.90530,55364
7.91463,71841
7.92397,105545
7.93332,117787
7.94265,84972
7.95198,58552
7.96133,71437
7.97067,78327
7.98000,67566
7.98935,52346
7.99868,44814
8.00803,39086
8.01737,35687
8.02670,34468
8.03605,41705
8.04538,59812
8.05472,72210
8.06407,61369
8.07340,40470
8.08273,34243
8.09208,56935
8.10142,95699
8.11075,100520
8.12010,74753
8.12943,50254
8.13877,35813
8.14812,33451
8.15745,31418
8.16678,31415
8.17613,28394
8.18547,25294
8.19482,25883
8.20415,27112
8.21348,28407
8.22283,27218
8.23217,29492
8.24150,32613
8.25085,35959
8.26018,36654
8.26952,32186
8.27887,29523
8.28820,26953
8.29753,24740
8.30688,26468
8.31622,27083
8.32555,26305
8.33490,26136
8.34423,27005
8.35357,25625
8.36292,24617
8.37225,25089
8.38160,24395
8.39093,33361
8.40027,39734
8.40962,40884
8.41895,40597
8.42828,38107
8.43763,36144
8.44697,33612
8.45630,29281
8.46565,28504
8.47498,28792
8.48432,28153
8.49367,29137
8.50300,28351
8.51233,27277
8.52168,25239
8.53102,25673
8.54035,24931
8.54970,26666
8.55903,26604
8.56838,27071
8.57772,27885
8.58705,30754
8.59640,33488
8.60573,37467
8.61507,36973
8.62442,37527
8.63375,33921
8.64308,29797
8.65243,28490
8.66177,29342
8.67110,28505
8.68045,26793
8.68978,26068
8.69912,26489
8.70847,28315
8.71780,27293
8.72715,26448
8.73648,25841
8.74582,25124
8.75517,28875
8.76450,29843
8.77383,31584
8.78318,30418
8.79252,33302
8.80185,49964
8.81120,80148
8.82053,98107
8.82987,81885
8.83922,52192
8.84855,34630
8.85788,28827
8.86723,28529
8.87657,31321
8.88590,31616
8.89525,31789
8.90458,32082
8.91393,29285
8.92327,29846
8.93260,29183
8.94195,27138
8.95128,26960
8.96062,23123
8.96997,25200
8.97930,31037
8.98863,30565
8.99798,31536
9.00732,34772
9.01665,34945
9.02600,35443
9.03533,31076
9.04467,29668
9.05402,28996
9.06335,29792
9.07268,31354
9.08203,33456
9.09137,37342
9.10072,37152
9.11005,33721
9.11938,32935
9.12873,35107
9.13807,37463
9.14740,38229
9.15675,37672
9.16608,31608
9.17542,29009
9.18477,28143
9.19410,28050
9.20343,28852
9.21278,37838
9.22212,69113
9.23145,111189
9.24080,117747
9.25013,88858
9.25947,64108
9.26882,49381
9.27815,45319
9.28750,42039
9.29683,40254
9.30617,38386
9.31552,33815
9.32485,36155
9.33418,40967
9.34353,44563
9.35287,41749
9.36220,68107
9.37155,147401
9.38088,241896
9.39022,239488
9.39957,170984
9.40890,108255
9.41823,73411
9.42758,60383
9.43692,53171
9.44625,51510
9.45560,39231
9.46493,33623
9.47428,29718
9.48362,30053
9.49295,31072
9.50230,34636
9.51163,36812
9.52097,36237
9.53032,37094
9.53965,44938
9.54898,49012
9.55833,61240
9.56767,75384
9.57700,75161
9.58635,57379
9.59568,39061
9.60502,36417
9.61437,37019
9.62370,35854
9.63305,36370
9.64238,37678
9.65172,38246
9.66107,38738
9.67040,37574
9.67973,36284
9.68908,32912
9.69842,33601
9.70775,29987
9.71710,32008
9.72643,62523
9.73577,195382
9.74512,475529
9.75445,706137
9.76378,569786
9.77313,311601
9.78247,163969
9.79180,111431
9.80115,89105
9.81048,70953
9.81983,63977
9.82917,65830
9.83850,71927
9.84785,74908
9.85718,70960
9.86652,60407
9.87587,52180
9.88520,59708
9.89453,73250
9.90388,79504
9.91322,69689
9.92255,61884
9.93190,56956
9.94123,56489
9.95057,47730
9.95992,40903
9.96925,42766
9.97858,57545
9.98793,104261
9.99727,150969
10.00662,148193
10.01595,104311
10.02528,65777
10.03463,46175
10.04397,38550
10.05330,39901
10.06265,46994
10.07198,63106
10.08132,79066
10.09067,75475
10.10000,61694
10.10933,58083
10.11868,115749
10.12802,306543
10.13735,493642
10.14670,480962
10.15603,591724
10.16537,1304655
10.17472,1934987
10.18405,1424563
10.19340,529037
10.20273,124954
10.21207,49705
10.22142,41269
10.23075,45104
10.24008,67130
10.24943,100649
10.25877,98881
10.26810,74979
10.27745,50566
10.28678,40480
10.29612,40069
10.30547,35319
10.31480,38200
10.32413,35541
10.33348,34346
10.34282,34634
10.35217,33797
10.36150,34691
10.37083,37593
10.38018,35419
10.38952,32632
10.39885,30225
10.40820,30252
10.41753,30496
10.42687,35082
10.43622,34824
10.44555,35010
10.45488,36556
10.46423,41712
10.47357,49294
10.48290,48687
10.49225,43245
10.50158,35947
10.51092,32362
10.52027,31394
10.52960,31841
10.53895,31200
10.54828,31202
10.55762,34616
10.56697,33002
10.57630,31032
10.58563,33158
10.59498,29485
10.60432,30131
10.61365,28827
10.62300,29690
10.63233,35279
10.64167,38532
10.65102,40870
10.66035,35120
10.66968,35935
10.67903,40580
10.68837,48134
10.69770,44374
10.70705,43500
10.71638,44357
10.72573,51449
10.73507,49625
10.74440,44929
10.75375,51642
10.76308,87722
10.77242,119977
10.78177,127459
10.79110,205682
10.80043,550590
10.80978,1021311
10.81912,1040410
10.82845,591488
10.83780,212494
10.84713,72651
10.85647,45646
10.86582,42993
10.87515,47850
10.88448,61214
10.89383,65670
10.90317,62062
10.91252,47239
10.92185,39674
10.93118,40790
10.94053,42835
10.94987,39984
10.95920,39875
10.96855,40591
10.97788,39579
10.98722,36993
10.99657,33598
11.00590,33872
11.01523,34827
11.02458,34237
11.03392,32759
11.04325,31936
11.05260,33222
11.06193,32960
11.07127,40889
11.08062,42472
11.08995,41410
11.09930,38884
11.10863,44567
11.11797,63277
11.12732,67338
11.13665,55105
11.14598,46367
11.15533,43670
11.16467,41008
11.17400,39238
11.18335,36481
11.19268,36616
11.20202,33844
11.21137,33289
11.22070,32532
11.23003,34578
11.23938,33981
11.24872,33517
11.25805,35174
11.26740,42130
11.27673,45296
11.28608,41366
11.29542,32959
11.30475,30554
11.31410,31187
11.32343,32087
11.33277,34221
11.34212,45240
11.35145,59216
11.36078,72127
11.37013,75327
11.37947,65316
11.38880,50847
11.39815,47552
11.40748,51749
11.41682,54243
11.42617,50659
11.43550,41631
11.44485,34160
11.45418,35753
11.46352,35178
11.47287,45154
11.48220,53871
11.49153,47033
11.50088,37313
11.51022,32711
11.51955,31351
11.52890,30239
11.53823,29786
11.54757,32688
11.55692,38329
11.56625,59178
11.57558,103994
11.58493,154213
11.59427,152172
11.60360,112792
11.61295,83252
11.62228,66230
11.63163,55492
11.64097,52775
11.65030,66493
11.65965,89439
11.66898,95923
11.67832,80227
11.68767,62250
11.69700,51202
11.70633,44090
11.71568,43500
11.72502,42180
11.73435,40553
11.74370,37238
11.75303,37498
11.76237,37125
11.77172,36876
11.78105,43042
11.79038,50689
11.79973,51508
11.80907,45945
11.81842,41284
11.82775,43539
11.83708,44196
11.84643,43900
11.85577,42431
11.86510,41201
11.87445,39326
11.88378,43456
11.89312,41710
11.90247,37176
11.91180,38544
11.92113,35335
11.93048,34625
11.93982,41303
11.94915,55102
11.95850,63559
11.96783,56146
11.97717,41616
11.98652,34021
11.99585,35721
12.00520,41419
12.01453,57757
12.02387,74539
12.03322,69004
12.04255,58493
12.05188,51708
12.06123,44696
12.07057,37057
12.07990,33595
12.08925,32642
12.09858,34558
12.10792,33880
12.11727,33434
12.12660,32727
12.13593,32624
12.14528,33331
12.15462,37124
12.16397,45466
12.17330,72060
12.18263,112143
12.19198,119749
12.20132,80430
12.21065,49374
12.22000,37242
12.22933,41742
12.23867,48221
12.24802,45806
12.25735,41215
12.26668,51925
12.27603,97865
12.28537,177016
12.29470,187137
12.30405,123232
12.31338,65144
12.32272,45399
12.33207,45374
12.34140,47093
12.35075,49813
12.36008,42518
12.36942,39826
12.37877,41194
12.38810,48239
12.39743,56653
12.40678,58563
12.41612,50141
12.42545,41763
12.43480,40746
12.44413,37535
12.45347,35638
12.46282,37615
12.47215,40132
12.48148,44480
12.49083,43816
12.50017,43804
12.50950,42444
12.51885,41175
12.52818,42790
12.53753,42933
12.54687,43893
12.55620,44736
12.56555,50064
12.57488,53543
12.58422,50001
12.59357,43559
12.60290,36885
12.61223,35541
12.62158,39252
12.63092,51638
12.64025,64581
12.64960,79829
12.65893,80988
12.66827,69644
12.67762,58807
12.68695,50238
12.69628,37426
12.70563,35481
12.71497,35704
12.72432,39493
12.73365,38530
12.74298,38791
12.75233,41183
12.76167,44129
12.77100,40467
12.78035,37690
12.78968,34533
12.79902,37498
12.80837,39598
12.81770,41102
12.82703,41711
12.83638,42083
12.84572,38753
12.85505,35177
12.86440,34034
12.87373,34197
12.88307,34016
12.89242,35131
12.90175,37212
12.91110,39076
12.92043,38873
12.92977,34755
12.93912,35846
12.94845,36422
12.95778,39357
12.96713,38474
12.97647,35991
12.98580,33417
12.99515,34912
13.00448,36767
13.01382,38097
13.02317,41883
13.03250,49764
13.04183,54232
13.05118,51692
13.06052,45711
13.06987,41918
13.07920,50926
13.08853,49200
13.09788,45898
13.10722,42531
13.11655,42484
13.12590,41019
13.13523,46440
13.14457,47622
13.15392,48962
13.16325,50209
13.17258,54786
13.18193,52719
13.19127,57216
13.20060,91396
13.20995,198202
13.21928,314078
13.22862,293834
13.23797,177847
13.24730,117539
13.25665,108000
13.26598,97523
13.27532,82350
13.28467,72425
13.29400,63994
13.30333,56612
13.31268,50348
13.32202,53961
13.33135,58324
13.34070,58457
13.35003,57428
13.35937,55039
13.36872,50924
13.37805,43772
13.38738,43200
13.39673,47349
13.40607,54744
13.41540,53374
13.42475,45166
13.43408,46837
13.44343,53770
13.45277,58869
13.46210,53947
13.47145,50749
13.48078,51945
13.49012,51362
13.49947,49395
13.50880,46690
13.51813,59950
13.52748,98213
13.53682,134271
13.54615,117293
13.55550,76187
13.56483,50790
13.57417,41353
13.58352,39272
13.59285,36328
13.60218,35545
13.61153,35181
13.62087,34672
13.63022,35537
13.63955,40184
13.64888,48475
13.65823,54859
13.66757,51434
13.67690,45473
13.68625,39055
13.69558,37453
13.70492,34391
13.71427,35516
13.72360,33367
13.73293,32731
13.74228,33553
13.75162,33619
13.76095,35145
13.77030,38409
13.77963,37334
13.78898,35289
13.79832,38010
13.80765,44917
13.81700,50271
13.82633,45928
13.83567,39364
13.84502,36920
13.85435,38858
13.86368,39771
13.87303,42827
13.88237,46647
13.89170,59214
13.90105,86002
13.91038,145994
13.91972,247975
13.92907,304251
13.93840,208743
13.94773,105122
13.95708,67894
13.96642,61654
13.97577,54920
13.98510,48038
13.99443,47446
14.00378,46843
14.01312,45576
14.02245,40779
14.03180,41291
14.04113,52881
14.05047,208705
14.05982,1252027
14.06915,4137421
14.07848,7045125
14.08783,6282960
14.09717,2692323
14.10650,565718
14.11585,110641
14.12518,62859
14.13452,53730
14.14387,54296
14.15320,55123
14.16255,54766
14.17188,57759
14.18122,62058
14.19057,78399
14.19990,113918
14.20923,125898
14.21858,87094
14.22792,55246
14.23725,43271
14.24660,36573
14.25593,37817
14.26527,38156
14.27462,41795
14.28395,42258
14.29328,41300
14.30263,38562
14.31197,41522
14.32130,49410
14.33065,64124
14.33998,71100
14.34933,66152
14.35867,53547
14.36800,45412
14.37735,37556
14.38668,36877
14.39602,38870
14.40537,39764
14.41470,37892
14.42403,37235
14.43338,36297
14.44272,39316
14.45205,47671
14.46140,62761
14.47073,76766
14.48007,79207
14.48942,62056
14.49875,49643
14.50808,42982
14.51743,37482
14.52677,36366
14.53612,33163
14.54545,38079
14.55478,40599
14.56413,43922
14.57347,46050
14.58280,45318
14.59215,39440
14.60148,39399
14.61082,37625
14.62017,38337
14.62950,39542
14.63883,46551
14.64818,60795
14.65752,82380
14.66685,88797
14.67620,80390
14.68553,60492
14.69487,49941
14.70422,44679
14.71355,41304
14.72290,39505
14.73223,40178
14.74157,40973
14.75092,42029
14.76025,40954
14.76958,45198
14.77893,47771
14.78827,48039
14.79760,47375
14.80695,45579
14.81628,45003
14.82562,43623
14.83497,43030
14.84430,42658
14.85363,45820
14.86298,51635
14.87232,61414
14.88167,63882
14.89100,58852
14.90033,48338
14.90968,39272
14.91902,39213
14.92835,42624
14.93770,41576
14.94703,43416
14.95637,45295
14.96572,52387
14.97505,62008
14.98438,69502
14.99373,59414
15.00307,52494
15.01240,54514
15.02175,56875
15.03108,53007
15.04042,48242
15.04977,51465
15.05910,57849
15.06845,55307
15.07778,51451
15.08712,48120
15.09647,43516
15.10580,38448
15.11513,40395
15.12448,46285
15.13382,58208
15.14315,60778
15.15250,55425
15.16183,48696
15.17117,42302
15.18052,41196
15.18985,43416
15.19918,54559
15.20853,74736
15.21787,105312
15.22720,114516
15.23655,97163
15.24588,74035
15.25523,57565
15.26457,48237
15.27390,44322
15.28325,45586
15.29258,45528
15.30192,44593
15.31127,43135
15.32060,42511
15.32993,48433
15.33928,58131
15.34862,61088
15.35795,53208
15.36730,55774
15.37663,63529
15.38597,66343
15.39532,55361
15.40465,43125
15.41398,40580
15.42333,41815
15.43267,46407
15.44202,46978
15.45135,43239
15.46068,40759
15.47003,40299
15.47937,41658
15.48870,42725
15.49805,45173
15.50738,51175
15.51672,65185
15.52607,82777
15.53540,79797
15.54473,67120
15.55408,51623
15.56342,43737
15.57275,40045
15.58210,38539
15.59143,40863
15.60078,40101
15.61012,42070
15.61945,43389
15.62880,47814
15.63813,54323
15.64747,60458
15.65682,60836
15.66615,58813
15.67548,56366
15.68483,52026
15.69417,53707
15.70350,63085
15.71285,75688
15.72218,75161
15.73152,58535
15.74087,49678
15.75020,55658
15.75953,62711
15.76888,69273
15.77822,63694
15.78757,55058
15.79690,49868
15.80623,54041
15.81558,83355
15.82492,153847
15.83425,259659
15.84360,359498
15.85293,371969
15.86227,247088
15.87162,129483
15.88095,83263
15.89028,79076
15.89963,88111
15.90897,88750
15.91830,81186
15.92765,65664
15.93698,54899
15.94632,47777
15.95567,44674
15.96500,46779
15.97435,51134
15.98368,62077
15.99302,90361
16.00237,104535
16.01170,91620
16.02103,66628
16.03038,54289
16.03972,48158
16.04905,49543
16.05840,54796
16.06773,53112
16.07707,53473
16.08642,52126
16.09575,50585
16.10508,49562
16.11443,51838
16.12377,57169
16.13310,59045
16.14245,54001
16.15178,51825
16.16113,48650
16.17047,49239
16.17980,46986
16.18915,49139
16.19848,53247
16.20782,61820
16.21717,63142
16.22650,67688
16.23583,68587
16.24518,66821
16.25452,58724
16.26385,55371
16.27320,55050
16.28253,72101
16.29187,123429
16.30122,206046
16.31055,241584
16.31988,181795
16.32923,101823
16.33857,63837
16.34792,52918
16.35725,44522
16.36658,40696
16.37593,39150
16.38527,40713
16.39460,41225
16.40395,43796
16.41328,45835
16.42262,47283
16.43197,48408
16.44130,47497
16.45063,49705
16.45998,52873
16.46932,58143
16.47865,53298
16.48800,52266
16.49733,50784
16.50668,47611
16.51602,54145
16.52535,54473
16.53470,53840
16.54403,51258
16.55337,46283
16.56272,47411
16.57205,43752
16.58138,44122
16.59073,44852
16.60007,46588
16.60940,45508
16.61875,46396
16.62808,51095
16.63742,59915
16.64677,58435
16.65610,57097
16.66543,51645
16.67478,46410
16.68412,50178
16.69347,57694
16.70280,68626
16.71213,66941
16.72148,58655
16.73082,49180
16.74015,56914
16.74950,87553
16.75883,126365
16.76817,116837
16.77752,76127
16.78685,51703
16.79618,45683
16.80553,48353
16.81487,53199
16.82420,59071
16.83355,65376
16.84288,71201
16.85222,67839
16.86157,58311
16.87090,52914
16.88025,49208
16.88958,45759
16.89892,48377
16.90827,55931
16.91760,67031
16.92693,73934
16.93628,69823
16.94562,64880
16.95495,65842
16.96430,73630
16.97363,75977
16.98297,64777
16.99232,58106
17.00165,50841
17.01098,47580
17.02033,49114
17.02967,70234
17.03900,98017
17.04835,105517
17.05768,81179
17.06703,58430
17.07637,53381
17.08570,52683
17.09505,51268
17.10438,48212
17.11372,48012
17.12307,46004
17.13240,48136
17.14173,52326
17.15108,52689
17.16042,48199
17.16975,44039
17.17910,43649
17.18843,45404
17.19777,45324
17.20712,43015
17.21645,43074
17.22580,42595
17.23513,40383
17.24447,41751
17.25382,43231
17.26315,45181
17.27248,48238
17.28183,53759
17.29117,57848
17.30050,57107
17.30985,53372
17.31918,50781
17.32852,54694
17.33787,56515
17.34720,50786
17.35653,45333
17.36588,49348
17.37522,60333
17.38455,118318
17.39390,186019
17.40323,176709
17.41258,114161
17.42192,73820
17.43125,59985
17.44060,53856
17.44993,52381
17.45927,53977
17.46862,53132
17.47795,53778
17.48728,65490
17.49663,202914
17.50597,817184
17.51530,2108952
17.52465,2863713
17.53398,1946332
17.54332,666172
17.55267,153383
17.56200,69157
17.57133,59838
17.58068,64997
17.59002,68705
17.59937,68378
17.60870,59892
17.61803,52262
17.62738,52425
17.63672,53428
17.64605,50708
17.65540,52541
17.66473,60469
17.67407,66605
17.68342,77109
17.69275,89248
17.70208,91508
17.71143,79944
17.72077,72893
17.73010,64427
17.73945,59372
17.74878,57683
17.75812,60834
17.76747,67240
17.77680,70199
17.78615,64514
17.79548,62336
17.80482,58816
17.81417,56151
17.82350,53317
17.83283,49003
17.84218,50092
17.85152,50767
17.86085,59248
17.87020,72007
17.87953,72964
17.88887,66296
17.89822,59369
17.90755,52455
17.91688,48376
17.92623,47481
17.93557,48024
17.94490,52185
17.95425,50157
17.96358,49876
17.97293,51445
17.98227,49122
17.99160,46839
18.00095,45756
18.01028,47821
18.01962,47034
18.02897,48635
18.03830,48656
18.04763,52761
18.05698,57583
18.06632,62495
18.07565,55805
18.08500,49278
18.09433,44574
18.10367,55640
18.11302,69780
18.12235,82600
18.13168,74205
18.14103,65384
18.15037,59159
18.15972,58896
18.16905,58407
18.17838,58575
18.18773,54006
18.19707,51842
18.20640,50029
18.21575,50889
18.22508,50402
18.23442,50422
18.24377,51065
18.25310,47376
18.26243,44179
18.27178,47556
18.28112,51524
18.29045,59075
18.29980,62556
18.30913,64050
18.31848,66337
18.32782,62685
18.33715,61921
18.34650,64753
18.35583,72572
18.36517,79864
18.37452,78055
18.38385,74043
18.39318,72967
18.40253,65051
18.41187,63668
18.42120,59346
18.43055,56589
18.43988,55354
18.44922,60340
18.45857,65813
18.46790,58125
18.47723,53115
18.48658,54285
18.49592,65741
18.50527,81866
18.51460,91025
18.52393,97281
18.53328,82221
18.54262,64389
18.55195,60125
18.56130,61794
18.57063,58227
18.57997,53024
18.58932,51319
18.59865,50557
18.60798,55683
18.61733,61505
18.62667,62280
18.63600,63001
18.64535,63257
18.65468,60868
18.66402,57656
18.67337,55289
18.68270,58487
18.69205,61082
18.70138,65553
18.71072,67160
18.72007,70477
18.72940,70006
18.73873,67458
18.74808,63587
18.75742,57660
18.76675,52320
18.77610,47792
18.78543,46500
18.79477,45863
18.80412,47870
18.81345,47599
18.82278,47499
18.83213,47231
18.84147,47906
18.85082,48878
18.86015,48729
18.86948,45631
18.87883,45357
18.88817,45946
18.89750,48799
18.90685,60130
18.91618,67274
18.92552,70829
18.93487,64873
18.94420,62526
18.95353,63841
18.96288,71033
18.97222,79210
18.98155,81199
18.99090,74001
19.00023,59869
19.00957,54502
19.01892,51031
19.02825,53123
19.03760,55184
19.04693,66425
19.05627,90656
19.06562,107699
19.07495,123540
19.08428,155800
19.09363,187019
19.10297,167183
19.11230,110885
19.12165,69126
19.13098,54508
19.14032,46532
19.14967,45089
19.15900,44554
19.16833,43854
19.17768,43842
19.18702,43952
19.19635,48457
19.20570,53053
19.21503,55071
19.22438,57215
19.23372,56899
19.24305,55335
19.25240,52412
19.26173,46942
19.27107,47562
19.28042,55292
19.28975,64495
19.29908,69157
19.30843,81080
19.31777,101994
19.32710,104261
19.33645,84220
19.34578,65667
19.35512,55368
19.36447,48800
19.37380,46132
19.38313,42878
19.39248,45090
19.40182,52108
19.41117,55908
19.42050,53688
19.42983,48904
19.43918,42659
19.44852,41613
19.45785,43017
19.46720,42048
19.47653,44886
19.48587,50130
19.49522,53303
19.50455,51413
19.51388,46901
19.52323,46095
19.53257,47690
19.54190,47292
19.55125,44130
19.56058,42387
19.56992,45727
19.57927,47683
19.58860,53576
19.59795,53899
19.60728,53026
19.61662,48905
19.62597,47009
19.63530,50697
19.64463,59341
19.65398,54949
19.66332,49970
19.67265,45122
19.68200,47502
19.69133,58418
19.70067,63334
19.71002,70574
19.71935,70924
19.72868,75360
19.73803,84652
19.74737,81776
19.75670,67323
19.76605,56920
19.77538,56293
19.78473,57200
19.79407,58455
19.80340,55739
19.81275,51858
19.82208,46547
19.83142,48443
19.84077,46265
19.85010,43865
19.85943,44598
19.86878,52391
19.87812,67732
19.88745,80643
19.89680,74716
19.90613,58993
19.91547,50619
19.92482,50841
19.93415,49006
19.94350,46836
19.95283,45492
19.96217,49401
19.97152,51867
19.98085,52259
19.99018,44556
19.99953,43989
20.00887,43150
20.01820,44354
20.02755,48272
20.03688,49059
20.04622,52591
20.05557,53046
20.06490,50261
20.07423,48820
20.08358,51517
20.09292,52145
20.10225,50309
20.11160,43905
20.12093,42328
20.13028,40627
20.13962,41769
20.14895,47067
20.15830,57482
20.16763,62440
20.17697,56346
20.18632,51102
20.19565,43882
20.20498,44435
20.21433,42633
20.22367,44907
20.23300,45702
20.24235,46202
20.25168,46099
20.26102,46354
20.27037,45260
20.27970,44232
20.28903,43484
20.29838,42972
20.30772,42415
20.31707,40925
20.32640,39693
20.33573,35476
20.34508,37330
20.35442,40575
20.36375,42017
20.37310,44920
20.38243,43169
20.39177,40779
20.40112,38284
20.41045,39809
20.41978,40605
20.42913,39614
20.43847,39694
20.44780,40216
20.45715,40751
20.46648,44029
20.47582,52560
20.48517,56436
20.49450,51592
20.50385,45639
20.51318,42638
20.52252,41979
20.53187,41553
20.54120,42885
20.55053,45652
20.55988,56650
20.56922,109341
20.57855,229074
20.58790,320038
20.59723,248404
20.60657,129166
20.61592,69065
20.62525,53500
20.63458,52105
20.64393,52226
20.65327,52344
20.66262,51489
20.67195,48135
20.68128,46525
20.69063,48587
20.69997,49286
20.70930,50160
20.71865,48604
20.72798,49677
20.73732,50088
20.74667,47965
20.75600,45817
20.76533,45576
20.77468,45684
20.78402,43978
20.79335,49620
20.80270,56757
20.81203,58456
20.82137,52918
20.83072,45716
20.84005,42591
20.84940,42832
20.85873,41158
20.86807,40788
20.87742,40456
20.88675,41177
20.89608,43400
20.90543,45761
20.91477,46993
20.92410,44214
20.93345,41473
20.94278,43442
20.95212,39999
20.96147,40061
20.97080,38723
20.98013,38778
20.98948,37515
20.99882,39316
21.00815,40970
21.01750,40938
21.02683,40515
21.03618,40811
21.04552,39482
21.05485,45001
21.06420,42304
21.07353,42336
21.08287,43514
21.09222,41210
21.10155,43754
21.11088,44207
21.12023,45724
21.12957,46077
21.13890,47507
21.14825,45934
21.15758,43833
21.16692,44701
21.17627,51154
21.18560,57871
21.19493,62173
21.20428,56849
21.21362,50534
21.22297,46112
21.23230,44319
21.24163,43181
21.25098,43847
21.26032,41242
21.26965,43715
21.27900,48561
21.28833,55036
21.29767,55896
21.30702,52321
21.31635,50053
21.32568,48902
21.33503,47455
21.34437,48079
21.35370,46370
21.36305,45071
21.37238,44667
21.38172,43783
21.39107,43956
21.40040,47388
21.40975,46130
21.41908,47462
21.42842,48393
21.43777,48375
21.44710,47400
21.45643,44722
21.46578,43882
21.47512,43154
21.48445,49309
21.49380,49415
21.50313,48670
21.51247,49107
21.52182,49793
21.53115,44386
21.54048,44703
21.54983,45353
21.55917,50693
21.56850,70656
21.57785,83792
21.58718,86524
21.59653,71016
21.60587,56520
21.61520,48811
21.62455,48774
21.63388,47116
21.64322,48173
21.65257,49342
21.66190,47645
21.67123,47012
21.68058,55846
21.68992,61623
21.69925,57309
21.70860,55353
21.71793,56632
21.72727,59125
21.73662,54847
21.74595,51989
21.75530,49732
21.76463,43929
21.77397,42984
21.78332,42604
21.79265,43269
21.80198,45417
21.81133,51195
21.82067,57570
21.83000,60626
21.83935,56393
21.84868,49321
21.85802,47976
21.86737,46114
21.87670,45241
21.88603,50920
21.89538,53185
21.90472,55443
21.91405,56311
21.92340,51376
21.93273,46927
21.94208,45118
21.95142,49546
21.96075,55631
21.97010,68625
21.97943,76372
21.98877,83470
21.99812,83476
22.00745,79990
22.01678,68167
22.02613,57762
22.03547,55327
22.04480,59836
22.05415,64126
22.06348,62005
22.07282,61156
22.08217,55454
22.09150,51581
22.10083,50426
22.11018,48278
22.11952,44760
22.12887,45257
22.13820,46209
22.14753,47243
22.15688,56016
22.16622,68742
22.17555,81287
22.18490,77978
22.19423,66568
22.20357,56464
22.21292,56595
22.22225,59524
22.23158,62830
22.24093,65265
22.25027,62576
22.25960,58407
22.26895,60728
22.27828,74631
22.28762,90512
22.29697,94646
22.30630,88080
22.31565,74304
22.32498,61512
22.33432,55842
22.34367,56184
22.35300,62964
22.36233,76028
22.37168,82416
22.38102,84604
22.39035,81745
22.39970,76472
22.40903,66260
22.41837,62797
22.42772,67042
22.43705,73167
22.44638,78896
22.45573,72616
22.46507,69628
22.47442,64191
22.48375,61962
22.49308,58924
22.50243,56974
22.51177,59034
22.52110,60581
22.53045,58936
22.53978,57488
22.54912,57488
22.55847,58116
22.56780,65593
22.57713,72975
22.58648,78303
22.59582,71409
22.60515,72655
22.61450,73778
22.62383,72822
22.63317,71245
22.64252,70482
22.65185,63794
22.66120,58863
22.67053,56972
22.67987,60798
22.68922,71126
22.69855,78449
22.70788,74386
22.71723,67907
22.72657,65129
22.73590,72000
22.74525,76718
22.75458,74524
22.76392,69981
22.77327,68038
22.78260,62472
22.79193,65913
22.80128,75711
22.81062,85144
22.81995,84166
22.82930,72236
22.83863,68792
22.84798,62773
22.85732,60248
22.86665,59042
22.87600,57970
22.88533,61894
22.89467,61844
22.90402,59379
22.91335,60340
22.92268,66646
22.93203,73479
22.94137,69541
22.95070,66105
22.96005,61510
22.96938,54568
22.97872,52494
22.98807,52885
22.99740,47788
23.00673,48881
23.01608,46918
23.02542,46935
23.03477,46788
23.04410,52236
23.05343,54419
23.06278,52933
23.07212,50123
23.08145,49699
23.09080,48347
23.10013,48778
23.10947,47505
23.11882,44386
23.12815,44899
23.13748,44806
23.14683,45267
23.15617,47417
23.16550,47161
23.17485,47454
23.18418,47596
23.19352,46371
23.20287,45302
23.21220,43121
23.22155,43283
23.23088,45238
23.24022,46862
23.24957,50763
23.25890,53306
23.26823,54951
23.27758,52835
23.28692,50347
23.29625,46760
23.30560,45906
23.31493,47752
23.32427,49193
23.33362,61840
23.34295,73841
23.35228,72883
23.36163,60288
23.37097,52014
23.38032,47160
23.38965,46976
23.39898,48140
23.40833,46319
23.41767,46808
23.42700,43839
23.43635,45909
23.44568,46678
23.45502,48146
23.46437,45878
23.47370,43612
23.48303,46883
23.49238,45981
23.50172,46158
23.51105,47284
23.52040,47659
23.52973,46841
23.53907,45026
23.54842,44716
23.55775,43031
23.56710,44881
23.57643,44755
23.58577,47415
23.59512,51141
23.60445,49404
23.61378,46931
23.62313,44091
23.63247,42866
23.64180,42410
23.65115,41060
23.66048,41081
23.66982,41839
23.67917,43161
23.68850,45060
23.69783,48202
23.70718,51991
23.71652,51597
23.72585,53531
23.73520,55782
23.74453,57035
23.75388,53901
23.76322,46876
23.77255,43879
23.78190,43215
23.79123,42870
23.80057,43180
23.80992,44075
23.81925,42211
23.82858,42811
23.83793,42184
23.84727,42853
23.85660,43086
23.86595,43621
23.87528,43429
23.88462,44279
23.89397,45077
23.90330,46585
23.91263,48218
23.92198,46999
23.93132,42610
23.94067,44506
23.95000,43316
23.95933,42662
23.96868,45272
23.97802,41314
23.98735,40675
23.99670,43442
24.00603,41794
24.01537,44256
24.02472,44312
24.03405,43601
24.04338,41784
24.05273,40553
24.06207,42355
24.07140,40800
24.08075,42519
24.09008,44071
24.09943,44417
24.10877,41970
24.11810,42650
24.12745,40546
24.13678,42083
24.14612,42744
24.15547,43207
24.16480,41179
24.17413,42161
24.18348,43724
24.19282,43193
24.20215,42457
24.21150,41478
24.22083,39494
24.23017,40656
24.23952,42252
24.24885,42713
24.25818,44036
24.26753,45304
24.27687,44285
24.28622,41385
24.29555,44026
24.30488,43108
24.31423,44354
24.32357,47754
24.33290,48319
24.34225,48012
24.35158,47400
24.36092,42044
24.37027,42930
24.37960,44668
24.38893,45504
24.39828,46605
24.40762,46084
24.41695,44390
24.42630,45043
24.43563,45362
24.44497,45741
24.45432,42908
24.46365,41767
24.47300,42183
24.48233,41826
24.49167,44152
24.50102,42923
24.51035,44631
24.51968,45032
24.52903,45976
24.53837,45293
24.54770,45915
24.55705,45998
24.56638,47260
24.57572,45092
24.58507,43499
24.59440,44320
24.60373,45723
24.61308,47269
24.62242,46632
24.63175,49478
24.64110,48179
24.65043,47561
24.65978,47324
24.66912,48403
24.67845,53047
24.68780,52975
24.69713,48019
24.70647,46499
24.71582,44528
24.72515,46865
24.73448,43364
24.74383,42412
24.75317,44516
24.76250,45892
24.77185,42696
24.78118,43654
24.79052,45341
24.79987,43241
24.80920,43583
24.81853,43693
24.82788,44543
24.83722,42951
24.84657,43813
24.85590,41680
24.86523,43293
24.87458,43308
24.88392,44598
24.89325,45464
24.90260,47522
24.91193,45885
24.92127,46497
24.93062,45988
24.93995,44003
24.94928,45311
24.95863,46848
24.96797,46550
24.97730,44843
24.98665,45096
24.99598,44593
25.00532,46562
25.01467,45206
25.02400,42352
25.03335,43874
25.04268,44079
25.05202,43540
25.06137,42449
25.07070,42736
25.08003,44686
25.08938,46146
25.09872,44091
25.10805,44796
25.11740,44546
25.12673,44422
25.13607,42712
25.14542,48024
25.15475,50018
25.16408,47248
25.17343,49016
25.18277,44835
25.19212,46230
25.20145,47686
25.21078,46794
25.22013,45608
25.22947,43695
25.23880,44730
25.24815,46238
25.25748,46763
25.26682,44791
25.27617,47929
25.28550,46774
25.29483,45291
25.30418,45599
25.31352,54527
25.32285,75401
25.33220,119111
25.34153,173788
25.35087,180485
25.36022,135351
25.36955,94075
25.37890,77788
25.38823,69513
25.39757,67390
25.40692,64253
25.41625,64072
25.42558,61795
25.43493,62175
25.44427,61253
25.45360,64398
25.46295,63782
25.47228,61835
25.48162,67576
25.49097,71762
25.50030,70413
25.50963,72097
25.51898,69008
25.52832,66299
25.53765,66325
25.54700,64827
25.55633,67531
25.56568,66625
25.57502,66701
25.58435,64349
25.59370,62071
25.60303,61923
25.61237,59408
25.62172,58970
25.63105,58979
25.64038,58269
25.64973,59019
25.65907,60827
25.66840,62773
25.67775,63659
25.68708,61800
25.69642,60826
25.70577,59806
25.71510,59080
25.72443,57732
25.73378,56979
25.74312,55281
25.75247,60854
25.76180,56687
25.77113,53204
25.78048,57358
25.78982,56416
25.79915,55435
25.80850,59293
25.81783,59219
25.82717,58056
25.83652,61334
25.84585,60781
25.85518,58382
25.86453,57703
25.87387,57636
25.88320,57460
25.89255,57466
25.90188,55797
25.91123,56737
25.92057,57499
25.92990,56428
25.93925,55740
25.94858,60489
25.95792,62097
25.96727,63305
25.97660,60011
25.98593,58600
25.99528,57931
26.00462,58068
26.01395,54631
26.02330,55550
26.03263,59556
26.04197,61513
26.05132,63715
26.06065,63490
26.06998,65323
26.07933,60817
26.08867,59364
26.09802,60500
26.10735,57434
26.11668,59941
26.12603,57077
26.13537,61363
26.14470,64493
26.15405,66783
26.16338,68589
26.17272,68797
26.18207,67751
26.19140,63168
26.20073,60300
26.21008,57413
26.21942,55679
26.22875,56413
26.23810,54853
26.24743,54683
26.25677,55751
26.26612,53647
26.27545,54923
26.28480,56085
26.29413,54237
26.30347,57242
26.31282,57748
26.32215,57730
26.33148,57850
26.34083,58851
26.35017,55397
26.35950,59299
26.36885,56260
26.37818,56471
26.38752,55073
26.39687,56569
26.40620,53557
26.41553,54794
26.42488,55104
26.43422,53373
26.44355,57759
26.45290,59746
26.46223,62550
26.47158,64229
26.48092,64721
26.49025,63360
26.49960,64825
26.50893,63293
26.51827,62488
26.52762,67508
26.53695,72706
26.54628,73465
26.55563,73265
26.56497,68721
26.57430,69671
26.58365,64047
26.59298,65320
26.60232,67294
26.61167,69079
26.62100,70981
26.63033,65099
26.63968,65968
26.64902,64342
26.65837,63923
26.66770,63231
26.67703,64312
26.68638,62626
26.69572,60319
26.70505,60154
26.71440,58976
26.72373,58120
26.73307,60239
26.74242,61350
26.75175,59767
26.76108,57048
26.77043,60630
26.77977,59877
26.78910,61354
26.79845,61783
26.80778,62883
26.81713,61659
26.82647,61096
26.83580,61298
26.84515,60531
26.85448,62118
26.86382,59451
26.87317,60764
26.88250,59482
26.89183,59493
26.90118,60352
26.91052,58762
26.91985,58543
26.92920,56903
26.93853,59180
26.94787,56698
26.95722,56060
26.96655,54690
26.97588,56629
26.98523,57294
26.99457,59190
27.00392,60505
27.01325,63296
27.02258,62244
27.03193,60673
27.04127,59837
27.05060,63826
27.05995,64812
27.06928,60985
27.07862,62137
27.08797,62355
27.09730,63792
27.10663,61051
27.11598,59668
27.12532,61267
27.13465,64169
27.14400,66425
27.15333,65199
27.16267,66508
27.17202,63641
27.18135,60483
27.19070,62524
27.20003,61294
27.20937,61964
27.21872,63738
27.22805,64103
27.23738,65695
27.24673,69233
27.25607,70808
27.26540,77339
27.27475,75424
27.28408,72077
27.29342,67291
27.30277,67183
27.31210,67914
27.32143,67367
27.33078,66539
27.34012,64195
27.34945,64007
27.35880,63466
27.36813,60372
27.37748,62325
27.38682,63458
27.39615,62049
27.40550,61441
27.41483,62765
27.42417,63471
27.43352,64481
27.44285,65620
27.45218,62431
27.46153,66712
27.47087,70172
27.48020,75511
27.48955,76780
27.49888,83402
27.50822,90842
27.51757,100331
27.52690,109953
27.53625,118145
27.54558,121010
27.55492,117084
27.56427,110325
27.57360,102884
27.58293,98649
27.59228,91979
27.60162,85480
27.61095,83521
27.62030,78613
27.62963,75776
27.63897,71827
27.64832,73485
27.65765,76048
27.66698,82368
27.67633,98119
27.68567,112268
27.69500,109796
27.70435,94174
27.71368,83017
27.72303,78503
27.73237,75037
27.74170,72304
27.75105,72373
27.76038,70914
27.76972,69216
27.77907,69501
27.78840,67346
27.79773,69079
27.80708,69620
27.81642,70317
27.82575,68006
27.83510,65717
27.84443,64641
27.85377,67683
27.86312,66421
27.87245,64774
27.88178,66724
27.89113,65537
27.90047,64919
27.90982,64272
27.91915,66200
27.92848,66592
27.93783,65827
27.94717,66524
27.95650,65043
27.96585,64726
27.97518,64199
27.98452,64906
27.99387,65201
28.00320,63886
28.01253,64755
28.02188,65850
28.03122,64324
28.04055,62638
28.04990,63519
28.05923,62050
28.06857,64781
28.07792,66357
28.08725,65370
28.09660,66239
28.10593,65847
28.11527,71358
28.12462,79692
28.13395,90694
28.14328,89824
28.15263,80564
28.16197,75683
28.17130,75011
28.18065,73390
28.18998,69297
28.19932,70338
28.20867,68608
28.21800,67848
28.22733,67427
28.23668,68335
28.24602,64664
28.25535,65977
28.26470,65815
28.27403,65553
28.28338,66322
28.29272,65437
28.30205,63723
28.31140,65776
28.32073,64782
28.33007,64832
28.33942,63496
28.34875,66439
28.35808,66810
28.36743,63270
28.37677,63960
28.38610,65320
28.39545,66652
28.40478,66057
28.41412,67812
28.42347,68354
28.43280,69143
28.44213,69450
28.45148,68209
28.46082,70596
28.47017,68580
28.47950,67557
28.48883,67471
28.49818,69308
28.50752,67052
28.51685,67868
28.52620,67117
28.53553,69006
28.54487,68236
28.55422,68774
28.56355,69175
28.57288,70395
28.58223,72864
28.59157,77387
28.60090,80938
28.61025,80777
28.61958,77755
28.62893,80935
28.63827,77317
28.64760,72691
28.65695,74229
28.66628,86282
28.67562,105517
28.68497,135151
28.69430,144143
28.70363,122882
28.71298,102759
28.72232,87781
28.73165,82219
28.74100,78215
28.75033,77247
28.75967,78263
28.76902,75117
28.77835,75793
28.78768,74310
28.79703,76799
28.80637,75562
28.81572,75385
28.82505,75426
28.83438,73330
28.84373,73538
28.85307,75224
28.86240,74772
28.87175,73650
28.88108,75130
28.89042,76395
28.89977,74681
28.90910,73060
28.91843,74414
28.92778,74612
28.93712,74701
28.94645,73512
28.95580,74896
28.96513,80093
28.97447,81095
28.98382,85568
28.99315,81837
29.00250,78815
29.01183,78929
29.02117,80169
29.03052,79166
29.03985,79847
29.04918,77291
29.05853,78030
29.06787,78078
29.07720,75952
29.08655,79137
29.09588,78610
29.10522,78085
29.11457,77053
29.12390,76538
29.13323,79027
29.14258,77996
29.15192,78511
29.16125,79365
29.17060,78960
29.17993,80279
29.18928,88570
29.19862,116668
29.20795,160571
29.21730,187995
29.22663,160301
29.23597,130165
29.24532,106510
29.25465,97004
29.26398,90421
29.27333,87132
29.28267,87799
29.29200,85048
29.30135,81601
29.31068,85527
29.32002,84480
29.32937,83030
29.33870,81127
29.34805,80720
29.35738,78360
29.36672,83163
29.37607,80759
29.38540,80944
29.39473,79275
29.40408,77434
29.41342,79476
29.42275,79677
29.43210,80177
29.44143,80843
29.45077,81325
29.46012,82571
29.46945,82120
29.47878,89978
29.48813,86122
29.49747,85293
29.50680,85843
29.51615,80875
29.52548,80818
29.53483,80292
29.54417,80890
29.55350,78882
29.56285,78604
29.57218,77126
29.58152,77623
29.59087,78445
29.60020,78105
29.60953,77495
29.61888,78584
29.62822,78861
29.63755,78540
29.64690,76221
29.65623,76365
29.66557,74616
29.67492,77813
29.68425,79090
29.69358,77357
29.70293,78174
29.71227,76832
29.72162,78663
29.73095,79191
29.74028,81463
29.74963,82146
29.75897,85613
29.76830,80546
29.77765,79486
29.78698,79588
29.79632,79656
29.80567,78536
29.81500,76581
29.82433,76953
29.83368,79979
29.84302,77350
29.85235,78687
29.86170,74153
29.87103,76796
29.88037,77253
29.88972,76990
29.89905,76776
29.90840,78091
29.91773,77333
29.92707,77339
29.93642,78909
29.94575,79203
29.95508,79945
29.96443,77543
29.97377,80009
29.98310,82653
29.99245,88650
30.00178,84425
30.01112,83823
30.02047,80749
30.02980,80966
30.03913,79040
30.04848,78368
30.05782,78957
30.06715,77862
30.07650,76331
30.08583,80144
30.09518,80781
30.10452,86197
30.11385,88910
30.12320,95505
30.13253,103904
30.14187,115755
30.15122,121978
30.16055,129321
30.16988,139275
30.17923,146164
30.18857,141181
30.19790,139401
30.20725,132576
30.21658,122354
30.22592,117659
30.23527,111700
30.24460,103634
30.25393,99522
30.26328,95370
30.27262,92543
30.28197,91943
30.29130,90331
30.30063,86984
30.30998,85563
30.31932,86112
30.32865,87334
30.33800,82879
30.34733,83588
30.35667,85267
30.36602,88640
30.37535,93962
30.38468,109585
30.39403,148845
30.40337,223952
30.41270,293831
30.42205,296964
30.43138,242837
30.44073,182902
30.45007,143459
30.45940,120266
30.46875,108526
30.47808,102942
30.48742,100287
30.49677,98787
30.50610,93454
30.51543,92307
30.52478,88764
30.53412,87761
30.54345,87119
30.55280,86317
30.56213,87525
30.57147,83930
30.58082,85006
30.59015,86033
30.59948,88538
30.60883,89416
30.61817,90352
30.62752,97173
30.63685,101567
30.64618,109669
30.65553,110848
30.66487,113812
30.67420,112382
30.68355,110090
30.69288,104427
30.70222,103225
30.71157,102276
30.72090,94731
30.73023,94578
30.73958,94344
30.74892,93049
30.75825,92895
30.76760,85914
30.77693,87526
30.78627,91106
30.79562,88802
30.80495,89704
30.81430,90483
30.82363,90568
30.83297,91791
30.84232,88414
30.85165,89590
30.86098,88941
30.87033,91872
30.87967,91218
30.88900,91716
30.89835,92174
30.90768,93017
30.91702,95131
30.92637,93949
30.93570,93169
30.94503,95244
30.95438,94833
30.96372,95768
30.97305,95111
30.98240,95604
30.99173,93647
31.00108,95345
31.01042,93766
31.01975,94678
31.02910,93152
31.03843,93874
31.04777,94955
31.05712,93962
31.06645,92077
31.07578,96478
31.08513,95866
31.09447,93054
31.10380,92112
31.11315,92377
31.12248,94720
31.13182,96622
31.14117,98088
31.15050,99777
31.15985,94269
31.16918,98396
31.17852,97314
31.18787,96123
31.19720,96666
31.20653,96761
31.21588,100714
31.22522,98854
31.23455,99251
31.24390,99719
31.25323,98905
31.26257,102683
31.27192,104463
31.28125,102307
31.29058,99468
31.29993,100892
31.30927,98835
31.31860,97268
31.32795,94848
31.33728,95424
31.34663,92174
31.35597,92684
31.36530,91125
