D:\数据\20211226\ZS1E-Z-000195.D Sun Dec 26 13:43:08 2021
Start of data points
0.09752,50600
0.10687,57802
0.11620,64148
0.12555,64607
0.13488,67229
0.14422,63994
0.15357,62872
0.16290,62514
0.17223,59171
0.18158,59347
0.19092,56122
0.20025,52998
0.20960,53166
0.21893,49530
0.22827,47058
0.23762,46158
0.24695,44867
0.25628,44612
0.26563,43207
0.27497,41766
0.28430,40210
0.29365,40681
0.30298,37388
0.31233,39044
0.32167,38190
0.33100,38269
0.34035,36894
0.34968,35565
0.35902,36225
0.36837,35623
0.37770,35943
0.38703,35212
0.39638,34144
0.40572,34253
0.41505,33830
0.42440,33532
0.43373,32245
0.44307,32715
0.45242,32632
0.46175,29789
0.47110,25364
0.48043,20690
0.48977,16870
0.49912,12505
0.50845,13180
0.51778,12390
0.52713,11789
0.53647,11222
0.54580,11932
0.55515,11317
0.56448,10496
0.57382,11098
0.58317,10648
0.59250,11082
0.60183,10488
0.61118,10054
0.62052,10799
0.62985,10920
0.63920,10091
0.64853,10613
0.65788,9949
0.66722,9577
0.67655,9550
0.68590,10457
0.69523,9914
0.70457,9357
0.71392,9130
0.72325,9598
0.73258,9854
0.74193,9281
0.75127,9435
0.76060,8893
0.76995,9091
0.77928,8521
0.78862,9346
0.79797,9223
0.80730,8926
0.81663,9069
0.82598,8726
0.83532,9508
0.84467,9777
0.85400,9180
0.86333,9445
0.87268,9157
0.88202,8951
0.89135,9225
0.90070,8762
0.91003,8896
0.91937,9209
0.92872,8563
0.93805,8986
0.94738,8949
0.95673,8900
0.96607,8092
0.97540,8647
0.98475,8897
0.99408,8750
1.00342,8828
1.01277,8363
1.02210,8359
1.03145,8845
1.04078,8501
1.05012,8350
1.05947,8226
1.06880,8562
1.07813,8214
1.08748,8092
1.09682,8174
1.10615,7668
1.11550,8578
1.12483,8641
1.13417,8736
1.14352,8801
1.15285,7905
1.16218,8115
1.17153,7826
1.18087,7859
1.19020,7814
1.19955,8331
1.20888,8148
1.21823,8005
1.22757,7844
1.23690,8103
1.24625,8325
1.25558,8108
1.26492,9225
1.27427,7856
1.28360,8609
1.29293,8432
1.30228,8772
1.31162,8723
1.32095,9005
1.33030,8195
1.33963,8496
1.34897,8082
1.35832,7942
1.36765,7985
1.37700,8097
1.38633,8204
1.39567,8158
1.40502,7838
1.41435,8088
1.42368,7539
1.43303,8372
1.44237,7644
1.45170,7759
1.46105,8226
1.47038,8168
1.47972,8974
1.48907,7860
1.49840,8056
1.50773,7911
1.51708,7657
1.52642,8251
1.53575,8167
1.54510,8330
1.55443,7930
1.56378,8110
1.57312,8446
1.58245,7590
1.59180,7848
1.60113,8981
1.61047,13243
1.61982,20404
1.62915,26524
1.63848,37995
1.64783,72604
1.65717,129194
1.66650,170882
1.67585,178919
1.68518,152276
1.69452,107991
1.70387,71481
1.71320,45711
1.72253,30707
1.73188,28252
1.74122,29919
1.75057,32443
1.75990,36096
1.76923,37362
1.77858,38145
1.78792,38936
1.79725,39679
1.80660,39580
1.81593,38254
1.82527,38130
1.83462,38818
1.84395,38579
1.85328,38321
1.86263,41881
1.87197,53138
1.88130,104331
1.89065,223817
1.89998,369111
1.90932,448626
1.91867,490661
1.92800,605014
1.93735,879259
1.94668,1268281
1.95602,1556213
1.96537,1523347
1.97470,1273796
1.98403,993715
1.99338,752127
2.00272,627968
2.01205,610622
2.02140,633061
2.03073,588951
2.04007,467691
2.04942,338289
2.05875,245815
2.06808,186326
2.07743,158296
2.08677,262809
2.09612,559297
2.10545,794008
2.11478,786341
2.12413,533798
2.13347,333970
2.14280,260281
2.15215,214614
2.16148,170279
2.17082,149069
2.18017,139506
2.18950,190808
2.19883,227717
2.20818,184282
2.21752,136229
2.22685,142796
2.23620,220586
2.24553,358724
2.25487,1241525
2.26422,2447360
2.27355,2274771
2.28290,1536139
2.29223,926105
2.30157,751403
2.31092,2147263
2.32025,5477573
2.32958,5754574
2.33893,3306189
2.34827,1471544
2.35760,679454
2.36695,376905
2.37628,302474
2.38562,278476
2.39497,252612
2.40430,222157
2.41363,182543
2.42298,153575
2.43232,134479
2.44165,117215
2.45100,104359
2.46033,112392
2.46968,166092
2.47902,224826
2.48835,224017
2.49770,178612
2.50703,145210
2.51637,123111
2.52572,112932
2.53505,107858
2.54438,101301
2.55373,105677
2.56307,128232
2.57240,248510
2.58175,298801
2.59108,253201
2.60042,199591
2.60977,186390
2.61910,223326
2.62843,259804
2.63778,242614
2.64712,202594
2.65647,179510
2.66580,151886
2.67513,126580
2.68448,108433
2.69382,92713
2.70315,90937
2.71250,105846
2.72183,143972
2.73117,181444
2.74052,204178
2.74985,226387
2.75918,272161
2.76853,345771
2.77787,487171
2.78720,640780
2.79655,681488
2.80588,669139
2.81522,696363
2.82457,762369
2.83390,780270
2.84325,451054
2.85258,248517
2.86192,233855
2.87127,259221
2.88060,245934
2.88993,191623
2.89928,153145
2.90862,137607
2.91795,132112
2.92730,121105
2.93663,105058
2.94597,92360
2.95532,86100
2.96465,78485
2.97398,79545
2.98333,77600
2.99267,79568
3.00202,85198
3.01135,93307
3.02068,98260
3.03003,99347
3.03937,115445
3.04870,129832
3.05805,152410
3.06738,250028
3.07672,487349
3.08607,746382
3.09540,778112
3.10473,569054
3.11408,316261
3.12342,174526
3.13275,119814
3.14210,96131
3.15143,88854
3.16077,89362
3.17012,83129
3.17945,80975
3.18880,75608
3.19813,73671
3.20747,72881
3.21682,76822
3.22615,73879
3.23548,66970
3.24483,66470
3.25417,74350
3.26350,92976
3.27285,110312
3.28218,114247
3.29152,101416
3.30087,87810
3.31020,78073
3.31953,72310
3.32888,76449
3.33822,82342
3.34755,83622
3.35690,74907
3.36623,69517
3.37558,61513
3.38492,56492
3.39425,56795
3.40360,56598
3.41293,66541
3.42227,73979
3.43162,79538
3.44095,89228
3.45028,113618
3.45963,113488
3.46897,98672
3.47830,84188
3.48765,76352
3.49698,75171
3.50632,73072
3.51567,73180
3.52500,73685
3.53433,69589
3.54368,89938
3.55302,168421
3.56237,380671
3.57170,602316
3.58103,596677
3.59038,440228
3.59972,318076
3.60905,276764
3.61840,224248
3.62773,175389
3.63707,137159
3.64642,115572
3.65575,105289
3.66508,111290
3.67443,126222
3.68377,140510
3.69310,143034
3.70245,127354
3.71178,101242
3.72113,84862
3.73047,80851
3.73980,81108
3.74915,80127
3.75848,77825
3.76782,69881
3.77717,61588
3.78650,56665
3.79583,57289
3.80518,65804
3.81452,87879
3.82385,109586
3.83320,100041
3.84253,82116
3.85187,74465
3.86122,67082
3.87055,64792
3.87988,67006
3.88923,86285
3.89857,134985
3.90792,212209
3.91725,228640
3.92658,188031
3.93593,147317
3.94527,165998
3.95460,204529
3.96395,195900
3.97328,163214
3.98262,171501
3.99197,170678
4.00130,167387
4.01063,175689
4.01998,146906
4.02932,129363
4.03865,141114
4.04800,149935
4.05733,147480
4.06667,178693
4.07602,231708
4.08535,241833
4.09470,211433
4.10403,163960
4.11337,115626
4.12272,85915
4.13205,76388
4.14138,72535
4.15073,70064
4.16007,69284
4.16940,66506
4.17875,61272
4.18808,62407
4.19742,63833
4.20677,66151
4.21610,67914
4.22543,62793
4.23478,57407
4.24412,60342
4.25345,61783
4.26280,70225
4.27213,92068
4.28148,115812
4.29082,145277
4.30015,132788
4.30950,113987
4.31883,104240
4.32817,100981
4.33752,98387
4.34685,94024
4.35618,82865
4.36553,71820
4.37487,63179
4.38420,63365
4.39355,62855
4.40288,60272
4.41222,53261
4.42157,52845
4.43090,53015
4.44023,51531
4.44958,54063
4.45892,56520
4.46827,65905
4.47760,73896
4.48693,80581
4.49628,77036
4.50562,70899
4.51495,64995
4.52430,61092
4.53363,61950
4.54297,66562
4.55232,67029
4.56165,67781
4.57098,68330
4.58033,63896
4.58967,62445
4.59900,56232
4.60835,52862
4.61768,53470
4.62702,52735
4.63637,56392
4.64570,67198
4.65505,72772
4.66438,71841
4.67372,66254
4.68307,65456
4.69240,71514
4.70173,79005
4.71108,74553
4.72042,65096
4.72975,57773
4.73910,57879
4.74843,63378
4.75777,61166
4.76712,61942
4.77645,60312
4.78578,59776
4.79513,59955
4.80447,60562
4.81382,60062
4.82315,62757
4.83248,67434
4.84183,68684
4.85117,69206
4.86050,70964
4.86985,78323
4.87918,83879
4.88852,77179
4.89787,68094
4.90720,62795
4.91653,58148
4.92588,58992
4.93522,62327
4.94455,62330
4.95390,59127
4.96323,55393
4.97257,54100
4.98192,52164
4.99125,61409
5.00060,77071
5.00993,93058
5.01927,96808
5.02862,95223
5.03795,86721
5.04728,77205
5.05663,71985
5.06597,69427
5.07530,70092
5.08465,78603
5.09398,84215
5.10332,85695
5.11267,79326
5.12200,70326
5.13133,67287
5.14068,72840
5.15002,81068
5.15935,79627
5.16870,74674
5.17803,71332
5.18738,74735
5.19672,77305
5.20605,74926
5.21540,64921
5.22473,60868
5.23407,61951
5.24342,65196
5.25275,63914
5.26208,66581
5.27143,109712
5.28077,243368
5.29010,414753
5.29945,474185
5.30878,372210
5.31812,225788
5.32747,133205
5.33680,96063
5.34613,83881
5.35548,75246
5.36482,68228
5.37417,64561
5.38350,68424
5.39283,76402
5.40218,81018
5.41152,78839
5.42085,68069
5.43020,59020
5.43953,57614
5.44887,56705
5.45822,57995
5.46755,58235
5.47688,58477
5.48623,68242
5.49557,74658
5.50490,67470
5.51425,62716
5.52358,63909
5.53293,70435
5.54227,71509
5.55160,65819
5.56095,64154
5.57028,67584
5.57962,76055
5.58897,86287
5.59830,90060
5.60763,93084
5.61698,96491
5.62632,94118
5.63565,77533
5.64500,72907
5.65433,75660
5.66367,84916
5.67302,102662
5.68235,100804
5.69168,93811
5.70103,95367
5.71037,97682
5.71972,98282
5.72905,96473
5.73838,109258
5.74773,157600
5.75707,222365
5.76640,220954
5.77575,170000
5.78508,121578
5.79442,96675
5.80377,85221
5.81310,77200
5.82243,80982
5.83178,90352
5.84112,90118
5.85045,78451
5.85980,64109
5.86913,61430
5.87847,64636
5.88782,63848
5.89715,67091
5.90650,81442
5.91583,124806
5.92517,183718
5.93452,230005
5.94385,279501
5.95318,264716
5.96253,189071
5.97187,116551
5.98120,77220
5.99055,60379
5.99988,51810
6.00922,52651
6.01857,53725
6.02790,49822
6.03723,42996
6.04658,41846
6.05592,44959
6.06525,51978
6.07460,49797
6.08393,40819
6.09328,36112
6.10262,35774
6.11195,37993
6.12130,46306
6.13063,56930
6.13997,59413
6.14932,51584
6.15865,44674
6.16798,40368
6.17733,39386
6.18667,37282
6.19600,35187
6.20535,37614
6.21468,44017
6.22402,53722
6.23337,61743
6.24270,74418
6.25203,80638
6.26138,77305
6.27072,69502
6.28007,69211
6.28940,62443
6.29873,58583
6.30808,55139
6.31742,58053
6.32675,59564
6.33610,61538
6.34543,66124
6.35477,62468
6.36412,59737
6.37345,64448
6.38278,84327
6.39213,208508
6.40147,737869
6.41080,1706333
6.42015,2068114
6.42948,1409055
6.43883,611660
6.44817,222086
6.45750,116234
6.46685,89042
6.47618,76961
6.48552,71878
6.49487,72852
6.50420,70754
6.51353,68879
6.52288,65959
6.53222,64081
6.54155,60293
6.55090,59049
6.56023,60335
6.56957,60909
6.57892,60913
6.58825,63338
6.59758,65373
6.60693,67497
6.61627,67806
6.62562,67770
6.63495,68851
6.64428,70670
6.65363,74831
6.66297,74093
6.67230,71238
6.68165,92678
6.69098,98672
6.70032,90475
6.70967,86906
6.71900,78731
6.72833,69852
6.73768,59407
6.74702,53443
6.75635,54281
6.76570,53128
6.77503,54640
6.78437,61162
6.79372,67103
6.80305,67695
6.81240,65825
6.82173,58833
6.83107,55176
6.84042,55741
6.84975,57878
6.85908,56326
6.86843,52295
6.87777,50121
6.88710,47072
6.89645,50514
6.90578,58499
6.91512,71441
6.92447,73002
6.93380,62144
6.94313,53582
6.95248,51749
6.96182,50127
6.97115,52239
6.98050,48131
6.98983,49198
6.99918,44991
7.00852,47835
7.01785,48567
7.02720,46288
7.03653,42812
7.04587,40602
7.05522,39148
7.06455,40907
7.07388,44699
7.08323,49231
7.09257,57021
7.10190,63676
7.11125,65783
7.12058,58222
7.12992,50247
7.13927,45753
7.14860,41721
7.15795,39328
7.16728,39942
7.17662,38324
7.18597,39286
7.19530,42234
7.20463,43506
7.21398,45659
7.22332,56801
7.23265,81360
7.24200,107383
7.25133,104008
7.26067,73595
7.27002,53128
7.27935,48696
7.28868,45277
7.29803,43319
7.30737,39146
7.31670,36189
7.32605,33849
7.33538,34345
7.34473,32867
7.35407,34152
7.36340,32602
7.37275,33254
7.38208,40497
7.39142,67699
7.40077,130291
7.41010,195526
7.41943,197752
7.42878,140028
7.43812,85704
7.44745,53005
7.45680,42085
7.46613,37385
7.47547,39039
7.48482,43041
7.49415,40003
7.50348,37054
7.51283,33331
7.52217,30866
7.53152,32375
7.54085,35297
7.55018,38470
7.55953,44425
7.56887,47783
7.57820,55986
7.58755,63144
7.59688,71942
7.60622,71251
7.61557,65825
7.62490,59560
7.63423,53834
7.64358,49380
7.65292,43775
7.66225,45643
7.67160,53067
7.68093,62397
7.69027,59450
7.69962,51446
7.70895,42543
7.71830,40520
7.72763,44286
7.73697,54996
7.74632,68199
7.75565,72180
7.76498,65557
7.77433,61446
7.78367,57253
7.79300,50364
7.80235,43149
7.81168,39084
7.82102,33011
7.83037,34146
7.83970,40916
7.84903,56694
7.85838,99569
7.86772,158992
7.87705,167108
7.88640,120831
7.89573,80317
7.90508,72124
7.91442,93259
7.92375,113696
7.93310,105756
7.94243,123541
7.95177,147051
7.96112,128136
7.97045,99136
7.97978,78397
7.98913,64423
7.99847,54865
8.00780,51859
8.01715,65900
8.02648,93698
8.03582,104294
8.04517,92003
8.05450,70997
8.06383,52329
8.07318,56821
8.08252,110810
8.09187,175248
8.10120,188050
8.11053,135808
8.11988,75985
8.12922,47957
8.13855,41271
8.14790,39716
8.15723,39261
8.16657,37796
8.17592,39688
8.18525,38880
8.19458,38707
8.20393,39795
8.21327,40043
8.22260,41389
8.23195,46116
8.24128,48322
8.25063,44072
8.25997,41710
8.26930,36671
8.27865,36328
8.28798,39451
8.29732,44945
8.30667,44839
8.31600,40852
8.32533,40019
8.33468,39874
8.34402,38550
8.35335,42812
8.36270,81598
8.37203,94206
8.38137,81466
8.39072,72130
8.40005,67656
8.40938,63029
8.41873,58267
8.42807,53264
8.43742,48071
8.44675,44052
8.45608,44400
8.46543,44710
8.47477,44967
8.48410,42636
8.49345,40880
8.50278,41399
8.51212,42247
8.52147,41638
8.53080,45611
8.54013,47635
8.54948,53689
8.55882,61063
8.56815,60556
8.57750,55812
8.58683,50179
8.59617,51185
8.60552,47136
8.61485,45696
8.62420,43490
8.63353,39850
8.64287,38627
8.65222,39523
8.66155,40678
8.67088,39960
8.68023,38556
8.68957,38105
8.69890,37855
8.70825,38396
8.71758,38154
8.72692,37801
8.73627,38707
8.74560,49201
8.75493,56917
8.76428,56201
8.77362,51347
8.78295,54259
8.79230,63528
8.80163,75503
8.81098,81421
8.82032,76788
8.82965,58020
8.83900,43052
8.84833,40179
8.85767,38426
8.86702,44470
8.87635,46016
8.88568,47432
8.89503,44206
8.90437,41029
8.91370,43973
8.92305,40482
8.93238,40707
8.94172,39781
8.95107,39600
8.96040,38563
8.96975,41877
8.97908,43231
8.98842,42393
8.99777,45347
9.00710,49923
9.01643,47666
9.02578,47836
9.03512,42207
9.04445,43033
9.05380,40615
9.06313,42148
9.07247,48668
9.08182,54370
9.09115,57624
9.10048,59012
9.10983,59067
9.11917,76078
9.12850,127959
9.13785,192404
9.14718,186980
9.15653,116646
9.16587,62406
9.17520,45878
9.18455,42803
9.19388,41670
9.20322,47212
9.21257,68777
9.22190,113687
9.23123,144866
9.24058,146524
9.24992,118772
9.25925,87146
9.26860,69400
9.27793,65117
9.28727,63663
9.29662,57294
9.30595,50953
9.31528,51569
9.32463,62491
9.33397,77613
9.34332,77579
9.35265,101117
9.36198,221333
9.37133,381004
9.38067,400724
9.39000,280286
9.39935,157732
9.40868,94743
9.41802,75280
9.42737,73558
9.43670,70864
9.44603,60366
9.45538,49662
9.46472,43967
9.47405,40148
9.48340,39528
9.49273,44081
9.50207,49073
9.51142,48803
9.52075,46773
9.53010,47797
9.53943,52506
9.54877,59675
9.55812,74390
9.56745,82791
9.57678,72267
9.58613,54710
9.59547,55640
9.60480,62977
9.61415,68475
9.62348,74003
9.63282,75477
9.64217,65768
9.65150,56572
9.66083,49949
9.67018,45065
9.67952,43980
9.68885,42308
9.69820,38269
9.70753,38533
9.71688,51972
9.72622,138807
9.73555,426167
9.74490,799444
9.75423,834289
9.76357,521871
9.77292,259644
9.78225,144672
9.79158,106969
9.80093,86035
9.81027,71739
9.81960,75856
9.82895,85624
9.83828,99944
9.84762,102832
9.85697,90872
9.86630,74977
9.87565,72440
9.88498,93774
9.89432,120550
9.90367,121850
9.91300,113844
9.92233,112178
9.93168,105632
9.94102,89927
9.95035,75150
9.95970,69875
9.96903,77578
9.97837,119187
9.98772,185529
9.99705,204798
10.00638,161176
10.01573,110838
10.02507,77046
10.03440,60180
10.04375,53998
10.05308,54651
10.06243,63330
10.07177,68507
10.08110,71254
10.09045,66184
10.09978,64081
10.10912,127497
10.11847,392977
10.12780,879072
10.13713,1040590
10.14648,853325
10.15582,1239134
10.16515,2258034
10.17450,2292428
10.18383,1191540
10.19317,330347
10.20252,93868
10.21185,64743
10.22118,68131
10.23053,93593
10.23987,139796
10.24922,156708
10.25855,121524
10.26788,79343
10.27723,62112
10.28657,54583
10.29590,57396
10.30525,62573
10.31458,63386
10.32392,57615
10.33327,52804
10.34260,47864
10.35193,49186
10.36128,48292
10.37062,48027
10.37995,44065
10.38930,40935
10.39863,41856
10.40797,43167
10.41732,45135
10.42665,47099
10.43600,48457
10.44533,68275
10.45467,117963
10.46402,167134
10.47335,154316
10.48268,104942
10.49203,62634
10.50137,48381
10.51070,44480
10.52005,49991
10.52938,54213
10.53872,55572
10.54807,54037
10.55740,48822
10.56673,48856
10.57608,46707
10.58542,47043
10.59475,47796
10.60410,47256
10.61343,46608
10.62278,46796
10.63212,53984
10.64145,53184
10.65080,48858
10.66013,43945
10.66947,45750
10.67882,47424
10.68815,51554
10.69748,50138
10.70683,49855
10.71617,53013
10.72550,56805
10.73485,54167
10.74418,52480
10.75352,73555
10.76287,101013
10.77220,112182
10.78155,92199
10.79088,97268
10.80022,147930
10.80957,192022
10.81890,167654
10.82823,106156
10.83758,69385
10.84692,54706
10.85625,55132
10.86560,67531
10.87493,94368
10.88427,109081
10.89362,89733
10.90295,68056
10.91228,52349
10.92163,49895
10.93097,54091
10.94030,50797
10.94965,45285
10.95898,45886
10.96833,46658
10.97767,48053
10.98700,44914
10.99635,42399
11.00568,43283
11.01502,42148
11.02437,45107
11.03370,43491
11.04303,42981
11.05238,39140
11.06172,39959
11.07105,38495
11.08040,39549
11.08973,41907
11.09907,56891
11.10842,79386
11.11775,92232
11.12708,79182
11.13643,67444
11.14577,58337
11.15512,49440
11.16445,45143
11.17378,45258
11.18313,44194
11.19247,42234
11.20180,39859
11.21115,40320
11.22048,42028
11.22982,41108
11.23917,43027
11.24850,45114
11.25783,50133
11.26718,54467
11.27652,51794
11.28585,46764
11.29520,44527
11.30453,44313
11.31387,50117
11.32322,63392
11.33255,80032
11.34190,84804
11.35123,84213
11.36057,92813
11.36992,95023
11.37925,80482
11.38858,63632
11.39793,54336
11.40727,53999
11.41660,51187
11.42595,45221
11.43528,43982
11.44462,48082
11.45397,49974
11.46330,59467
11.47263,61906
11.48198,61120
11.49132,48231
11.50065,46187
11.51000,44180
11.51933,43425
11.52868,42458
11.53802,45710
11.54735,53155
11.55670,80814
11.56603,138402
11.57537,209037
11.58472,220615
11.59405,169684
11.60338,114533
11.61273,87280
11.62207,69865
11.63140,64227
11.64075,69202
11.65008,83742
11.65942,97042
11.66877,93719
11.67810,80500
11.68745,67857
11.69678,72176
11.70612,87903
11.71547,96716
11.72480,80516
11.73413,63258
11.74348,54703
11.75282,53260
11.76215,53623
11.77150,56757
11.78083,62307
11.79017,64379
11.79952,58962
11.80885,52439
11.81818,49218
11.82753,48861
11.83687,51194
11.84620,58130
11.85555,58941
11.86488,52901
11.87423,53930
11.88357,55086
11.89290,52744
11.90225,48015
11.91158,45954
11.92092,46210
11.93027,45907
11.93960,51283
11.94893,57062
11.95828,53589
11.96762,47886
11.97695,45946
11.98630,43543
11.99563,47503
12.00497,68096
12.01432,93978
12.02365,105033
12.03298,87776
12.04233,70643
12.05167,63952
12.06102,53431
12.07035,47998
12.07968,44297
12.08903,47083
12.09837,46324
12.10770,53620
12.11705,52865
12.12638,50055
12.13572,52038
12.14507,55155
12.15440,53624
12.16373,68202
12.17308,100256
12.18242,123206
12.19175,107936
12.20110,72317
12.21043,57916
12.21977,57078
12.22912,63929
12.23845,65912
12.24780,60451
12.25713,59337
12.26647,94653
12.27582,183587
12.28515,247833
12.29448,199713
12.30383,108723
12.31317,68347
12.32250,59926
12.33185,60715
12.34118,64139
12.35052,60893
12.35987,55333
12.36920,55569
12.37853,58616
12.38788,63581
12.39722,73779
12.40657,70497
12.41590,64270
12.42523,59963
12.43458,57507
12.44392,52484
12.45325,51968
12.46260,56958
12.47193,57836
12.48127,58405
12.49062,61252
12.49995,63685
12.50928,65361
12.51863,63987
12.52797,61945
12.53730,60931
12.54665,53479
12.55598,55143
12.56532,61982
12.57467,68014
12.58400,61976
12.59335,58559
12.60268,56101
12.61202,56025
12.62137,65130
12.63070,74986
12.64003,83271
12.64938,79783
12.65872,67515
12.66805,60073
12.67740,57756
12.68673,52007
12.69607,49774
12.70542,49451
12.71475,52129
12.72408,55266
12.73343,54454
12.74277,52751
12.75210,59319
12.76145,60228
12.77078,55898
12.78013,50784
12.78947,50735
12.79880,51447
12.80815,51866
12.81748,52439
12.82682,54475
12.83617,53106
12.84550,49968
12.85483,47784
12.86418,47456
12.87352,48757
12.88285,50447
12.89220,52134
12.90153,54871
12.91087,49190
12.92022,46328
12.92955,44111
12.93888,45983
12.94823,47092
12.95757,48212
12.96692,47422
12.97625,46733
12.98558,46367
12.99493,48075
13.00427,48885
13.01360,48194
13.02295,51483
13.03228,57761
13.04162,65893
13.05097,72721
13.06030,78132
13.06963,77987
13.07898,71990
13.08832,65116
13.09765,53074
13.10700,51512
13.11633,50833
13.12567,54986
13.13502,59965
13.14435,63431
13.15370,58462
13.16303,64399
13.17237,68503
13.18172,70350
13.19105,89468
13.20038,192583
13.20973,414876
13.21907,528775
13.22840,384004
13.23775,199996
13.24708,144134
13.25642,150103
13.26577,134401
13.27510,104913
13.28443,99721
13.29378,100691
13.30312,111861
13.31245,130456
13.32180,125675
13.33113,102597
13.34048,91779
13.34982,86041
13.35915,77480
13.36850,68727
13.37783,61905
13.38717,60739
13.39652,65807
13.40585,70514
13.41518,64873
13.42453,59444
13.43387,67416
13.44320,74460
13.45255,76361
13.46188,69398
13.47122,66824
13.48057,68060
13.48990,61592
13.49925,59685
13.50858,63207
13.51792,87888
13.52727,132618
13.53660,145273
13.54593,113834
13.55528,75179
13.56462,60099
13.57395,53721
13.58330,50888
13.59263,47799
13.60197,47633
13.61132,50631
13.62065,50678
13.62998,52544
13.63933,63761
13.64867,73341
13.65800,79655
13.66735,69981
13.67668,57926
13.68603,50375
13.69537,48498
13.70470,46739
13.71405,47422
13.72338,46379
13.73272,43519
13.74207,45002
13.75140,47168
13.76073,47411
13.77008,48514
13.77942,46740
13.78875,49957
13.79810,53428
13.80743,57154
13.81677,55932
13.82612,51896
13.83545,47676
13.84478,47048
13.85413,49829
13.86347,55346
13.87282,59222
13.88215,65075
13.89148,82410
13.90083,115993
13.91017,170445
13.91950,234052
13.92885,220217
13.93818,142054
13.94752,87744
13.95687,75269
13.96620,78667
13.97553,68670
13.98488,63602
13.99422,61075
14.00355,63395
14.01290,60927
14.02223,56971
14.03157,55689
14.04092,85311
14.05025,420234
14.05960,1904340
14.06893,4740223
14.07827,6479619
14.08762,4284386
14.09695,1338533
14.10628,243521
14.11563,78130
14.12497,62603
14.13430,61678
14.14365,59535
14.15298,61218
14.16232,60494
14.17167,63978
14.18100,70698
14.19033,97628
14.19968,126123
14.20902,115664
14.21837,75422
14.22770,51365
14.23703,46570
14.24638,43060
14.25572,44764
14.26505,49010
14.27440,49856
14.28373,48546
14.29307,43479
14.30242,43729
14.31175,47218
14.32108,57813
14.33043,70139
14.33977,84635
14.34910,86278
14.35845,77742
14.36778,61811
14.37712,52640
14.38647,48887
14.39580,44533
14.40515,45555
14.41448,45663
14.42382,44176
14.43317,44135
14.44250,48193
14.45183,56231
14.46118,64444
14.47052,70155
14.47985,66216
14.48920,56418
14.49853,48788
14.50787,46122
14.51722,43529
14.52655,43447
14.53588,43078
14.54523,47793
14.55457,54638
14.56390,58518
14.57325,57666
14.58258,54088
14.59193,49370
14.60127,46109
14.61060,44236
14.61995,43579
14.62928,46460
14.63862,55933
14.64797,69347
14.65730,83940
14.66663,82160
14.67598,70464
14.68532,60233
14.69465,54885
14.70400,49826
14.71333,49705
14.72267,48911
14.73202,52601
14.74135,53335
14.75068,59246
14.76003,69793
14.76937,71415
14.77872,71127
14.78805,62869
14.79738,61727
14.80673,57168
14.81607,53350
14.82540,52059
14.83475,49496
14.84408,49332
14.85342,50354
14.86277,57823
14.87210,65335
14.88143,68281
14.89078,63155
14.90012,57785
14.90945,52609
14.91880,51058
14.92813,49917
14.93747,51812
14.94682,53518
14.95615,56664
14.96550,55186
14.97483,53882
14.98417,52456
14.99352,51464
15.00285,51714
15.01218,54549
15.02153,53633
15.03087,50820
15.04020,51014
15.04955,51966
15.05888,53906
15.06822,53721
15.07757,53031
15.08690,49015
15.09623,47023
15.10558,47842
15.11492,50195
15.12425,57794
15.13360,61598
15.14293,60076
15.15228,56482
15.16162,54386
15.17095,56865
15.18030,57151
15.18963,65594
15.19897,77094
15.20832,96123
15.21765,109788
15.22698,104049
15.23633,81893
15.24567,68329
15.25500,58793
15.26435,53763
15.27368,52407
15.28302,51782
15.29237,51744
15.30170,52228
15.31105,51082
15.32038,50856
15.32972,54268
15.33907,59576
15.34840,61209
15.35773,60500
15.36708,61906
15.37642,66003
15.38575,60716
15.39510,55451
15.40443,48736
15.41377,49177
15.42312,55745
15.43245,55329
15.44178,57273
15.45113,52644
15.46047,48792
15.46980,48767
15.47915,48353
15.48848,48996
15.49783,50957
15.50717,56610
15.51650,70016
15.52585,84235
15.53518,81341
15.54452,69242
15.55387,54522
15.56320,47085
15.57253,46381
15.58188,47346
15.59122,46155
15.60055,46598
15.60990,47855
15.61923,49673
15.62857,57958
15.63792,65125
15.64725,66415
15.65658,68229
15.66593,69812
15.67527,67729
15.68462,61377
15.69395,67765
15.70328,84800
15.71263,97685
15.72197,85847
15.73130,70343
15.74065,62146
15.74998,62773
15.75932,71784
15.76867,72396
15.77800,66156
15.78733,59385
15.79668,57449
15.80602,63747
15.81535,83753
15.82470,128757
15.83403,186906
15.84337,232800
15.85272,211582
15.86205,139478
15.87140,83525
15.88073,72331
15.89007,75021
15.89942,78720
15.90875,76984
15.91808,70219
15.92743,62876
15.93677,57550
15.94610,56131
15.95545,54848
15.96478,55674
15.97412,63345
15.98347,78002
15.99280,97688
16.00213,97482
16.01148,83288
16.02082,63203
16.03017,54047
16.03950,54675
16.04883,59264
16.05818,59653
16.06752,59227
16.07685,55728
16.08620,55439
16.09553,56984
16.10487,59813
16.11422,65248
16.12355,67344
16.13288,64990
16.14223,62194
16.15157,59598
16.16090,58533
16.17025,60151
16.17958,59198
16.18892,57441
16.19827,63745
16.20760,71570
16.21695,80686
16.22628,98010
16.23562,98969
16.24497,88971
16.25430,78777
16.26363,70770
16.27298,81407
16.28232,142456
16.29165,306689
16.30100,457776
16.31033,424697
16.31967,249028
16.32902,121634
16.33835,73151
16.34768,59176
16.35703,50519
16.36637,49928
16.37570,50603
16.38505,48521
16.39438,49250
16.40373,50910
16.41307,53060
16.42240,54461
16.43175,52542
16.44108,51110
16.45042,53972
16.45977,63692
16.46910,65419
16.47843,60816
16.48778,65525
16.49712,65811
16.50645,61990
16.51580,59689
16.52513,61725
16.53447,58899
16.54382,59562
16.55315,57531
16.56248,57252
16.57183,56413
16.58117,58014
16.59052,56984
16.59985,55523
16.60918,55455
16.61853,57366
16.62787,61034
16.63720,67338
16.64655,67809
16.65588,65217
16.66522,61516
16.67457,56735
16.68390,58406
16.69323,66394
16.70258,71006
16.71192,66921
16.72125,59046
16.73060,54763
16.73993,73177
16.74927,117720
16.75862,138673
16.76795,112523
16.77730,73965
16.78663,58900
16.79597,61109
16.80532,69570
16.81465,78659
16.82398,85194
16.83333,90674
16.84267,93991
16.85200,85008
16.86135,72833
16.87068,62383
16.88002,58613
16.88937,57124
16.89870,59304
16.90803,64591
16.91738,72757
16.92672,72831
16.93607,67686
16.94540,66916
16.95473,73314
16.96408,77894
16.97342,76429
16.98275,69243
16.99210,67139
17.00143,58899
17.01077,55828
17.02012,61010
17.02945,83514
17.03878,109306
17.04813,102247
17.05747,76290
17.06680,64592
17.07615,61123
17.08548,58638
17.09482,55323
17.10417,54005
17.11350,52693
17.12285,53293
17.13218,53633
17.14152,62216
17.15087,60243
17.16020,54560
17.16953,50583
17.17888,52480
17.18822,55741
17.19755,55988
17.20690,52388
17.21623,50318
17.22557,48889
17.23492,49570
17.24425,52560
17.25358,52892
17.26293,57534
17.27227,57699
17.28160,62489
17.29095,66384
17.30028,61684
17.30963,59459
17.31897,65635
17.32830,68912
17.33765,65101
17.34698,58128
17.35632,56734
17.36567,60382
17.37500,76796
17.38433,125942
17.39368,170930
17.40302,158164
17.41235,127522
17.42170,104547
17.43103,84953
17.44037,71447
17.44972,69312
17.45905,70770
17.46838,70674
17.47773,67801
17.48707,95037
17.49642,288651
17.50575,1036735
17.51508,2105319
17.52443,2299821
17.53377,1242054
17.54310,345125
17.55245,104194
17.56178,71112
17.57112,71602
17.58047,76471
17.58980,77195
17.59913,72004
17.60848,67603
17.61782,62178
17.62715,63844
17.63650,64533
17.64583,61641
17.65518,63313
17.66452,68613
17.67385,71532
17.68320,83562
17.69253,90674
17.70187,88062
17.71122,83801
17.72055,81021
17.72988,74913
17.73923,66869
17.74857,65053
17.75790,73828
17.76725,76259
17.77658,75595
17.78592,69896
17.79527,66598
17.80460,64981
17.81393,61540
17.82328,57835
17.83262,55479
17.84197,57561
17.85130,61408
17.86063,69794
17.86998,74802
17.87932,73970
17.88865,66963
17.89800,62997
17.90733,58819
17.91667,56314
17.92602,56820
17.93535,63700
17.94468,60276
17.95403,61189
17.96337,57067
17.97270,56788
17.98205,55452
17.99138,56478
18.00072,58926
18.01007,59288
18.01940,61341
18.02875,64510
18.03808,64230
18.04742,65849
18.05677,67532
18.06610,71494
18.07543,66422
18.08478,59656
18.09412,61315
18.10345,68826
18.11280,74902
18.12213,78328
18.13147,74988
18.14082,69363
18.15015,68952
18.15948,66773
18.16883,71815
18.17817,68349
18.18750,67866
18.19685,65237
18.20618,64027
18.21553,63715
18.22487,64298
18.23420,64603
18.24355,65146
18.25288,60574
18.26222,60476
18.27157,64207
18.28090,70659
18.29023,77784
18.29958,85447
18.30892,89083
18.31825,85913
18.32760,81476
18.33693,78731
18.34627,84111
18.35562,87911
18.36495,84380
18.37428,87263
18.38363,83231
18.39297,82272
18.40232,81646
18.41165,79027
18.42098,73951
18.43033,68318
18.43967,71768
18.44900,75100
18.45835,76224
18.46768,69024
18.47702,66541
18.48637,68435
18.49570,78797
18.50503,90997
18.51438,99822
18.52372,95925
18.53305,84003
18.54240,76402
18.55173,80026
18.56107,80132
18.57042,74291
18.57975,69073
18.58910,66831
18.59843,64785
18.60777,67578
18.61712,68884
18.62645,70835
18.63578,70972
18.64513,68432
18.65447,69222
18.66380,65846
18.67315,65591
18.68248,67199
18.69182,66978
18.70117,68392
18.71050,72095
18.71983,73353
18.72918,76034
18.73852,76164
18.74787,68694
18.75720,65803
18.76653,61175
18.77588,55966
18.78522,53961
18.79455,56532
18.80390,56798
18.81323,58676
18.82257,58041
18.83192,57775
18.84125,58449
18.85058,53801
18.85993,54126
18.86927,53009
18.87860,52489
18.88795,56140
18.89728,57369
18.90662,66634
18.91597,70815
18.92530,71440
18.93465,67609
18.94398,68037
18.95332,71746
18.96267,76081
18.97200,82653
18.98133,84466
18.99068,73715
19.00002,62462
19.00935,58114
19.01870,57861
19.02803,55750
19.03737,60488
19.04672,71976
19.05605,91215
19.06538,114116
19.07473,154166
19.08407,204105
19.09340,208331
19.10275,149018
19.11208,97498
19.12143,66110
19.13077,59517
19.14010,55242
19.14945,54748
19.15878,51699
19.16812,50036
19.17747,49953
19.18680,51573
19.19613,55704
19.20548,57814
19.21482,61444
19.22415,63142
19.23350,60899
19.24283,56898
19.25217,55965
19.26152,53511
19.27085,55943
19.28018,62024
19.28953,66410
19.29887,69105
19.30822,82579
19.31755,94437
19.32688,91730
19.33623,79582
19.34557,68660
19.35490,57897
19.36425,54899
19.37358,50794
19.38292,50707
19.39227,49205
19.40160,53451
19.41093,55447
19.42028,54373
19.42962,51246
19.43895,49446
19.44830,50324
19.45763,48239
19.46698,50404
19.47632,55603
19.48565,56882
19.49500,56440
19.50433,54403
19.51367,53346
19.52302,52971
19.53235,53663
19.54168,53366
19.55103,51136
19.56037,50593
19.56970,53249
19.57905,54822
19.58838,58823
19.59772,60303
19.60707,58116
19.61640,51490
19.62573,52846
19.63508,55730
19.64442,58986
19.65377,54612
19.66310,54685
19.67243,53909
19.68178,61523
19.69112,83857
19.70045,111962
19.70980,115117
19.71913,98705
19.72847,88822
19.73782,89143
19.74715,84791
19.75648,70693
19.76583,61148
19.77517,61421
19.78450,63566
19.79385,60765
19.80318,58006
19.81252,55989
19.82187,53694
19.83120,53138
19.84055,50845
19.84988,50834
19.85922,53440
19.86857,60740
19.87790,77148
19.88723,84626
19.89658,79713
19.90592,61149
19.91525,56038
19.92460,54468
19.93393,54441
19.94327,52032
19.95262,54261
19.96195,54649
19.97128,54010
19.98063,51278
19.98997,49346
19.99930,49275
20.00865,48721
20.01798,50991
20.02733,52378
20.03667,54586
20.04600,54155
20.05535,52972
20.06468,54027
20.07402,51356
20.08337,54139
20.09270,55878
20.10203,52463
20.11138,50634
20.12072,49424
20.13005,49906
20.13940,49911
20.14873,57375
20.15807,64001
20.16742,66689
20.17675,62191
20.18608,56213
20.19543,52349
20.20477,53029
20.21412,54747
20.22345,54001
20.23278,53159
20.24213,54498
20.25147,53006
20.26080,52772
20.27015,51346
20.27948,51875
20.28882,53115
20.29817,51412
20.30750,52137
20.31683,50352
20.32618,47649
20.33552,48897
20.34485,49163
20.35420,48630
20.36353,49035
20.37288,51809
20.38222,50866
20.39155,49590
20.40090,46622
20.41023,48685
20.41957,48933
20.42892,50876
20.43825,52635
20.44758,50607
20.45693,50188
20.46627,55371
20.47560,61192
20.48495,60974
20.49428,59113
20.50362,55265
20.51297,50219
20.52230,50494
20.53163,53017
20.54098,54731
20.55032,60244
20.55967,68211
20.56900,111051
20.57833,203906
20.58768,256017
20.59702,188531
20.60635,108301
20.61570,71480
20.62503,61047
20.63437,59601
20.64372,63024
20.65305,62609
20.66238,62013
20.67173,57692
20.68107,58375
20.69040,56399
20.69975,57501
20.70908,57940
20.71842,58605
20.72777,59075
20.73710,59025
20.74645,55807
20.75578,55317
20.76512,55606
20.77447,53877
20.78380,54307
20.79313,57100
20.80248,60708
20.81182,60286
20.82115,55236
20.83050,53455
20.83983,52255
20.84917,49695
20.85852,47561
20.86785,48993
20.87718,47038
20.88653,48371
20.89587,50609
20.90520,53873
20.91455,52833
20.92388,51657
20.93323,49402
20.94257,51261
20.95190,47842
20.96125,46446
20.97058,45557
20.97992,43614
20.98927,46924
20.99860,48396
21.00793,46902
21.01728,48102
21.02662,47806
21.03595,45754
21.04530,47281
21.05463,46869
21.06397,51357
21.07332,65548
21.08265,49161
21.09200,49580
21.10133,49404
21.11067,50105
21.12002,51005
21.12935,52201
21.13868,49334
21.14803,50141
21.15737,49716
21.16670,50087
21.17605,56156
21.18538,65885
21.19472,71723
21.20407,64110
21.21340,57408
21.22273,52655
21.23208,50793
21.24142,50121
21.25075,51751
21.26010,53631
21.26943,57159
21.27878,61608
21.28812,61712
21.29745,64279
21.30680,59105
21.31613,54640
21.32547,53024
21.33482,53341
21.34415,54825
21.35348,53456
21.36283,52473
21.37217,52319
21.38150,50289
21.39085,55347
21.40018,53602
21.40952,55587
21.41887,53785
21.42820,55546
21.43753,54107
21.44688,52367
21.45622,54052
21.46557,52228
21.47490,55190
21.48423,58650
21.49358,60216
21.50292,60966
21.51225,58482
21.52160,59329
21.53093,56121
21.54027,56224
21.54962,56417
21.55895,65643
21.56828,84705
21.57763,103265
21.58697,99427
21.59630,79589
21.60565,65026
21.61498,59769
21.62432,59476
21.63367,61621
21.64300,61095
21.65235,60938
21.66168,60337
21.67102,60201
21.68037,65014
21.68970,69385
21.69903,70072
21.70838,70268
21.71772,69180
21.72705,66308
21.73640,61644
21.74573,59447
21.75507,57797
21.76442,53616
21.77375,54714
21.78308,54539
21.79243,57786
21.80177,59950
21.81110,65354
21.82045,68058
21.82978,67350
21.83913,63287
21.84847,61386
21.85780,56606
21.86715,59161
21.87648,61510
21.88582,69344
21.89517,72739
21.90450,69456
21.91383,65456
21.92318,59335
21.93252,55484
21.94185,54256
21.95120,58488
21.96053,59777
21.96987,64766
21.97922,71765
21.98855,76330
21.99788,78179
22.00723,76067
22.01657,69767
22.02592,63710
22.03525,61916
22.04458,69205
22.05393,71985
22.06327,72744
22.07260,68873
22.08195,65032
22.09128,65058
22.10062,63249
22.10997,61705
22.11930,61630
22.12863,59768
22.13798,59897
22.14732,60939
22.15665,70754
22.16600,78071
22.17533,87746
22.18468,80537
22.19402,72208
22.20335,66057
22.21270,66249
22.22203,68131
22.23137,71902
22.24072,69689
22.25005,70010
22.25938,64409
22.26873,67657
22.27807,79471
22.28740,85018
22.29675,90200
22.30608,82843
22.31542,74302
22.32477,64646
22.33410,61285
22.34343,65551
22.35278,70127
22.36212,79804
22.37147,86993
22.38080,92305
22.39013,86681
22.39948,74637
22.40882,65348
22.41815,63129
22.42750,64112
22.43683,69179
22.44617,70357
22.45552,66895
22.46485,62497
22.47418,60998
22.48353,58341
22.49287,58087
22.50220,57754
22.51155,57222
22.52088,56715
22.53022,55416
22.53957,55711
22.54890,55484
22.55825,57951
22.56758,61171
22.57692,67292
22.58627,69529
22.59560,71166
22.60493,74940
22.61428,77712
22.62362,76239
22.63295,70586
22.64230,65910
22.65163,62393
22.66097,58618
22.67032,57385
22.67965,62151
22.68898,64539
22.69833,72804
22.70767,68474
22.71700,64758
22.72635,64274
22.73568,73347
22.74503,77651
22.75437,78714
22.76370,83313
22.77305,82147
22.78238,70300
22.79172,67721
22.80107,75153
22.81040,78699
22.81973,76383
22.82908,72482
22.83842,68447
22.84775,64704
22.85710,63152
22.86643,62021
22.87577,63322
22.88512,64761
22.89445,65636
22.90380,65715
22.91313,66458
22.92247,70254
22.93182,69891
22.94115,70330
22.95048,64724
22.95983,65226
22.96917,64501
22.97850,62274
22.98785,57198
22.99718,55980
23.00652,54283
23.01587,53809
23.02520,54342
23.03453,55111
23.04388,54763
23.05322,55586
23.06255,54670
23.07190,52737
23.08123,50828
23.09058,50237
23.09992,49605
23.10925,49367
23.11860,48332
23.12793,50394
23.13727,49566
23.14662,51071
23.15595,51446
23.16528,52159
23.17463,54858
23.18397,53381
23.19330,54350
23.20265,53077
23.21198,53005
23.22132,53357
23.23067,56229
23.24000,59361
23.24933,68324
23.25868,72021
23.26802,74408
23.27737,67264
23.28670,63550
23.29603,61130
23.30538,58448
23.31472,56425
23.32405,58201
23.33340,63648
23.34273,67717
23.35207,67024
23.36142,57091
23.37075,54053
23.38008,53559
23.38943,52546
23.39877,53343
23.40810,49013
23.41745,51099
23.42678,49799
23.43612,49749
23.44547,50618
23.45480,50583
23.46415,52724
23.47348,52723
23.48282,50320
23.49217,48769
23.50150,47818
23.51083,50360
23.52018,50738
23.52952,50112
23.53885,49330
23.54820,48833
23.55753,48956
23.56687,48820
23.57622,49614
23.58555,49922
23.59488,52432
23.60423,50830
23.61357,51253
23.62290,50929
23.63225,49631
23.64158,52654
23.65093,53833
23.66027,57504
23.66960,56407
23.67895,59809
23.68828,58842
23.69762,61047
23.70697,67974
23.71630,68599
23.72563,69825
23.73498,69280
23.74432,69913
23.75365,59533
23.76300,55305
23.77233,50198
23.78167,51083
23.79102,49351
23.80035,49743
23.80970,49659
23.81903,49752
23.82837,47103
23.83772,46603
23.84705,47634
23.85638,47616
23.86573,46512
23.87507,46832
23.88440,46629
23.89375,50364
23.90308,53668
23.91242,54004
23.92177,50871
23.93110,49654
23.94043,48775
23.94978,48780
23.95912,47897
23.96845,49956
23.97780,49276
23.98713,46119
23.99648,47321
24.00582,47893
24.01515,46443
24.02450,47459
24.03383,45780
24.04317,47168
24.05252,45256
24.06185,47255
24.07118,48183
24.08053,50076
24.08987,49912
24.09920,49581
24.10855,50093
24.11788,47986
24.12722,48300
24.13657,48254
24.14590,49318
24.15523,48819
24.16458,48259
24.17392,47162
24.18327,49387
24.19260,48951
24.20193,47470
24.21128,47613
24.22062,47347
24.22995,47932
24.23930,46209
24.24863,47517
24.25797,48090
24.26732,46477
24.27665,47123
24.28598,48417
24.29533,47489
24.30467,48821
24.31400,49507
24.32335,50635
24.33268,52509
24.34202,51284
24.35137,48731
24.36070,48253
24.37005,47895
24.37938,49001
24.38872,50727
24.39807,52718
24.40740,50417
24.41673,51737
24.42608,47781
24.43542,49764
24.44475,49604
24.45410,49750
24.46343,47819
24.47277,45841
24.48212,48369
24.49145,47360
24.50078,47835
24.51013,45595
24.51947,47160
24.52880,48040
24.53815,51270
24.54748,48588
24.55683,49728
24.56617,50097
24.57550,48242
24.58485,48203
24.59418,49740
24.60352,54347
24.61287,58373
24.62220,59648
24.63153,52760
24.64088,51621
24.65022,51690
24.65955,53095
24.66890,55245
24.67823,55972
24.68757,52759
24.69692,51298
24.70625,48815
24.71560,50379
24.72493,50408
24.73427,49190
24.74362,49418
24.75295,47249
24.76228,49463
24.77163,48723
24.78097,47074
24.79030,48503
24.79965,50949
24.80898,50574
24.81832,50185
24.82767,47906
24.83700,47614
24.84633,47498
24.85568,47603
24.86502,48825
24.87435,53250
24.88370,53507
24.89303,51865
24.90238,51584
24.91172,50970
24.92105,49043
24.93040,50259
24.93973,51789
24.94907,54808
24.95842,56659
24.96775,54294
24.97708,49909
24.98643,52851
24.99577,52253
25.00510,49164
25.01445,51418
25.02378,50525
25.03312,51349
25.04247,53602
25.05180,51080
25.06113,51929
25.07048,50623
25.07982,51443
25.08917,52705
25.09850,58038
25.10783,66009
25.11718,72113
25.12652,79096
25.13585,86133
25.14520,94042
25.15453,97247
25.16387,89371
25.17322,78236
25.18255,70484
25.19188,65090
25.20123,60485
25.21057,57586
25.21990,57751
25.22925,54443
25.23858,54522
25.24792,58235
25.25727,57206
25.26660,58645
25.27595,58867
25.28528,56159
25.29462,58042
25.30397,60343
25.31330,68702
25.32263,103075
25.33198,165031
25.34132,248162
25.35065,271665
25.36000,209079
25.36933,133699
25.37867,100691
25.38802,91432
25.39735,85161
25.40668,83938
25.41603,83037
25.42537,82346
25.43470,82047
25.44405,81013
25.45338,81085
25.46273,79332
25.47207,78901
25.48140,82425
25.49075,90578
25.50008,95166
25.50942,95951
25.51877,94000
25.52810,90441
25.53743,92019
25.54678,89745
25.55612,91261
25.56545,87975
25.57480,85846
25.58413,80705
25.59347,82253
25.60282,77096
25.61215,79257
25.62150,79895
25.63083,85961
25.64017,87549
25.64952,90623
25.65885,94766
25.66818,92378
25.67753,85724
25.68687,81908
25.69620,80103
25.70555,80360
25.71488,79504
25.72422,77114
25.73357,77515
25.74290,76230
25.75223,77531
25.76158,76740
25.77092,77872
25.78025,77643
25.78960,76943
25.79893,80623
25.80828,85880
25.81762,88274
25.82695,94371
25.83630,103150
25.84563,105868
25.85497,100762
25.86432,90572
25.87365,88452
25.88298,85291
25.89233,82965
25.90167,80081
25.91100,79509
25.92035,81132
25.92968,79355
25.93902,83451
25.94837,87517
25.95770,90505
25.96703,93874
25.97638,87006
25.98572,85790
25.99507,81888
26.00440,80105
26.01373,79234
26.02308,80058
26.03242,84851
26.04175,84987
26.05110,86348
26.06043,85791
26.06977,83065
26.07912,85447
26.08845,82233
26.09778,82486
26.10713,85018
26.11647,96509
26.12580,147506
26.13515,271838
26.14448,419982
26.15382,440055
26.16317,348451
26.17250,255598
26.18185,198703
26.19118,159030
26.20052,133290
26.20987,121655
26.21920,112122
26.22853,104158
26.23788,102202
26.24722,97433
26.25655,95072
26.26590,92827
26.27523,91490
26.28457,93752
26.29392,91425
26.30325,96890
26.31258,97600
26.32193,98226
26.33127,94389
26.34062,92090
26.34995,90637
26.35928,88066
26.36863,87205
26.37797,86576
26.38730,85494
26.39665,83739
26.40598,83797
26.41532,82904
26.42467,84160
26.43400,85860
26.44333,86553
26.45268,91016
26.46202,89650
26.47135,88185
26.48070,89531
26.49003,88884
26.49937,89460
26.50872,92896
26.51805,92765
26.52740,100998
26.53673,102745
26.54607,101725
26.55542,100732
26.56475,101835
26.57408,98523
26.58343,103248
26.59277,101613
26.60210,111298
26.61145,113595
26.62078,108023
26.63012,100968
26.63947,95400
26.64880,92066
26.65813,91227
26.66748,92891
26.67682,93883
26.68615,91842
26.69550,93840
26.70483,93716
26.71418,92481
26.72352,89683
26.73285,90489
26.74220,93956
26.75153,92646
26.76087,92821
26.77022,95414
26.77955,93743
26.78888,97278
26.79823,95571
26.80757,93204
26.81690,93646
26.82625,94276
26.83558,95235
26.84492,96730
26.85427,94106
26.86360,94766
26.87293,95198
26.88228,90703
26.89162,88912
26.90097,89769
26.91030,89523
26.91963,89617
26.92898,87681
26.93832,90023
26.94765,87142
26.95700,85752
26.96633,85868
26.97567,87561
26.98502,91728
26.99435,103046
27.00368,125034
27.01303,137466
27.02237,133889
27.03170,121563
27.04105,110377
27.05038,106333
27.05972,105796
27.06907,102510
27.07840,97852
27.08775,96076
27.09708,93995
27.10642,94730
27.11577,97464
27.12510,97570
27.13443,97253
27.14378,99514
27.15312,103981
27.16245,101006
27.17180,99455
27.18113,92055
27.19047,91826
27.19982,93249
27.20915,91360
27.21848,89473
27.22783,90852
27.23717,95071
27.24650,101779
27.25585,110994
27.26518,113643
27.27453,112705
27.28387,103163
27.29320,96307
27.30255,93164
27.31188,90453
27.32122,91790
27.33057,92608
27.33990,87279
27.34923,88854
27.35858,89014
27.36792,87934
27.37725,90537
27.38660,89926
27.39593,87990
27.40527,88148
27.41462,89433
27.42395,95548
27.43330,99343
27.44263,99600
27.45197,100367
27.46132,95911
27.47065,93769
27.47998,89573
27.48933,93497
27.49867,91639
27.50800,93664
27.51735,92096
27.52668,92356
27.53602,90543
27.54537,89092
27.55470,88892
27.56403,87717
27.57338,91150
27.58272,88816
27.59205,89480
27.60140,91503
27.61073,89109
27.62008,88233
27.62942,89196
27.63875,89743
27.64810,93081
27.65743,99142
27.66677,121666
27.67612,176136
27.68545,249305
27.69478,298671
27.70413,247447
27.71347,176064
27.72280,136230
27.73215,123281
27.74148,116269
27.75082,104835
27.76017,106228
27.76950,105673
27.77883,104845
27.78818,103992
27.79752,103755
27.80687,102768
27.81620,102685
27.82553,105014
27.83488,102835
27.84422,103926
27.85355,103987
27.86290,101372
27.87223,101154
27.88157,99779
27.89092,99829
27.90025,101538
27.90958,101239
27.91893,102969
27.92827,105901
27.93760,109491
27.94695,106196
27.95628,103285
27.96562,102624
27.97497,103524
27.98430,105041
27.99365,99353
28.00298,98825
28.01232,98048
28.02167,99951
28.03100,96283
28.04033,94132
28.04968,93902
28.05902,96845
28.06835,97191
28.07770,99816
28.08703,98814
28.09637,100176
28.10572,117072
28.11505,169400
28.12438,268632
28.13373,332698
28.14307,281080
28.15242,195101
28.16175,147276
28.17108,128530
28.18043,120123
28.18977,111580
28.19910,109854
28.20845,108019
28.21778,107347
28.22712,108119
28.23647,107256
28.24580,105314
28.25513,102297
28.26448,103819
28.27382,100771
28.28315,101517
28.29250,102895
28.30183,102227
28.31117,103708
28.32052,103233
28.32985,103231
28.33920,99031
28.34853,98070
28.35787,99661
28.36722,99145
28.37655,98399
28.38588,103016
28.39523,98845
28.40457,98262
28.41390,99298
28.42325,95748
28.43258,100232
28.44192,100165
28.45127,102218
28.46060,101142
28.46993,101935
28.47928,97636
28.48862,97171
28.49795,99648
28.50730,101402
28.51663,106928
28.52598,110510
28.53532,112140
28.54465,110125
28.55400,110540
28.56333,111271
28.57267,107419
28.58202,111952
28.59135,118582
28.60068,120120
28.61003,120111
28.61937,117001
28.62870,116069
28.63805,112057
28.64738,110409
28.65672,113768
28.66607,123933
28.67540,154613
28.68473,179650
28.69408,186036
28.70342,166409
28.71277,139342
28.72210,121987
28.73143,117160
28.74078,116289
28.75012,117466
28.75945,117071
28.76880,116740
28.77813,114059
28.78747,112297
28.79682,111840
28.80615,112416
28.81548,110678
28.82483,114108
28.83417,112528
28.84350,111823
28.85285,109946
28.86218,111226
28.87152,111708
28.88087,111956
28.89020,113456
28.89955,112670
28.90888,116798
28.91822,118918
28.92757,113428
28.93690,115813
28.94623,114384
28.95558,119631
28.96492,124140
28.97425,131138
28.98360,125663
28.99293,125082
29.00227,121577
29.01162,123001
29.02095,119671
29.03028,122110
29.03963,121922
29.04897,119276
29.05832,118556
29.06765,117182
29.07698,115607
29.08633,116004
29.09567,116726
29.10500,117783
29.11435,117735
29.12368,115942
29.13302,116209
29.14237,116884
29.15170,113518
29.16103,113177
29.17038,114648
29.17972,123182
29.18905,147064
29.19840,225379
29.20773,340297
29.21707,382591
29.22642,308081
29.23575,224594
29.24510,177368
29.25443,152544
29.26377,144192
29.27312,139138
29.28245,135958
29.29178,130044
29.30113,133203
29.31047,129832
29.31980,129418
29.32915,127176
29.33848,126250
29.34782,126600
29.35717,125065
29.36650,126355
29.37583,124944
29.38518,124150
29.39452,123681
29.40385,127218
29.41320,124644
29.42253,123935
29.43188,125854
29.44122,127585
29.45055,126615
29.45990,124729
29.46923,128518
29.47857,125293
29.48792,124514
29.49725,123761
29.50658,122799
29.51593,118612
29.52527,118771
29.53460,114020
29.54395,119151
29.55328,115349
29.56262,115163
29.57197,115031
29.58130,112966
29.59063,112882
29.59998,114107
29.60932,117737
29.61867,117987
29.62800,116697
29.63733,118949
29.64668,120586
29.65602,117218
29.66535,114762
29.67470,117326
29.68403,116511
29.69337,113789
29.70272,117313
29.71205,114296
29.72138,118114
29.73073,116253
29.74007,121874
29.74940,118172
29.75875,115487
29.76808,115019
29.77743,113223
29.78677,112446
29.79610,112613
29.80545,111423
29.81478,112179
29.82412,107845
29.83347,109812
29.84280,107898
29.85213,108573
29.86148,105931
29.87082,108060
29.88015,112178
29.88950,108242
29.89883,109352
29.90817,111954
29.91752,113149
29.92685,114748
29.93618,116190
29.94553,117829
29.95487,114950
29.96422,117950
29.97355,131956
29.98288,148575
29.99223,162987
30.00157,164178
30.01090,151504
30.02025,136415
30.02958,131302
30.03892,125922
30.04827,124637
30.05760,121500
30.06693,121473
30.07628,119930
30.08562,118855
30.09495,118782
30.10430,117630
30.11363,118781
30.12297,113767
30.13232,115584
30.14165,115873
30.15100,116451
30.16033,118601
30.16967,115156
30.17902,116580
30.18835,113797
30.19768,115075
30.20703,112102
30.21637,115939
30.22570,115308
30.23505,114126
30.24438,111979
30.25372,115446
30.26307,112060
30.27240,113537
30.28173,113495
30.29108,112361
30.30042,112368
30.30975,112364
30.31910,108616
30.32843,110144
30.33778,107653
30.34712,109647
30.35645,110208
30.36580,115164
30.37513,122545
30.38447,134636
30.39382,164779
30.40315,204871
30.41248,237394
30.42183,232155
30.43117,199546
30.44050,168410
30.44985,146550
30.45918,133893
30.46852,126856
30.47787,129392
30.48720,131127
30.49653,126456
30.50588,125559
30.51522,119529
30.52457,115286
30.53390,112027
30.54323,109174
30.55258,109178
30.56192,108839
30.57125,110265
30.58060,106768
30.58993,111417
30.59927,111257
30.60862,111580
30.61795,115334
30.62728,123496
30.63663,124222
30.64597,136795
30.65530,137506
30.66465,141604
30.67398,139951
30.68332,134868
30.69267,127162
30.70200,125739
30.71135,119602
30.72068,117066
30.73002,116484
30.73937,113703
30.74870,114023
30.75803,110667
30.76738,108664
30.77672,108049
30.78605,108099
30.79540,107687
30.80473,108109
30.81407,109667
30.82342,105328
30.83275,107296
30.84208,107523
30.85143,108298
30.86077,106743
30.87012,112054
30.87945,109657
30.88878,108800
30.89813,108517
30.90747,112228
30.91680,112143
30.92615,109256
30.93548,110728
30.94482,115555
30.95417,112501
30.96350,112418
30.97283,108465
30.98218,109473
30.99152,108569
31.00085,106917
31.01020,108981
31.01953,104408
31.02887,105421
31.03822,105179
31.04755,104524
31.05690,104761
31.06623,104884
31.07557,103589
31.08492,100647
31.09425,104982
31.10358,104040
31.11293,101420
31.12227,103075
31.13160,102460
31.14095,105645
31.15028,103892
31.15962,105701
31.16897,102293
31.17830,106038
31.18763,105807
31.19698,105975
31.20632,104840
31.21565,103304
31.22500,104082
31.23433,102083
31.24368,100689
31.25302,104791
31.26235,100075
31.27170,104559
31.28103,103116
31.29037,99122
31.29972,102527
31.30905,99547
31.31838,102048
31.32773,100620
31.33707,102446
31.34640,99395
31.35575,102391
31.36508,101861
