D:\数据\20211215\ZS1E-TJ-000104.D Wed Dec 15 10:24:34 2021
Start of data points
0.09757,50267
0.10692,55023
0.11625,56583
0.12558,59326
0.13493,61269
0.14427,61799
0.15360,62632
0.16295,58948
0.17228,57275
0.18162,55105
0.19097,55124
0.20030,54618
0.20963,52456
0.21898,50159
0.22832,47573
0.23767,47212
0.24700,45641
0.25633,46594
0.26568,43627
0.27502,42912
0.28435,43229
0.29370,41783
0.30303,41496
0.31237,40651
0.32172,40739
0.33105,39344
0.34038,39206
0.34973,38891
0.35907,38364
0.36840,37982
0.37775,37234
0.38708,38289
0.39643,37139
0.40577,33719
0.41510,29235
0.42445,26231
0.43378,21237
0.44312,15514
0.45247,14021
0.46180,13852
0.47113,13211
0.48048,13123
0.48982,12357
0.49915,12276
0.50850,12572
0.51783,12083
0.52717,12948
0.53652,12351
0.54585,11969
0.55518,11140
0.56453,10826
0.57387,12181
0.58322,11116
0.59255,10744
0.60188,10310
0.61123,10917
0.62057,11039
0.62990,10314
0.63925,10289
0.64858,9973
0.65792,11093
0.66727,9897
0.67660,10922
0.68593,11131
0.69528,9870
0.70462,10394
0.71395,10558
0.72330,10210
0.73263,10477
0.74197,9437
0.75132,10228
0.76065,9711
0.77000,9739
0.77933,8405
0.78867,9913
0.79802,9733
0.80735,9082
0.81668,9093
0.82603,9681
0.83537,9412
0.84470,9077
0.85405,8959
0.86338,9203
0.87272,9067
0.88207,9211
0.89140,8771
0.90073,9542
0.91008,8510
0.91942,8827
0.92875,9235
0.93810,9085
0.94743,9438
0.95678,8816
0.96612,8245
0.97545,8555
0.98480,8605
0.99413,8825
1.00347,8892
1.01282,8674
1.02215,8609
1.03148,8638
1.04083,8834
1.05017,8909
1.05950,8176
1.06885,8286
1.07818,8502
1.08752,8591
1.09687,8925
1.10620,8207
1.11553,8687
1.12488,8508
1.13422,8971
1.14357,9043
1.15290,8957
1.16223,8521
1.17158,8293
1.18092,8414
1.19025,8978
1.19960,8332
1.20893,9518
1.21827,8692
1.22762,8046
1.23695,7999
1.24628,8800
1.25563,7983
1.26497,8561
1.27430,8140
1.28365,8169
1.29298,9038
1.30233,8509
1.31167,8587
1.32100,9069
1.33035,8098
1.33968,7977
1.34902,8097
1.35837,8953
1.36770,8323
1.37703,8284
1.38638,8233
1.39572,8115
1.40505,8491
1.41440,8229
1.42373,8435
1.43307,8185
1.44242,8510
1.45175,8127
1.46108,8546
1.47043,8455
1.47977,8431
1.48912,8381
1.49845,8504
1.50778,8227
1.51713,8894
1.52647,8091
1.53580,8618
1.54515,7822
1.55448,8428
1.56382,8245
1.57317,8236
1.58250,10086
1.59183,17013
1.60118,25874
1.61052,32278
1.61985,47841
1.62920,84057
1.63853,128509
1.64787,152067
1.65722,146363
1.66655,117430
1.67590,89094
1.68523,68309
1.69457,47715
1.70392,34433
1.71325,30037
1.72258,31768
1.73193,34125
1.74127,39303
1.75060,45544
1.75995,47144
1.76928,46827
1.77862,47955
1.78797,47393
1.79730,47785
1.80663,48628
1.81598,47133
1.82532,46266
1.83465,45989
1.84400,44541
1.85333,43744
1.86268,47342
1.87202,58924
1.88135,115229
1.89070,251866
1.90003,394531
1.90937,488936
1.91872,520542
1.92805,628387
1.93738,950407
1.94673,1492839
1.95607,1976931
1.96540,1989994
1.97475,1652753
1.98408,1255058
1.99342,927736
2.00277,724049
2.01210,636434
2.02145,601877
2.03078,538279
2.04012,418929
2.04947,292368
2.05880,221741
2.06813,171006
2.07748,136944
2.08682,113170
2.09615,104779
2.10550,104556
2.11483,101030
2.12417,96978
2.13352,104028
2.14285,115915
2.15218,120106
2.16153,119446
2.17087,111457
2.18020,112308
2.18955,173802
2.19888,264032
2.20823,222804
2.21757,149509
2.22690,120869
2.23625,165561
2.24558,308152
2.25492,1119942
2.26427,2882657
2.27360,3133565
2.28293,2296960
2.29228,1431324
2.30162,1005685
2.31095,2557734
2.32030,8379902
2.32963,1.112956E+07
2.33897,7366912
2.34832,3407855
2.35765,1448464
2.36698,669864
2.37633,378150
2.38567,273151
2.39502,228330
2.40435,194516
2.41368,168686
2.42303,153893
2.43237,157634
2.44170,152828
2.45105,133599
2.46038,119934
2.46972,141470
2.47907,176796
2.48840,170296
2.49773,138070
2.50708,115933
2.51642,102686
2.52575,95993
2.53510,92701
2.54443,90672
2.55377,93446
2.56312,109332
2.57245,299622
2.58180,465356
2.59113,412124
2.60047,307283
2.60982,261200
2.61915,276475
2.62848,292908
2.63783,256903
2.64717,194848
2.65650,160377
2.66585,146047
2.67518,130268
2.68452,108720
2.69387,90619
2.70320,80635
2.71253,89722
2.72188,127346
2.73122,168992
2.74055,192831
2.74990,218321
2.75923,261381
2.76858,314097
2.77792,408856
2.78725,497739
2.79660,438798
2.80593,297207
2.81527,218389
2.82462,187501
2.83395,164412
2.84328,143611
2.85263,142559
2.86197,162389
2.87130,183821
2.88065,225055
2.88998,209285
2.89932,170730
2.90867,139324
2.91800,130998
2.92733,123778
2.93668,111478
2.94602,94285
2.95537,84681
2.96470,78664
2.97403,76300
2.98338,76187
2.99272,75189
3.00205,78302
3.01140,87993
3.02073,90294
3.03007,90042
3.03942,99815
3.04875,119350
3.05808,143755
3.06743,223589
3.07677,396777
3.08610,574449
3.09545,566032
3.10478,393758
3.11413,222607
3.12347,131919
3.13280,93445
3.14215,82372
3.15148,82598
3.16082,88091
3.17017,88725
3.17950,82719
3.18883,75878
3.19818,71885
3.20752,68110
3.21685,65813
3.22620,64023
3.23553,60993
3.24487,61547
3.25422,68715
3.26355,82810
3.27288,94998
3.28223,99129
3.29157,91312
3.30092,85262
3.31025,85274
3.31958,80143
3.32893,75319
3.33827,76559
3.34760,73705
3.35695,73697
3.36628,67711
3.37562,64472
3.38497,59888
3.39430,59478
3.40363,58014
3.41298,65916
3.42232,78714
3.43165,82230
3.44100,81551
3.45033,85431
3.45967,87741
3.46902,81686
3.47835,77155
3.48770,72154
3.49703,67616
3.50637,67861
3.51572,63902
3.52505,67080
3.53438,63300
3.54373,67890
3.55307,114974
3.56240,268323
3.57175,466378
3.58108,510500
3.59042,383420
3.59977,238864
3.60910,155711
3.61843,114230
3.62778,109539
3.63712,105459
3.64645,94550
3.65580,83153
3.66513,80127
3.67448,89170
3.68382,104551
3.69315,112205
3.70250,100593
3.71183,86560
3.72117,88407
3.73052,90620
3.73985,82991
3.74918,76807
3.75853,69158
3.76787,62855
3.77720,57893
3.78655,56570
3.79588,53050
3.80522,59448
3.81457,68197
3.82390,79593
3.83325,81333
3.84258,72952
3.85192,72466
3.86127,73870
3.87060,67869
3.87993,69417
3.88928,85485
3.89862,123350
3.90795,174361
3.91730,188069
3.92663,153357
3.93597,123918
3.94532,154760
3.95465,211474
3.96398,202346
3.97333,176028
3.98267,151033
3.99200,109152
4.00135,83470
4.01068,92544
4.02003,93181
4.02937,91069
4.03870,96062
4.04805,106937
4.05738,107051
4.06672,101177
4.07607,115267
4.08540,148239
4.09473,162766
4.10408,148134
4.11342,113371
4.12275,86688
4.13210,72322
4.14143,69119
4.15077,67403
4.16012,65912
4.16945,64950
4.17878,60845
4.18813,57833
4.19747,57722
4.20682,57304
4.21615,61175
4.22548,68172
4.23483,78567
4.24417,83637
4.25350,74931
4.26285,66841
4.27218,68174
4.28152,74247
4.29087,84996
4.30020,84839
4.30953,84861
4.31888,83413
4.32822,86754
4.33755,85860
4.34690,78457
4.35623,75502
4.36557,66819
4.37492,60431
4.38425,64821
4.39360,67706
4.40293,65837
4.41227,57864
4.42162,53116
4.43095,53182
4.44028,50768
4.44963,50311
4.45897,55168
4.46830,59103
4.47765,72500
4.48698,82159
4.49632,80167
4.50567,67422
4.51500,60703
4.52433,58561
4.53368,57603
4.54302,61485
4.55235,61395
4.56170,57972
4.57103,56827
4.58038,61220
4.58972,57199
4.59905,59111
4.60840,59081
4.61773,56204
4.62707,53869
4.63642,56657
4.64575,61439
4.65508,67782
4.66443,68042
4.67377,64878
4.68310,63195
4.69245,61878
4.70178,63818
4.71112,65765
4.72047,59722
4.72980,56462
4.73915,52272
4.74848,53101
4.75782,57207
4.76717,58015
4.77650,58569
4.78583,56085
4.79518,55999
4.80452,58915
4.81385,61518
4.82320,63640
4.83253,65500
4.84187,66268
4.85122,65305
4.86055,65038
4.86988,70641
4.87923,75101
4.88857,75408
4.89790,68698
4.90725,64371
4.91658,61823
4.92593,64082
4.93527,65042
4.94460,68038
4.95395,65507
4.96328,58122
4.97262,56036
4.98197,53885
4.99130,56682
5.00063,62702
5.00998,66285
5.01932,76645
5.02865,88389
5.03800,87292
5.04733,78815
5.05667,69576
5.06602,64588
5.07535,63057
5.08468,66440
5.09403,67235
5.10337,68795
5.11272,68759
5.12205,66127
5.13138,61763
5.14073,62187
5.15007,66208
5.15940,66222
5.16875,67026
5.17808,65580
5.18742,65285
5.19677,68298
5.20610,71990
5.21543,69458
5.22478,62308
5.23412,62045
5.24345,67441
5.25280,69509
5.26213,66893
5.27147,103733
5.28082,234130
5.29015,446807
5.29950,520516
5.30883,391506
5.31817,225611
5.32752,129748
5.33685,94687
5.34618,78517
5.35553,68394
5.36487,63323
5.37420,62778
5.38355,66086
5.39288,78581
5.40222,78462
5.41157,72880
5.42090,66820
5.43023,61614
5.43958,56240
5.44892,55141
5.45827,53762
5.46760,53066
5.47693,54670
5.48628,53687
5.49562,55698
5.50495,58132
5.51430,60833
5.52363,66766
5.53297,75211
5.54232,80330
5.55165,78712
5.56098,72892
5.57033,73925
5.57967,70587
5.58900,67379
5.59835,60926
5.60768,54887
5.61702,54119
5.62637,53367
5.63570,54178
5.64505,54090
5.65438,57004
5.66372,60194
5.67307,60392
5.68240,61085
5.69173,63901
5.70108,63371
5.71042,64730
5.71975,62718
5.72910,62768
5.73843,62676
5.74777,74588
5.75712,84130
5.76645,84662
5.77578,86955
5.78513,92251
5.79447,84393
5.80380,70459
5.81315,63493
5.82248,65521
5.83183,71440
5.84117,76755
5.85050,69680
5.85985,55860
5.86918,47298
5.87852,43712
5.88787,41504
5.89720,41624
5.90653,54956
5.91588,118546
5.92522,212214
5.93455,236604
5.94390,183302
5.95323,135944
5.96257,115645
5.97192,91999
5.98125,72023
5.99058,59501
5.99993,51431
6.00927,46086
6.01862,42239
6.02795,37441
6.03728,33323
6.04663,32528
6.05597,34627
6.06530,35896
6.07465,34981
6.08398,31435
6.09332,29637
6.10267,28504
6.11200,28945
6.12133,36765
6.13068,45516
6.14002,54266
6.14935,52414
6.15870,42924
6.16803,35316
6.17737,33839
6.18672,33716
6.19605,31881
6.20540,30460
6.21473,30054
6.22407,31932
6.23342,39636
6.24275,45756
6.25208,53047
6.26143,54900
6.27077,50292
6.28010,53337
6.28945,52201
6.29878,49332
6.30812,42266
6.31747,37019
6.32680,37648
6.33613,41025
6.34548,42738
6.35482,43279
6.36415,42340
6.37350,48543
6.38283,61351
6.39218,85769
6.40152,196056
6.41085,471727
6.42020,722470
6.42953,609814
6.43887,333447
6.44822,143776
6.45755,80664
6.46688,61830
6.47623,54475
6.48557,51325
6.49490,50730
6.50425,50198
6.51358,51039
6.52292,51609
6.53227,48977
6.54160,45351
6.55095,45352
6.56028,44082
6.56962,41806
6.57897,43346
6.58830,46904
6.59763,49374
6.60698,49394
6.61632,49887
6.62565,50996
6.63500,51927
6.64433,53918
6.65367,53871
6.66302,56997
6.67235,56688
6.68168,51187
6.69103,53617
6.70037,71719
6.70970,82063
6.71905,74161
6.72838,65223
6.73773,54487
6.74707,49156
6.75640,43270
6.76575,43917
6.77508,42159
6.78442,44836
6.79377,49139
6.80310,54816
6.81243,54514
6.82178,47179
6.83112,43458
6.84045,43830
6.84980,43709
6.85913,44545
6.86847,42411
6.87782,40967
6.88715,40253
6.89648,41812
6.90583,47171
6.91517,58219
6.92452,57631
6.93385,50120
6.94318,42902
6.95253,40972
6.96187,39115
6.97120,39687
6.98055,41532
6.98988,40589
6.99922,38643
7.00857,38251
7.01790,37917
7.02723,37133
7.03658,36034
7.04592,34218
7.05525,31105
7.06460,31665
7.07393,31724
7.08327,30948
7.09262,36477
7.10195,39819
7.11130,46673
7.12063,44328
7.12997,44334
7.13932,40687
7.14865,36247
7.15798,32732
7.16733,30971
7.17667,32549
7.18600,32582
7.19535,32623
7.20468,32917
7.21402,34288
7.22337,41462
7.23270,64338
7.24203,101878
7.25138,115479
7.26072,86880
7.27007,57134
7.27940,48046
7.28873,45409
7.29808,40846
7.30742,37078
7.31675,29853
7.32610,29325
7.33543,29036
7.34477,28498
7.35412,28439
7.36345,28640
7.37278,30395
7.38213,31682
7.39147,53897
7.40080,111156
7.41015,190681
7.41948,211224
7.42882,162878
7.43817,98104
7.44750,56308
7.45685,37903
7.46618,32661
7.47552,30909
7.48487,38812
7.49420,43423
7.50353,40529
7.51288,35205
7.52222,30815
7.53155,29347
7.54090,30313
7.55023,30055
7.55957,32002
7.56892,38114
7.57825,37982
7.58758,36115
7.59693,36254
7.60627,37137
7.61560,40325
7.62495,43167
7.63428,41957
7.64363,37770
7.65297,33415
7.66230,31359
7.67165,34276
7.68098,38466
7.69032,40960
7.69967,40800
7.70900,37551
7.71833,35017
7.72768,33428
7.73702,37294
7.74635,42620
7.75570,47008
7.76503,46973
7.77437,40337
7.78372,39216
7.79305,36625
7.80238,37203
7.81173,33878
7.82107,31892
7.83042,29407
7.83975,31225
7.84908,36303
7.85843,58954
7.86777,92191
7.87710,113664
7.88645,97041
7.89578,70375
7.90512,61252
7.91447,76915
7.92380,106909
7.93313,99206
7.94248,67275
7.95182,54840
7.96115,68303
7.97050,77943
7.97983,78661
7.98917,77902
7.99852,71381
8.00785,57563
8.01720,52238
8.02653,62119
8.03587,82814
8.04522,100160
8.05455,92216
8.06388,62925
8.07323,40286
8.08257,37286
8.09190,50975
8.10125,76116
8.11058,77234
8.11992,58135
8.12927,41623
8.13860,35201
8.14793,34312
8.15728,33753
8.16662,31096
8.17597,32117
8.18530,32345
8.19463,33429
8.20398,31717
8.21332,31816
8.22265,33250
8.23200,31769
8.24133,37403
8.25067,37961
8.26002,37094
8.26935,34103
8.27868,31730
8.28803,30952
8.29737,30535
8.30670,33595
8.31605,32423
8.32538,33635
8.33472,31194
8.34407,31537
8.35340,29631
8.36275,30735
8.37208,39765
8.38142,60455
8.39077,62178
8.40010,58286
8.40943,54514
8.41878,48090
8.42812,45943
8.43745,43624
8.44680,39871
8.45613,39536
8.46547,39000
8.47482,40807
8.48415,41035
8.49348,38252
8.50283,36521
8.51217,37397
8.52150,36558
8.53085,34892
8.54018,36784
8.54953,38306
8.55887,38313
8.56820,35442
8.57755,35215
8.58688,37491
8.59622,41304
8.60557,42037
8.61490,41996
8.62423,39370
8.63358,35416
8.64292,34093
8.65225,35232
8.66160,36791
8.67093,39257
8.68027,36055
8.68962,35172
8.69895,34759
8.70828,35251
8.71763,33712
8.72697,32482
8.73632,30870
8.74565,38306
8.75498,46650
8.76433,49224
8.77367,46645
8.78300,44008
8.79235,55704
8.80168,92025
8.81102,148694
8.82037,167439
8.82970,116563
8.83903,61193
8.84838,37664
8.85772,33359
8.86705,35897
8.87640,38678
8.88573,40278
8.89508,38335
8.90442,39321
8.91375,39387
8.92310,39009
8.93243,40176
8.94177,37643
8.95112,34128
8.96045,36077
8.96978,38163
8.97913,39582
8.98847,37318
8.99780,40641
9.00715,41952
9.01648,43718
9.02582,40190
9.03517,38690
9.04450,40073
9.05383,36970
9.06318,40689
9.07252,43069
9.08187,50429
9.09120,55891
9.10053,53303
9.10988,47281
9.11922,46224
9.12855,57023
9.13790,87738
9.14723,103240
9.15657,82174
9.16592,51978
9.17525,41210
9.18458,38394
9.19393,37907
9.20327,39686
9.21260,46080
9.22195,67862
9.23128,100101
9.24062,109198
9.24997,88316
9.25930,65744
9.26865,53421
9.27798,48404
9.28732,45209
9.29667,42410
9.30600,44053
9.31533,47359
9.32468,56392
9.33402,72066
9.34335,71760
9.35270,65325
9.36203,108029
9.37137,220149
9.38072,300505
9.39005,256342
9.39938,163310
9.40873,98894
9.41807,75757
9.42740,69374
9.43675,65034
9.44608,55870
9.45543,44828
9.46477,37675
9.47410,37282
9.48345,35666
9.49278,36805
9.50212,44354
9.51147,41235
9.52080,39660
9.53013,43239
9.53948,47293
9.54882,51875
9.55815,67906
9.56750,82431
9.57683,77668
9.58617,59199
9.59552,50625
9.60485,59450
9.61418,58592
9.62353,52410
9.63287,47052
9.64222,44660
9.65155,45937
9.66088,47196
9.67023,46892
9.67957,47230
9.68890,41119
9.69825,39870
9.70758,38092
9.71692,55843
9.72627,156911
9.73560,509614
9.74493,1057374
9.75428,1208547
9.76362,810271
9.77295,387356
9.78230,189118
9.79163,127271
9.80097,98352
9.81032,82977
9.81965,78367
9.82900,86535
9.83833,103914
9.84767,115576
9.85702,106475
9.86635,88328
9.87568,72280
9.88503,84160
9.89437,104981
9.90370,103924
9.91305,87818
9.92238,79370
9.93172,72158
9.94107,65477
9.95040,55337
9.95973,50246
9.96908,63866
9.97842,105731
9.98777,200724
9.99710,263575
10.00643,212296
10.01578,121427
10.02512,70023
10.03445,54909
10.04380,51708
10.05313,53709
10.06247,58917
10.07182,70556
10.08115,77278
10.09048,71875
10.09983,58946
10.10917,67124
10.11850,137221
10.12785,302225
10.13718,403859
10.14652,485194
10.15587,1171346
10.16520,2827992
10.17455,3602881
10.18388,2194010
10.19322,651684
10.20257,140901
10.21190,59435
10.22123,58131
10.23058,57186
10.23992,74047
10.24925,88548
10.25860,83559
10.26793,65335
10.27727,50855
10.28662,48605
10.29595,50086
10.30528,58851
10.31463,61442
10.32397,54262
10.33330,45333
10.34265,44003
10.35198,41730
10.36133,41072
10.37067,41294
10.38000,40617
10.38935,37831
10.39868,37719
10.40802,42584
10.41737,57489
10.42670,79193
10.43603,83036
10.44538,67458
10.45472,54581
10.46405,55527
10.47340,60932
10.48273,54155
10.49207,46008
10.50142,40703
10.51075,39352
10.52008,39670
10.52943,40373
10.53877,44028
10.54812,43765
10.55745,44440
10.56678,41789
10.57613,43329
10.58547,44839
10.59480,43318
10.60415,39096
10.61348,38332
10.62282,41169
10.63217,51498
10.64150,61721
10.65083,57761
10.66018,48642
10.66952,47021
10.67885,48654
10.68820,50726
10.69753,48683
10.70688,49274
10.71622,62514
10.72555,73719
10.73490,64998
10.74423,55766
10.75357,75289
10.76292,129837
10.77225,164245
10.78158,151033
10.79093,192496
10.80027,390991
10.80960,598816
10.81895,510949
10.82828,259628
10.83762,106016
10.84697,56542
10.85630,49153
10.86563,53224
10.87498,69982
10.88432,90111
10.89367,90095
10.90300,71779
10.91233,55476
10.92168,47740
10.93102,49739
10.94035,48520
10.94970,48655
10.95903,47026
10.96837,45362
10.97772,43732
10.98705,39483
10.99638,40133
11.00573,40023
11.01507,41320
11.02440,38753
11.03375,37460
11.04308,35727
11.05242,36963
11.06177,37435
11.07110,39947
11.08045,39884
11.08978,40955
11.09912,42584
11.10847,56532
11.11780,72766
11.12713,69820
11.13648,57293
11.14582,50441
11.15515,49182
11.16450,44853
11.17383,46594
11.18317,44270
11.19252,40070
11.20185,38206
11.21118,36562
11.22053,39473
11.22987,39845
11.23920,40523
11.24855,39193
11.25788,42252
11.26723,45034
11.27657,47011
11.28590,41073
11.29525,38826
11.30458,39264
11.31392,38689
11.32327,38290
11.33260,46979
11.34193,63565
11.35128,80258
11.36062,88692
11.36995,84162
11.37930,68306
11.38863,57261
11.39797,58947
11.40732,68336
11.41665,75876
11.42598,67122
11.43533,51440
11.44467,42851
11.45402,42307
11.46335,53074
11.47268,65030
11.48203,66022
11.49137,53803
11.50070,41527
11.51005,38622
11.51938,36511
11.52872,35523
11.53807,35088
11.54740,38754
11.55673,49561
11.56608,88614
11.57542,151607
11.58475,196492
11.59410,164166
11.60343,112844
11.61278,79481
11.62212,68147
11.63145,61946
11.64080,56469
11.65013,55805
11.65947,57148
11.66882,59576
11.67815,54163
11.68748,50318
11.69683,46959
11.70617,50702
11.71550,58023
11.72485,54179
11.73418,47351
11.74352,40947
11.75287,40122
11.76220,39868
11.77153,41023
11.78088,48120
11.79022,53220
11.79957,52363
11.80890,46117
11.81823,44758
11.82758,45354
11.83692,47773
11.84625,48869
11.85560,48181
11.86493,44687
11.87427,45641
11.88362,47389
11.89295,45545
11.90228,42700
11.91163,42887
11.92097,39727
11.93030,40822
11.93965,47689
11.94898,57430
11.95832,58775
11.96767,50346
11.97700,44854
11.98635,39189
11.99568,43566
12.00502,54355
12.01437,77440
12.02370,92217
12.03303,78681
12.04238,64404
12.05172,53148
12.06105,48482
12.07040,42602
12.07973,39119
12.08907,39718
12.09842,41704
12.10775,42356
12.11708,40476
12.12643,38661
12.13577,38269
12.14510,40785
12.15445,44006
12.16378,57668
12.17313,94000
12.18247,133080
12.19180,134459
12.20115,97677
12.21048,72617
12.21982,62177
12.22917,64116
12.23850,68256
12.24783,61699
12.25718,53115
12.26652,58252
12.27585,95749
12.28520,143296
12.29453,136802
12.30387,92006
12.31322,59007
12.32255,51754
12.33190,54937
12.34123,55461
12.35057,54705
12.35992,50401
12.36925,46821
12.37858,50298
12.38793,55592
12.39727,58107
12.40660,57799
12.41595,53835
12.42528,47679
12.43462,45675
12.44397,43977
12.45330,44109
12.46263,43818
12.47198,47960
12.48132,49601
12.49065,50545
12.50000,50424
12.50933,50135
12.51868,50543
12.52802,51762
12.53735,48883
12.54670,50771
12.55603,50472
12.56537,56178
12.57472,58434
12.58405,55745
12.59338,47906
12.60273,42758
12.61207,42993
12.62140,47907
12.63075,57730
12.64008,72429
12.64942,80565
12.65877,79202
12.66810,69359
12.67743,61045
12.68678,51769
12.69612,44403
12.70547,42322
12.71480,45435
12.72413,47665
12.73348,46460
12.74282,45643
12.75215,49277
12.76150,45584
12.77083,45058
12.78017,42851
12.78952,40493
12.79885,43890
12.80818,44827
12.81753,45452
12.82687,46592
12.83620,44106
12.84555,44841
12.85488,41724
12.86422,41342
12.87357,39169
12.88290,41210
12.89225,44298
12.90158,47390
12.91092,44053
12.92027,44458
12.92960,41595
12.93893,42072
12.94828,43346
12.95762,44437
12.96695,45238
12.97630,42763
12.98563,43140
12.99497,41869
13.00432,43674
13.01365,44983
13.02298,49615
13.03233,58348
13.04167,65352
13.05100,65573
13.06035,64226
13.06968,63152
13.07903,59241
13.08837,54469
13.09770,50813
13.10705,47599
13.11638,45657
13.12572,49885
13.13507,56838
13.14440,61609
13.15373,68672
13.16308,69405
13.17242,66077
13.18175,57598
13.19110,71545
13.20043,155541
13.20977,352030
13.21912,496147
13.22845,402826
13.23778,212925
13.24713,136933
13.25647,129778
13.26582,116724
13.27515,95399
13.28448,83566
13.29383,72396
13.30317,62405
13.31250,60667
13.32185,66364
13.33118,68190
13.34052,65937
13.34987,62650
13.35920,59179
13.36853,55976
13.37788,50331
13.38722,53384
13.39655,61323
13.40590,71278
13.41523,64821
13.42458,53623
13.43392,54572
13.44325,58888
13.45260,61171
13.46193,57516
13.47127,57215
13.48062,58185
13.48995,56410
13.49928,52642
13.50863,53711
13.51797,74268
13.52730,116881
13.53665,136697
13.54598,104720
13.55532,66258
13.56467,53703
13.57400,47554
13.58333,44861
13.59268,44196
13.60202,44943
13.61137,48537
13.62070,46408
13.63003,50289
13.63938,56488
13.64872,65002
13.65805,67600
13.66740,61359
13.67673,52541
13.68607,45915
13.69542,42646
13.70475,42818
13.71408,40782
13.72343,38180
13.73277,40358
13.74210,40321
13.75145,40919
13.76078,41295
13.77012,42267
13.77947,41973
13.78880,41651
13.79815,46249
13.80748,53727
13.81682,56504
13.82617,52360
13.83550,42928
13.84483,41589
13.85418,42133
13.86352,45691
13.87285,50335
13.88220,54334
13.89153,72053
13.90087,110703
13.91022,198706
13.91955,338069
13.92888,366981
13.93823,229080
13.94757,104117
13.95690,69422
13.96625,66425
13.97558,61185
13.98493,57311
13.99427,57804
14.00360,56318
14.01295,54818
14.02228,52130
14.03162,50944
14.04097,79967
14.05030,403203
14.05963,2025613
14.06898,5770960
14.07832,8568130
14.08765,6776185
14.09700,2471881
14.10633,455725
14.11567,99887
14.12502,65342
14.13435,59572
14.14370,59618
14.15303,61224
14.16237,65585
14.17172,71400
14.18105,74753
14.19038,80587
14.19973,94118
14.20907,89457
14.21840,69933
14.22775,49188
14.23708,43983
14.24642,42975
14.25577,43231
14.26510,49870
14.27443,55326
14.28378,56006
14.29312,50900
14.30245,46281
14.31180,50730
14.32113,67882
14.33048,91443
14.33982,103451
14.34915,94588
14.35850,80246
14.36783,62489
14.37717,52832
14.38652,47357
14.39585,50024
14.40518,48933
14.41453,46168
14.42387,41847
14.43320,42141
14.44255,52974
14.45188,79260
14.46122,128083
14.47057,150278
14.47990,133229
14.48923,94400
14.49858,63934
14.50792,49995
14.51727,44217
14.52660,42650
14.53593,43853
14.54528,45961
14.55462,48738
14.56395,52976
14.57330,53266
14.58263,49964
14.59197,46206
14.60132,45159
14.61065,44154
14.61998,44229
14.62933,49100
14.63867,52105
14.64800,64655
14.65735,76346
14.66668,80146
14.67602,70791
14.68537,58863
14.69470,52471
14.70405,48001
14.71338,45952
14.72272,46578
14.73207,47586
14.74140,50955
14.75073,55307
14.76008,58505
14.76942,60191
14.77875,57569
14.78810,54393
14.79743,53138
14.80677,52413
14.81612,49143
14.82545,49045
14.83478,46379
14.84413,45219
14.85347,45316
14.86280,51491
14.87215,65495
14.88148,75900
14.89083,68216
14.90017,54201
14.90950,48817
14.91885,45489
14.92818,48208
14.93752,49355
14.94687,50021
14.95620,50885
14.96553,58250
14.97488,66021
14.98422,64732
14.99355,56630
15.00290,57934
15.01223,63855
15.02157,66971
15.03092,63303
15.04025,59651
15.04958,65297
15.05893,75454
15.06827,73880
15.07762,76047
15.08695,64374
15.09628,55414
15.10563,49372
15.11497,52175
15.12430,63372
15.13365,77678
15.14298,83367
15.15232,72280
15.16167,54849
15.17100,50460
15.18033,51628
15.18968,55879
15.19902,71983
15.20835,97276
15.21770,133900
15.22703,151980
15.23638,137325
15.24572,94732
15.25505,67312
15.26440,56215
15.27373,51194
15.28307,52861
15.29242,52063
15.30175,51487
15.31108,49590
15.32043,50889
15.32977,56361
15.33910,63621
15.34845,62962
15.35778,58516
15.36712,62968
15.37647,69131
15.38580,68466
15.39513,57146
15.40448,48611
15.41382,49230
15.42317,51747
15.43250,57321
15.44183,54024
15.45118,54171
15.46052,49016
15.46985,50912
15.47920,50020
15.48853,50649
15.49787,52546
15.50722,68329
15.51655,105054
15.52588,126714
15.53523,113257
15.54457,79280
15.55390,57508
15.56325,48524
15.57258,47819
15.58192,48907
15.59127,49875
15.60060,50880
15.60995,52621
15.61928,54184
15.62862,60121
15.63797,65068
15.64730,72265
15.65663,76428
15.66598,82443
15.67532,81316
15.68465,94159
15.69400,223764
15.70333,556725
15.71267,791263
15.72202,630582
15.73135,350916
15.74068,179371
15.75003,125471
15.75937,110312
15.76870,101916
15.77805,87881
15.78738,75889
15.79673,70199
15.80607,90159
15.81540,174802
15.82475,370987
15.83408,576132
15.84342,607289
15.85277,475861
15.86210,267158
15.87143,141774
15.88078,104078
15.89012,104896
15.89945,113337
15.90880,112521
15.91813,98433
15.92747,81743
15.93682,69564
15.94615,59500
15.95550,59442
15.96483,61208
15.97417,70148
15.98352,89017
15.99285,117392
16.00218,129705
16.01153,106839
16.02087,74286
16.03020,62880
16.03955,59258
16.04888,62617
16.05822,66917
16.06757,65703
16.07690,66784
16.08623,63413
16.09558,59696
16.10492,59819
16.11425,65024
16.12360,71371
16.13293,72755
16.14228,65495
16.15162,60743
16.16095,61954
16.17030,57669
16.17963,59333
16.18897,57836
16.19832,61131
16.20765,68925
16.21698,73284
16.22633,76185
16.23567,77881
16.24500,71486
16.25435,66205
16.26368,64820
16.27302,71114
16.28237,105755
16.29170,205231
16.30103,346757
16.31038,380947
16.31972,252718
16.32907,122358
16.33840,72834
16.34773,56526
16.35708,52271
16.36642,50303
16.37575,48443
16.38510,49516
16.39443,51810
16.40377,50788
16.41312,54283
16.42245,57639
16.43178,57227
16.44113,56546
16.45047,64226
16.45980,72978
16.46915,78137
16.47848,72783
16.48782,65445
16.49717,64202
16.50650,63834
16.51585,62997
16.52518,65322
16.53452,63642
16.54387,60796
16.55320,55007
16.56253,54304
16.57188,53146
16.58122,58048
16.59055,61734
16.59990,58710
16.60923,56643
16.61857,57933
16.62792,67387
16.63725,76178
16.64658,74222
16.65593,67931
16.66527,59864
16.67460,56270
16.68395,56794
16.69328,70138
16.70263,82470
16.71197,80260
16.72130,65861
16.73065,60272
16.73998,69619
16.74932,111985
16.75867,143880
16.76800,123095
16.77733,81081
16.78668,58758
16.79602,55093
16.80535,62503
16.81470,68310
16.82403,75900
16.83337,85295
16.84272,85112
16.85205,78949
16.86140,68565
16.87073,61094
16.88007,55543
16.88942,54983
16.89875,58779
16.90808,67771
16.91743,87392
16.92677,93244
16.93610,81832
16.94545,72031
16.95478,74297
16.96412,81025
16.97347,81836
16.98280,73034
16.99213,65672
17.00148,57588
17.01082,57905
17.02015,61850
17.02950,87943
17.03883,115029
17.04818,114896
17.05752,87416
17.06685,72666
17.07620,70440
17.08553,66852
17.09487,61695
17.10422,60126
17.11355,55639
17.12288,51969
17.13223,56573
17.14157,62728
17.15090,61082
17.16025,55817
17.16958,54950
17.17892,53912
17.18827,54583
17.19760,55256
17.20693,52288
17.21628,53002
17.22562,51743
17.23497,50272
17.24430,52020
17.25363,55407
17.26298,54880
17.27232,59002
17.28165,64538
17.29100,69275
17.30033,68856
17.30967,64009
17.31902,65936
17.32835,66605
17.33768,64470
17.34703,60206
17.35637,55064
17.36570,58207
17.37505,85581
17.38438,164877
17.39372,234639
17.40307,203007
17.41240,131328
17.42175,87731
17.43108,69439
17.44042,64120
17.44977,63007
17.45910,64851
17.46843,66051
17.47778,66639
17.48712,92626
17.49645,294828
17.50580,1134788
17.51513,2610278
17.52447,3187257
17.53382,1945394
17.54315,629309
17.55248,144524
17.56183,74726
17.57117,68852
17.58052,71566
17.58985,75551
17.59918,73821
17.60853,63303
17.61787,57604
17.62720,57929
17.63655,57647
17.64588,58204
17.65522,61674
17.66457,74474
17.67390,86859
17.68323,100998
17.69258,115151
17.70192,115362
17.71125,102504
17.72060,88704
17.72993,75362
17.73927,69353
17.74862,70057
17.75795,74606
17.76730,78673
17.77663,80817
17.78597,77111
17.79532,68748
17.80465,64194
17.81398,59269
17.82333,56056
17.83267,56330
17.84200,59072
17.85135,68513
17.86068,78681
17.87002,92961
17.87937,87149
17.88870,81781
17.89803,79586
17.90738,75495
17.91672,64608
17.92605,62710
17.93540,65604
17.94473,65012
17.95408,64762
17.96342,62328
17.97275,58675
17.98210,58837
17.99143,58464
18.00077,58720
18.01012,61068
18.01945,63064
18.02878,63082
18.03813,67761
18.04747,79220
18.05680,103290
18.06615,115164
18.07548,98925
18.08482,77357
18.09417,69285
18.10350,76056
18.11283,91039
18.12218,97021
18.13152,91171
18.14087,86235
18.15020,85522
18.15953,81249
18.16888,78387
18.17822,72654
18.18755,70044
18.19690,69621
18.20623,66327
18.21557,66277
18.22492,70695
18.23425,70502
18.24358,66728
18.25293,62128
18.26227,60347
18.27160,66915
18.28095,71889
18.29028,77803
18.29962,82774
18.30897,92790
18.31830,88440
18.32765,84490
18.33698,82964
18.34632,90625
18.35567,101615
18.36500,108910
18.37433,105679
18.38368,100801
18.39302,93611
18.40235,85008
18.41170,80904
18.42103,77387
18.43037,71441
18.43972,75204
18.44905,84388
18.45838,90125
18.46773,81418
18.47707,70616
18.48640,72395
18.49575,86502
18.50508,113416
18.51443,131364
18.52377,129188
18.53310,101382
18.54245,81886
18.55178,78908
18.56112,89032
18.57047,85821
18.57980,74092
18.58913,68640
18.59848,70281
18.60782,78817
18.61715,89177
18.62650,90467
18.63583,81426
18.64517,72712
18.65452,71269
18.66385,66578
18.67320,64044
18.68253,63867
18.69187,72088
18.70122,83813
18.71055,89284
18.71988,94066
18.72923,86931
18.73857,82772
18.74790,77115
18.75725,70770
18.76658,64771
18.77592,62883
18.78527,58725
18.79460,58095
18.80393,60806
18.81328,65611
18.82262,64872
18.83195,65724
18.84130,65527
18.85063,63770
18.85998,64541
18.86932,66125
18.87865,65525
18.88800,63532
18.89733,65978
18.90667,76106
18.91602,94138
18.92535,101964
18.93468,91982
18.94403,84301
18.95337,91133
18.96270,102746
18.97205,103830
18.98138,101911
18.99072,82952
19.00007,74848
19.00940,72538
19.01873,69589
19.02808,69846
19.03742,77044
19.04677,95676
19.05610,130258
19.06543,162727
19.07478,168904
19.08412,188113
19.09345,198204
19.10280,164651
19.11213,118295
19.12147,83843
19.13082,65074
19.14015,59731
19.14948,56735
19.15883,55032
19.16817,55676
19.17750,54829
19.18685,57565
19.19618,66239
19.20552,71958
19.21487,76934
19.22420,75481
19.23355,77336
19.24288,70116
19.25222,66331
19.26157,61279
19.27090,62039
19.28023,68486
19.28958,74211
19.29892,85009
19.30825,112165
19.31760,155206
19.32693,156446
19.33627,116150
19.34562,87323
19.35495,69350
19.36428,61363
19.37363,55986
19.38297,56684
19.39232,55928
19.40165,59505
19.41098,63662
19.42033,60545
19.42967,57233
19.43900,53700
19.44835,52421
19.45768,53223
19.46702,55541
19.47637,56530
19.48570,62708
19.49503,64819
19.50438,62745
19.51372,57697
19.52305,53119
19.53240,55837
19.54173,55652
19.55107,55756
19.56042,53110
19.56975,53225
19.57910,59277
19.58843,66801
19.59777,70282
19.60712,63881
19.61645,60287
19.62578,58090
19.63513,65928
19.64447,73534
19.65380,70091
19.66315,59887
19.67248,55376
19.68182,57583
19.69117,64438
19.70050,70260
19.70983,73877
19.71918,77252
19.72852,94193
19.73785,105234
19.74720,106020
19.75653,82493
19.76588,70663
19.77522,69024
19.78455,67999
19.79390,65206
19.80323,60636
19.81257,56870
19.82192,55010
19.83125,56084
19.84058,54983
19.84993,53401
19.85927,52124
19.86860,61735
19.87795,80249
19.88728,89836
19.89662,84213
19.90597,66611
19.91530,61986
19.92463,58910
19.93398,55137
19.94332,51832
19.95267,54369
19.96200,54564
19.97133,55673
19.98068,57178
19.99002,52660
19.99935,53360
20.00870,51438
20.01803,54896
20.02737,57457
20.03672,60539
20.04605,63016
20.05538,60416
20.06473,57904
20.07407,56112
20.08340,57069
20.09275,59652
20.10208,54628
20.11142,52136
20.12077,47454
20.13010,47207
20.13945,52067
20.14878,57541
20.15812,63143
20.16747,68018
20.17680,65578
20.18613,60807
20.19548,53163
20.20482,52766
20.21415,54781
20.22350,52624
20.23283,53044
20.24217,54406
20.25152,53270
20.26085,53038
20.27018,50284
20.27953,51338
20.28887,50362
20.29820,50111
20.30755,50979
20.31688,48261
20.32623,45804
20.33557,45092
20.34490,47250
20.35425,49560
20.36358,52319
20.37292,54004
20.38227,53660
20.39160,50488
20.40093,50876
20.41028,51139
20.41962,52155
20.42895,53438
20.43830,50352
20.44763,51958
20.45697,53181
20.46632,58464
20.47565,69627
20.48500,75885
20.49433,65161
20.50367,56113
20.51302,53548
20.52235,54175
20.53168,54231
20.54103,56181
20.55037,57052
20.55970,72472
20.56905,139647
20.57838,269917
20.58772,373691
20.59707,278662
20.60640,143772
20.61573,81061
20.62508,63569
20.63442,59506
20.64375,61085
20.65310,63582
20.66243,61144
20.67178,59652
20.68112,59181
20.69045,59258
20.69980,57951
20.70913,58132
20.71847,57857
20.72782,59043
20.73715,60331
20.74648,58556
20.75583,56635
20.76517,55898
20.77450,54635
20.78385,54509
20.79318,61713
20.80252,67011
20.81187,66816
20.82120,63241
20.83053,53706
20.83988,55021
20.84922,54310
20.85857,52012
20.86790,51124
20.87723,51639
20.88658,52858
20.89592,53678
20.90525,54438
20.91460,55575
20.92393,53699
20.93327,52107
20.94262,51114
20.95195,51592
20.96128,50536
20.97063,50653
20.97997,50317
20.98930,47616
20.99865,49966
21.00798,50144
21.01732,52311
21.02667,49894
21.03600,53495
21.04535,48030
21.05468,52456
21.06402,54066
21.07337,54187
21.08270,51289
21.09203,50909
21.10138,51316
21.11072,53564
21.12005,55585
21.12940,57400
21.13873,53813
21.14807,52384
21.15742,51206
21.16675,53000
21.17608,60926
21.18543,71786
21.19477,76897
21.20412,71967
21.21345,60637
21.22278,52369
21.23213,53632
21.24147,51763
21.25080,50021
21.26015,53467
21.26948,54894
21.27882,58804
21.28817,59147
21.29750,57295
21.30683,58408
21.31618,53487
21.32552,52561
21.33485,51431
21.34420,52322
21.35353,53012
21.36287,52286
21.37222,50505
21.38155,50927
21.39090,51328
21.40023,51832
21.40957,52046
21.41892,56271
21.42825,56258
21.43758,55787
21.44693,56507
21.45627,53948
21.46560,53776
21.47495,55910
21.48428,56225
21.49362,60101
21.50297,60383
21.51230,61199
21.52163,63160
21.53098,60171
21.54032,60346
21.54965,62055
21.55900,68972
21.56833,80534
21.57768,96477
21.58702,95062
21.59635,81244
21.60570,66528
21.61503,60122
21.62437,57521
21.63372,58767
21.64305,57402
21.65238,59025
21.66173,53990
21.67107,58878
21.68040,64473
21.68975,67321
21.69908,66803
21.70842,62551
21.71777,65648
21.72710,66147
21.73643,67251
21.74578,65997
21.75512,61891
21.76447,54469
21.77380,52716
21.78313,54176
21.79248,55015
21.80182,57520
21.81115,61990
21.82050,69100
21.82983,68126
21.83917,65666
21.84852,59175
21.85785,55988
21.86718,58158
21.87653,59125
21.88587,65819
21.89520,68684
21.90455,66227
21.91388,64028
21.92322,59451
21.93257,56599
21.94190,55241
21.95125,57236
21.96058,58872
21.96992,65060
21.97927,74125
21.98860,79290
21.99793,81918
22.00728,79046
22.01662,69426
22.02595,64982
22.03530,63773
22.04463,65927
22.05397,72119
22.06332,70802
22.07265,66401
22.08198,66235
22.09133,63073
22.10067,59823
22.11002,60307
22.11935,59734
22.12868,56839
22.13803,55174
22.14737,60475
22.15670,68220
22.16605,81366
22.17538,88458
22.18472,87133
22.19407,72313
22.20340,67258
22.21273,67052
22.22208,72012
22.23142,72607
22.24075,73313
22.25010,69948
22.25943,67437
22.26877,66667
22.27812,75977
22.28745,84223
22.29680,87451
22.30613,81409
22.31547,72188
22.32482,64391
22.33415,60191
22.34348,61057
22.35283,67194
22.36217,75661
22.37150,80695
22.38085,82008
22.39018,82731
22.39952,73832
22.40887,62977
22.41820,61835
22.42753,64221
22.43688,67389
22.44622,68359
22.45555,63543
22.46490,59431
22.47423,61969
22.48358,58854
22.49292,56683
22.50225,56797
22.51160,55252
22.52093,58000
22.53027,55121
22.53962,56785
22.54895,53921
22.55828,56837
22.56763,59536
22.57697,65798
22.58630,69606
22.59565,70316
22.60498,73936
22.61432,74549
22.62367,75878
22.63300,71464
22.64233,67734
22.65168,61596
22.66102,60847
22.67037,58348
22.67970,62396
22.68903,69372
22.69838,72839
22.70772,72424
22.71705,64883
22.72640,64230
22.73573,71088
22.74507,75487
22.75442,76682
22.76375,78023
22.77308,75101
22.78243,66704
22.79177,67341
22.80110,70903
22.81045,74304
22.81978,71388
22.82913,67874
22.83847,66133
22.84780,63518
22.85715,57972
22.86648,60070
22.87582,61498
22.88517,62618
22.89450,63784
22.90383,60736
22.91318,63183
22.92252,67971
22.93185,66864
22.94120,64421
22.95053,62910
22.95987,63255
22.96922,62261
22.97855,60913
22.98788,57638
22.99723,57906
23.00657,58297
23.01592,56165
23.02525,58688
23.03458,59049
23.04393,57793
23.05327,57105
23.06260,59051
23.07195,54554
23.08128,54030
23.09062,54172
23.09997,53813
23.10930,51309
23.11863,50473
23.12798,50312
23.13732,50094
23.14665,52629
23.15600,53686
23.16533,54202
23.17467,55398
23.18402,55059
23.19335,53853
23.20270,51341
23.21203,52313
23.22137,53181
23.23072,51219
23.24005,59030
23.24938,67203
23.25873,72116
23.26807,71458
23.27740,70001
23.28675,61757
23.29608,59275
23.30542,57138
23.31477,59734
23.32410,62744
23.33343,74348
23.34278,86078
23.35212,78511
23.36145,70405
23.37080,58229
23.38013,54585
23.38948,56731
23.39882,55743
23.40815,55339
23.41750,54052
23.42683,51805
23.43617,54610
23.44552,54731
23.45485,55714
23.46418,58206
23.47353,55695
23.48287,54027
23.49220,52998
23.50155,53271
23.51088,52172
23.52022,53383
23.52957,54020
23.53890,53359
23.54823,52108
23.55758,52239
23.56692,53772
23.57627,53978
23.58560,54074
23.59493,54594
23.60428,55553
23.61362,52751
23.62295,51619
23.63230,50895
23.64163,47601
23.65097,50749
23.66032,53181
23.66965,56819
23.67898,60277
23.68833,62288
23.69767,63645
23.70700,60728
23.71635,64892
23.72568,67081
23.73502,73239
23.74437,69472
23.75370,63001
23.76305,57773
23.77238,52331
23.78172,53305
23.79107,51323
23.80040,50276
23.80973,50333
23.81908,50034
23.82842,52985
23.83775,49528
23.84710,49756
23.85643,51108
23.86577,57195
23.87512,60605
23.88445,57919
23.89378,55472
23.90313,56875
23.91247,54147
23.92182,53141
23.93115,53350
23.94048,52152
23.94983,51886
23.95917,53956
23.96850,53096
23.97785,50142
23.98718,51639
23.99652,49843
24.00587,51118
24.01520,49036
24.02453,52548
24.03388,49361
24.04322,46815
24.05255,48559
24.06190,48125
24.07123,49090
24.08057,49675
24.08992,52120
24.09925,51752
24.10860,50981
24.11793,50317
24.12727,49073
24.13662,50768
24.14595,51380
24.15528,51499
24.16463,49658
24.17397,52536
24.18330,52706
24.19265,51185
24.20198,49556
24.21132,50760
24.22067,51016
24.23000,51114
24.23933,51803
24.24868,50691
24.25802,50420
24.26735,53699
24.27670,52717
24.28603,49072
24.29538,49067
24.30472,51760
24.31405,51502
24.32340,55794
24.33273,55613
24.34207,54323
24.35142,54084
24.36075,52922
24.37008,51929
24.37943,53479
24.38877,54266
24.39810,53962
24.40745,56466
24.41678,53848
24.42612,53382
24.43547,53371
24.44480,51859
24.45413,50460
24.46348,51983
24.47282,54105
24.48217,50293
24.49150,52500
24.50083,53609
24.51018,52386
24.51952,52663
24.52885,52947
24.53820,54672
24.54753,55911
24.55687,55425
24.56622,56150
24.57555,52457
24.58488,52947
24.59423,54517
24.60357,57976
24.61290,60888
24.62225,62975
24.63158,58905
24.64093,57045
24.65027,55222
24.65960,57342
24.66895,61548
24.67828,61748
24.68762,61395
24.69697,55791
24.70630,57348
24.71563,56475
24.72498,57739
24.73432,57151
24.74365,54640
24.75300,54124
24.76233,54916
24.77167,54073
24.78102,53362
24.79035,51254
24.79968,52783
24.80903,52830
24.81837,53438
24.82772,54594
24.83705,54312
24.84638,53354
24.85573,54918
24.86507,54311
24.87440,55044
24.88375,60014
24.89308,56564
24.90242,56696
24.91177,58225
24.92110,55736
24.93043,58720
24.93978,57220
24.94912,58737
24.95845,58190
24.96780,58948
24.97713,58619
24.98647,60221
24.99582,60566
25.00515,56470
25.01450,56227
25.02383,54303
25.03317,57111
25.04252,54616
25.05185,57202
25.06118,57726
25.07053,55865
25.07987,54400
25.08920,55934
25.09855,54413
25.10788,59160
25.11722,62020
25.12657,68660
25.13590,77984
25.14523,88066
25.15458,97525
25.16392,92491
25.17325,81840
25.18260,74478
25.19193,69075
25.20128,69667
25.21062,65861
25.21995,63462
25.22930,62053
25.23863,60792
25.24797,60727
25.25732,61148
25.26665,60518
25.27598,59295
25.28533,57726
25.29467,61055
25.30400,60089
25.31335,64774
25.32268,88031
25.33202,117252
25.34137,147508
25.35070,131557
25.36003,101089
25.36938,84463
25.37872,80511
25.38807,73704
25.39740,72767
25.40673,71177
25.41608,71696
25.42542,72169
25.43475,73869
25.44410,74735
25.45343,71947
25.46277,73636
25.47212,70478
25.48145,74241
25.49078,80511
25.50013,81077
25.50947,83080
25.51880,84328
25.52815,80622
25.53748,80315
25.54683,82618
25.55617,81676
25.56550,82078
25.57485,78758
25.58418,74554
25.59352,75345
25.60287,73321
25.61220,73746
25.62153,73015
25.63088,71972
25.64022,76344
25.64955,81353
25.65890,87488
25.66823,87054
25.67757,85517
25.68692,76088
25.69625,74830
25.70558,73642
25.71493,72014
25.72427,73865
25.73362,76954
25.74295,73538
25.75228,77824
25.76163,74072
25.77097,76557
25.78030,75053
25.78965,74350
25.79898,73669
25.80832,75643
25.81767,78923
25.82700,81808
25.83633,90578
25.84568,95883
25.85502,94069
25.86435,87057
25.87370,85386
25.88303,79894
25.89237,78676
25.90172,75996
25.91105,77954
25.92040,74775
25.92973,75785
25.93907,76239
25.94842,80676
25.95775,85305
25.96708,85368
25.97643,86580
25.98577,83436
25.99510,76938
26.00445,78552
26.01378,76584
26.02312,76030
26.03247,80006
26.04180,80120
26.05113,82245
26.06048,82549
26.06982,83878
26.07915,79152
26.08850,80449
26.09783,77988
26.10718,83768
26.11652,85070
26.12585,109523
26.13520,184373
26.14453,312851
26.15387,384076
26.16322,328144
26.17255,245997
26.18188,187817
26.19123,149541
26.20057,129617
26.20990,114691
26.21925,106618
26.22858,98951
26.23792,98513
26.24727,95839
26.25660,95167
26.26595,93481
26.27528,88818
26.28462,91117
26.29397,90669
26.30330,92897
26.31263,98120
26.32198,96004
26.33132,94272
26.34065,92497
26.35000,92916
26.35933,90173
26.36867,87730
26.37802,85005
26.38735,87429
26.39668,84978
26.40603,85521
26.41537,83510
26.42470,83376
26.43405,83769
26.44338,88006
26.45273,89346
26.46207,89457
26.47140,91685
26.48075,86659
26.49008,88117
26.49942,89093
26.50877,85708
26.51810,88295
26.52743,93613
26.53678,93537
26.54612,92932
26.55545,94531
26.56480,89781
26.57413,91794
26.58347,94598
26.59282,97854
26.60215,100292
26.61148,105901
26.62083,104642
26.63017,97836
26.63952,86111
26.64885,86866
26.65818,84705
26.66753,90499
26.67687,91325
26.68620,90468
26.69555,90558
26.70488,89567
26.71422,86931
26.72357,86684
26.73290,88105
26.74223,88947
26.75158,86849
26.76092,89932
26.77025,89175
26.77960,90560
26.78893,94348
26.79827,94720
26.80762,92096
26.81695,89153
26.82630,90139
26.83563,93625
26.84497,88812
26.85432,92038
26.86365,89984
26.87298,93344
26.88233,89491
26.89167,90157
26.90100,88700
26.91035,86631
26.91968,87941
26.92902,86257
26.93837,86896
26.94770,88187
26.95703,85616
26.96638,88775
26.97572,85834
26.98505,88429
26.99440,99465
27.00373,115313
27.01308,132099
27.02242,133301
27.03175,116546
27.04110,106809
27.05043,100731
27.05977,99565
27.06912,96544
27.07845,93427
27.08778,89652
27.09713,91032
27.10647,88839
27.11580,91514
27.12515,95745
27.13448,95899
27.14382,102275
27.15317,101843
27.16250,100829
27.17183,98448
27.18118,98210
27.19052,95626
27.19987,96283
27.20920,95747
27.21853,100142
27.22788,101158
27.23722,103002
27.24655,110760
27.25590,116248
27.26523,120424
27.27457,119541
27.28392,115155
27.29325,107898
27.30258,110082
27.31193,110066
27.32127,107914
27.33060,106713
27.33995,108881
27.34928,105931
27.35863,104661
27.36797,106575
27.37730,104749
27.38665,102787
27.39598,103645
27.40532,100701
27.41467,104211
27.42400,106437
27.43333,107979
27.44268,111918
27.45202,109354
27.46135,106203
27.47070,103502
27.48003,101259
27.48937,101358
27.49872,104758
27.50805,100074
27.51738,101795
27.52673,102756
27.53607,98724
27.54542,101044
27.55475,99336
27.56408,97277
27.57343,98999
27.58277,94831
27.59210,97096
27.60145,92700
27.61078,95003
27.62012,91848
27.62947,93306
27.63880,95778
27.64813,93762
27.65748,96201
27.66682,107221
27.67615,121375
27.68550,130641
27.69483,130378
27.70417,117699
27.71352,107754
27.72285,105057
27.73220,104136
27.74153,98246
27.75087,98004
27.76022,98177
27.76955,98295
27.77888,95405
27.78823,97183
27.79757,98255
27.80690,98456
27.81625,96511
27.82558,100183
27.83492,96317
27.84427,100033
27.85360,101752
27.86293,92202
27.87228,99008
27.88162,98051
27.89095,99268
27.90030,100534
27.90963,96568
27.91898,99712
27.92832,104776
27.93765,103463
27.94700,104797
27.95633,102832
27.96567,101059
27.97502,102032
27.98435,99475
27.99368,101129
28.00303,97355
28.01237,94693
28.02170,97722
28.03105,98932
28.04038,96662
28.04972,94208
28.05907,92636
28.06840,97154
28.07775,98204
28.08708,97797
28.09642,101636
28.10577,109716
28.11510,146334
28.12443,218631
28.13378,286006
28.14312,266149
28.15245,199234
28.16180,148521
28.17113,127531
28.18047,119827
28.18982,113354
28.19915,109837
28.20848,106109
28.21783,107473
28.22717,105675
28.23650,105869
28.24585,107769
28.25518,105279
28.26453,103661
28.27387,106845
28.28320,106847
28.29255,102659
28.30188,101135
28.31122,104496
28.32057,99752
28.32990,104646
28.33923,102204
28.34858,100201
28.35792,100279
28.36725,101442
28.37660,100234
28.38593,102645
28.39527,102402
28.40462,103150
28.41395,103604
28.42328,102285
28.43263,102921
28.44197,101514
28.45132,103909
28.46065,104473
28.46998,104639
28.47933,103597
28.48867,107891
28.49800,104579
28.50735,110499
28.51668,109478
28.52602,114222
28.53537,118916
28.54470,119924
28.55403,120808
28.56338,117676
28.57272,116859
28.58205,122314
28.59140,121277
28.60073,124350
28.61007,124246
28.61942,125262
28.62875,122596
28.63810,121761
28.64743,118818
28.65677,120853
28.66612,130650
28.67545,150624
28.68478,185507
28.69413,197795
28.70347,177844
28.71280,151462
28.72215,133077
28.73148,126655
28.74082,126929
28.75017,126068
28.75950,122222
28.76883,124222
28.77818,121103
28.78752,119986
28.79685,116904
28.80620,119034
28.81553,119316
28.82488,120299
28.83422,119906
28.84355,119532
28.85290,118454
28.86223,121484
28.87157,119403
28.88092,120623
28.89025,120977
28.89958,121013
28.90893,124242
28.91827,123065
28.92760,124012
28.93695,123156
28.94628,123177
28.95562,127487
28.96497,130998
28.97430,132716
28.98365,136885
28.99298,138384
29.00232,130039
29.01167,130896
29.02100,129039
29.03033,125122
29.03968,131941
29.04902,126295
29.05835,128580
29.06770,125202
29.07703,125947
29.08637,126468
29.09572,122989
29.10505,126260
29.11438,125577
29.12373,122707
29.13307,126145
29.14240,127529
29.15175,124821
29.16108,123642
29.17043,125782
29.17977,127792
29.18910,141750
29.19845,183427
29.20778,266709
29.21712,317546
29.22647,282270
29.23580,219811
29.24513,176918
29.25448,158663
29.26382,149113
29.27315,141021
29.28250,140753
29.29183,135752
29.30117,135432
29.31052,135387
29.31985,139087
29.32918,136869
29.33853,136238
29.34787,130968
29.35722,134652
29.36655,134775
29.37588,134584
29.38523,130668
29.39457,133923
29.40390,133516
29.41325,135818
29.42258,136357
29.43192,133608
29.44127,136666
29.45060,136403
29.45993,133424
29.46928,140883
29.47862,141891
29.48795,139159
29.49730,135870
29.50663,134221
29.51597,130265
29.52532,129555
29.53465,130657
29.54400,127809
29.55333,126379
29.56267,128612
29.57202,124861
29.58135,125102
29.59068,129347
29.60003,127500
29.60937,130408
29.61870,128772
29.62805,130955
29.63738,129434
29.64672,129611
29.65607,129885
29.66540,129739
29.67473,129051
29.68408,128085
29.69342,128133
29.70277,130650
29.71210,127499
29.72143,128610
29.73078,128548
29.74012,131748
29.74945,132281
29.75880,132721
29.76813,129814
29.77747,125597
29.78682,127288
29.79615,126140
29.80548,125670
29.81483,125676
29.82417,121197
29.83350,121522
29.84285,120848
29.85218,120000
29.86152,121927
29.87087,125671
29.88020,119280
29.88955,126275
29.89888,124152
29.90822,122562
29.91757,122358
29.92690,125384
29.93623,128784
29.94558,134084
29.95492,128471
29.96425,131837
29.97360,139443
29.98293,153906
29.99227,167288
30.00162,172803
30.01095,166067
30.02028,152618
30.02963,145813
30.03897,138889
30.04830,137916
30.05765,135925
30.06698,133535
30.07633,131483
30.08567,133317
30.09500,133275
30.10435,131972
30.11368,132208
30.12302,134061
30.13237,132704
30.14170,134854
30.15103,136744
30.16038,134466
30.16972,136268
30.17905,133032
30.18840,129907
30.19773,132710
30.20707,131506
30.21642,128814
30.22575,132338
30.23508,132551
30.24443,131359
30.25377,128426
30.26312,126411
30.27245,129964
30.28178,126368
30.29113,130074
30.30047,132204
30.30980,131993
30.31915,129522
30.32848,126547
30.33782,127233
30.34717,130357
30.35650,137899
30.36583,140961
30.37518,142657
30.38452,154603
30.39385,179033
30.40320,217843
30.41253,258436
30.42187,268376
30.43122,238655
30.44055,201725
30.44990,178166
30.45923,160289
30.46857,153516
30.47792,149157
30.48725,148717
30.49658,149045
30.50593,146101
30.51527,139173
30.52460,140057
30.53395,132100
30.54328,129920
30.55262,131092
30.56197,126377
30.57130,129302
30.58063,131067
30.58998,130511
30.59932,130328
30.60865,133845
30.61800,134635
30.62733,138673
30.63668,142759
30.64602,148509
30.65535,153059
30.66470,155659
30.67403,154167
30.68337,152922
30.69272,141857
30.70205,143137
30.71138,138640
30.72073,136141
30.73007,130515
30.73940,130172
30.74875,129821
30.75808,132822
30.76742,126693
30.77677,128491
30.78610,129961
30.79545,124264
30.80478,125282
30.81412,125670
30.82347,125169
30.83280,127045
30.84213,125814
30.85148,126387
30.86082,127822
30.87015,125972
30.87950,128205
30.88883,127767
30.89817,129581
30.90752,129558
30.91685,129368
30.92618,129742
30.93553,133194
30.94487,131560
30.95420,134297
30.96355,137180
30.97288,131214
30.98223,128939
30.99157,131581
31.00090,128897
31.01025,128118
31.01958,123329
31.02892,126727
31.03827,127228
31.04760,125353
31.05693,123424
31.06628,123020
31.07562,121848
31.08495,121181
31.09430,121213
31.10363,119894
31.11297,120361
31.12232,122028
31.13165,119168
31.14098,121751
31.15033,120931
31.15967,123479
31.16902,120738
31.17835,123451
31.18768,122256
31.19703,123305
31.20637,121696
31.21570,117452
31.22505,119506
31.23438,119311
31.24372,120574
31.25307,122637
31.26240,119392
31.27173,119372
31.28108,120125
31.29042,121646
31.29975,120989
31.30910,122240
31.31843,122709
31.32777,121120
31.33712,119894
31.34645,120846
31.35580,119520
31.36513,122455
