D:\数据\20220210\LCLN-ZS1E #000361.D Thu Feb 10 20:00:55 2022
Start of data points
0.09753,20926
0.10688,21108
0.11622,21052
0.12555,21169
0.13490,21498
0.14423,22070
0.15358,21091
0.16292,21885
0.17225,20642
0.18160,19911
0.19093,19375
0.20027,19408
0.20962,20267
0.21895,19152
0.22828,19525
0.23763,19550
0.24697,19920
0.25630,18554
0.26565,19235
0.27498,18520
0.28432,18252
0.29367,19059
0.30300,19107
0.31233,18964
0.32168,18430
0.33102,19692
0.34037,19189
0.34970,18961
0.35903,19093
0.36838,19206
0.37772,19102
0.38705,18836
0.39640,18579
0.40573,17710
0.41507,15781
0.42442,13439
0.43375,11289
0.44308,7032
0.45243,5140
0.46177,5016
0.47110,4529
0.48045,4508
0.48978,4405
0.49912,4337
0.50847,4307
0.51780,4556
0.52715,4073
0.53648,4304
0.54582,3800
0.55517,4428
0.56450,4373
0.57383,4415
0.58318,3560
0.59252,4299
0.60185,4154
0.61120,3892
0.62053,4558
0.62987,3469
0.63922,3815
0.64855,3949
0.65788,3621
0.66723,4012
0.67657,3470
0.68592,3307
0.69525,3552
0.70458,3601
0.71393,3411
0.72327,4177
0.73260,3925
0.74195,4400
0.75128,4352
0.76062,3643
0.76997,4051
0.77930,4017
0.78863,3710
0.79798,3680
0.80732,4236
0.81665,3686
0.82600,3797
0.83533,3631
0.84467,4158
0.85402,4153
0.86335,3254
0.87270,3478
0.88203,3948
0.89137,3635
0.90072,3451
0.91005,4028
0.91938,4062
0.92873,3884
0.93807,3693
0.94740,3732
0.95675,3587
0.96608,4279
0.97542,3585
0.98477,3464
0.99410,3583
1.00343,3661
1.01278,3799
1.02212,3596
1.03145,3147
1.04080,3966
1.05013,3554
1.05948,3672
1.06882,3673
1.07815,3513
1.08750,3594
1.09683,2953
1.10617,3503
1.11552,4000
1.12485,3781
1.13418,3273
1.14353,3827
1.15287,3564
1.16220,3631
1.17155,3757
1.18088,3759
1.19022,3739
1.19957,3359
1.20890,3263
1.21823,3355
1.22758,3568
1.23692,3562
1.24627,3960
1.25560,4240
1.26493,3114
1.27428,3170
1.28362,3505
1.29295,3581
1.30230,3483
1.31163,3108
1.32097,3289
1.33032,4143
1.33965,3712
1.34898,3598
1.35833,3874
1.36767,3439
1.37700,3769
1.38635,3727
1.39568,3419
1.40503,3407
1.41437,3581
1.42370,3451
1.43305,3448
1.44238,3773
1.45172,3581
1.46107,3404
1.47040,3640
1.47973,3734
1.48908,2980
1.49842,3924
1.50775,3013
1.51710,3505
1.52643,3702
1.53577,3767
1.54512,3309
1.55445,3460
1.56378,3454
1.57313,3721
1.58247,5200
1.59182,10302
1.60115,15405
1.61048,18583
1.61983,23298
1.62917,32617
1.63850,42090
1.64785,46722
1.65718,41683
1.66652,36374
1.67587,31011
1.68520,26071
1.69453,20544
1.70388,14279
1.71322,14732
1.72255,16635
1.73190,18434
1.74123,19629
1.75057,20813
1.75992,20874
1.76925,22367
1.77860,23897
1.78793,22279
1.79727,23277
1.80662,23734
1.81595,23020
1.82528,23845
1.83463,22136
1.84397,22548
1.85330,22287
1.86265,22554
1.87198,24692
1.88132,28264
1.89067,35052
1.90000,44359
1.90933,58446
1.91868,73989
1.92802,108622
1.93735,150550
1.94670,187503
1.95603,206206
1.96538,194069
1.97472,166053
1.98405,130965
1.99340,102539
2.00273,85445
2.01207,77564
2.02142,76211
2.03075,85527
2.04008,91809
2.04943,85398
2.05877,68086
2.06810,57593
2.07745,62412
2.08678,117753
2.09612,178788
2.10547,144574
2.11480,92578
2.12413,101128
2.13348,144877
2.14282,166434
2.15217,139975
2.16150,105361
2.17083,80979
2.18018,91584
2.18952,185415
2.19885,243245
2.20820,172957
2.21753,102173
2.22687,95134
2.23622,137633
2.24555,163872
2.25488,306393
2.26423,907378
2.27357,1255408
2.28290,1006253
2.29225,625470
2.30158,369527
2.31093,302928
2.32027,377390
2.32960,323293
2.33895,187475
2.34828,106814
2.35762,70490
2.36697,58473
2.37630,62003
2.38563,68926
2.39498,68752
2.40432,67920
2.41365,67005
2.42300,62342
2.43233,55286
2.44167,45852
2.45102,41293
2.46035,39889
2.46968,40947
2.47903,43093
2.48837,40368
2.49772,38128
2.50705,35660
2.51638,36169
2.52573,35070
2.53507,35550
2.54440,36320
2.55375,60910
2.56308,1286546
2.57242,2246724
2.58177,1986378
2.59110,1314688
2.60043,789198
2.60978,493109
2.61912,338857
2.62845,253392
2.63780,177891
2.64713,139866
2.65647,115648
2.66582,96277
2.67515,76093
2.68450,68536
2.69383,63261
2.70317,60870
2.71252,74604
2.72185,106909
2.73118,134695
2.74053,142142
2.74987,153615
2.75920,182964
2.76855,232752
2.77788,333247
2.78722,450927
2.79657,488992
2.80590,477657
2.81523,475272
2.82458,500316
2.83392,279394
2.84325,161729
2.85260,171941
2.86193,219871
2.87128,241787
2.88062,193612
2.88995,137143
2.89930,108895
2.90863,97942
2.91797,87297
2.92732,76832
2.93665,68837
2.94598,62373
2.95533,58086
2.96467,53558
2.97400,54869
2.98335,52880
2.99268,52327
3.00202,53841
3.01137,54013
3.02070,54979
3.03005,61984
3.03938,92331
3.04872,101445
3.05807,96616
3.06740,97956
3.07673,94236
3.08608,80425
3.09542,63896
3.10475,52961
3.11410,46778
3.12343,42980
3.13277,44422
3.14212,46351
3.15145,51605
3.16078,64063
3.17013,70327
3.17947,62150
3.18880,54594
3.19815,49391
3.20748,50065
3.21683,51437
3.22617,48933
3.23550,44661
3.24485,40691
3.25418,40561
3.26352,41325
3.27287,39108
3.28220,36883
3.29153,37375
3.30088,37194
3.31022,37569
3.31955,38149
3.32890,39011
3.33823,35757
3.34757,35724
3.35692,35292
3.36625,36150
3.37558,36425
3.38493,34786
3.39427,34571
3.40362,35943
3.41295,37997
3.42228,41763
3.43163,41349
3.44097,42343
3.45030,41441
3.45965,40569
3.46898,38815
3.47832,38072
3.48767,40623
3.49700,41307
3.50633,38470
3.51568,37470
3.52502,33839
3.53435,35246
3.54370,40759
3.55303,77220
3.56237,179197
3.57172,287405
3.58105,269537
3.59040,173100
3.59973,105228
3.60907,104976
3.61842,93249
3.62775,76055
3.63708,62863
3.64643,54799
3.65577,48142
3.66510,43731
3.67445,42112
3.68378,42554
3.69312,39283
3.70247,38371
3.71180,37736
3.72113,45067
3.73048,46866
3.73982,43759
3.74915,40116
3.75850,37752
3.76783,34525
3.77718,33256
3.78652,32966
3.79585,32098
3.80520,36295
3.81453,40920
3.82387,46002
3.83322,44791
3.84255,42790
3.85188,43479
3.86123,42153
3.87057,40664
3.87990,39886
3.88925,42619
3.89858,46320
3.90792,49789
3.91727,48912
3.92660,49351
3.93595,53290
3.94528,61391
3.95462,69148
3.96397,77216
3.97330,75957
3.98263,80492
3.99198,83919
4.00132,87019
4.01065,95847
4.02000,102982
4.02933,111819
4.03867,129494
4.04802,145264
4.05735,151305
4.06668,102744
4.07603,81504
4.08537,78984
4.09470,79204
4.10405,71179
4.11338,59668
4.12273,49770
4.13207,44353
4.14140,42217
4.15075,41190
4.16008,41700
4.16942,39899
4.17877,37325
4.18810,37280
4.19743,37573
4.20678,39301
4.21612,39033
4.22545,38550
4.23480,35514
4.24413,35851
4.25347,35167
4.26282,38089
4.27215,41715
4.28148,55615
4.29083,62924
4.30017,59875
4.30952,51436
4.31885,52442
4.32818,50979
4.33753,49454
4.34687,47202
4.35620,42940
4.36555,40659
4.37488,40883
4.38422,43816
4.39357,48413
4.40290,40150
4.41223,38377
4.42158,36682
4.43092,35867
4.44025,34996
4.44960,33680
4.45893,37079
4.46827,47287
4.47762,67242
4.48695,81777
4.49630,68883
4.50563,52139
4.51497,39119
4.52432,35567
4.53365,34857
4.54298,33844
4.55233,34322
4.56167,35555
4.57100,34245
4.58035,34034
4.58968,31923
4.59902,32818
4.60837,33799
4.61770,33769
4.62703,31513
4.63638,34270
4.64572,34698
4.65507,38211
4.66440,38739
4.67373,38287
4.68308,35809
4.69242,35089
4.70175,35293
4.71110,34257
4.72043,39177
4.72977,47613
4.73912,48058
4.74845,40514
4.75778,38804
4.76713,36617
4.77647,36854
4.78580,36085
4.79515,37088
4.80448,37184
4.81382,34866
4.82317,37011
4.83250,41486
4.84185,38179
4.85118,37473
4.86052,35606
4.86987,38330
4.87920,39774
4.88853,38652
4.89788,37597
4.90722,33864
4.91655,33257
4.92590,32278
4.93523,33994
4.94457,36041
4.95392,33699
4.96325,32136
4.97258,30830
4.98193,31236
4.99127,32118
5.00060,35137
5.00995,38645
5.01928,42161
5.02863,43024
5.03797,40957
5.04730,37550
5.05665,35233
5.06598,34586
5.07532,35447
5.08467,37529
5.09400,35642
5.10333,36009
5.11268,33849
5.12202,33341
5.13135,32448
5.14070,33434
5.15003,32421
5.15937,31673
5.16872,32971
5.17805,37337
5.18738,48194
5.19673,49547
5.20607,43985
5.21542,37847
5.22475,36408
5.23408,37203
5.24343,37411
5.25277,38155
5.26210,40537
5.27145,55338
5.28078,108815
5.29012,184596
5.29947,186425
5.30880,130886
5.31813,70593
5.32748,45948
5.33682,39398
5.34615,39969
5.35550,36694
5.36483,36086
5.37417,35455
5.38352,38467
5.39285,39023
5.40220,39966
5.41153,38077
5.42087,35986
5.43022,33933
5.43955,30650
5.44888,31970
5.45823,32491
5.46757,31188
5.47690,33129
5.48625,33376
5.49558,35334
5.50492,34016
5.51427,36017
5.52360,37258
5.53293,40099
5.54228,40606
5.55162,40525
5.56095,43266
5.57030,47654
5.57963,54405
5.58898,58569
5.59832,63080
5.60765,64517
5.61700,52980
5.62633,42051
5.63567,38183
5.64502,38339
5.65435,37626
5.66368,36224
5.67303,34666
5.68237,36590
5.69170,39280
5.70105,38640
5.71038,37133
5.71972,36363
5.72907,36042
5.73840,37214
5.74775,38605
5.75708,40056
5.76642,42407
5.77577,40406
5.78510,37033
5.79443,32738
5.80378,32033
5.81312,33087
5.82245,34905
5.83180,35955
5.84113,33534
5.85047,30254
5.85982,24406
5.86915,22990
5.87848,22052
5.88783,23443
5.89717,23507
5.90650,27402
5.91585,42814
5.92518,65916
5.93453,73860
5.94387,69623
5.95320,68748
5.96255,59792
5.97188,44437
5.98122,33127
5.99057,22877
5.99990,20210
6.00923,17130
6.01858,16556
6.02792,15070
6.03725,15332
6.04660,15214
6.05593,15457
6.06527,14916
6.07462,15541
6.08395,13796
6.09328,12031
6.10263,11367
6.11197,11657
6.12132,13575
6.13065,18501
6.13998,21008
6.14933,19260
6.15867,16982
6.16800,15031
6.17735,14808
6.18668,15479
6.19602,15377
6.20537,13776
6.21470,12583
6.22403,13314
6.23338,15706
6.24272,16746
6.25205,15330
6.26140,17078
6.27073,29873
6.28008,37749
6.28942,31538
6.29875,22514
6.30810,17292
6.31743,14388
6.32677,13467
6.33612,13001
6.34545,14282
6.35478,13708
6.36413,13370
6.37347,16113
6.38280,20888
6.39215,35093
6.40148,100735
6.41082,250895
6.42017,356125
6.42950,278010
6.43883,124124
6.44818,44334
6.45752,22475
6.46687,19133
6.47620,17163
6.48553,16562
6.49488,15618
6.50422,15542
6.51355,16282
6.52290,16441
6.53223,17360
6.54157,15621
6.55092,14887
6.56025,14466
6.56958,14367
6.57893,14979
6.58827,15182
6.59760,15674
6.60695,14802
6.61628,15259
6.62562,17144
6.63497,18210
6.64430,18874
6.65365,17215
6.66298,16268
6.67232,15474
6.68167,15599
6.69100,17214
6.70033,19980
6.70968,21399
6.71902,20972
6.72835,16370
6.73770,16133
6.74703,15125
6.75637,13958
6.76572,14709
6.77505,13218
6.78438,15626
6.79373,17466
6.80307,18537
6.81240,19366
6.82175,16778
6.83108,13844
6.84043,14308
6.84977,13944
6.85910,12087
6.86845,12270
6.87778,13051
6.88712,13247
6.89647,15583
6.90580,20268
6.91513,22342
6.92448,21244
6.93382,17366
6.94315,16039
6.95250,15896
6.96183,16166
6.97117,13206
6.98052,14237
6.98985,14033
6.99918,13505
7.00853,14927
7.01787,14584
7.02722,15957
7.03655,13657
7.04588,12725
7.05523,12329
7.06457,13242
7.07390,12074
7.08325,11988
7.09258,12494
7.10192,13770
7.11127,15031
7.12060,17185
7.12993,15913
7.13928,13536
7.14862,13376
7.15795,12494
7.16730,13020
7.17663,11868
7.18597,12437
7.19532,12269
7.20465,12837
7.21400,13752
7.22333,19225
7.23267,38634
7.24202,65411
7.25135,75622
7.26068,51503
7.27003,30176
7.27937,22626
7.28870,19019
7.29805,16800
7.30738,15119
7.31672,13881
7.32607,12045
7.33540,11768
7.34473,11862
7.35408,12191
7.36342,12085
7.37277,12604
7.38210,14613
7.39143,29743
7.40078,74581
7.41012,128380
7.41945,142323
7.42880,104087
7.43813,58094
7.44747,30803
7.45682,33330
7.46615,51258
7.47548,49440
7.48483,35056
7.49417,24203
7.50350,19305
7.51285,14807
7.52218,13150
7.53152,12992
7.54087,13224
7.55020,13533
7.55955,15046
7.56888,17109
7.57822,18622
7.58757,17374
7.59690,16186
7.60623,15999
7.61558,16159
7.62492,16137
7.63425,16072
7.64360,16922
7.65293,16934
7.66227,16276
7.67162,16576
7.68095,17319
7.69028,16955
7.69963,23141
7.70897,28202
7.71830,25997
7.72765,19807
7.73698,16972
7.74633,16636
7.75567,16516
7.76500,15410
7.77435,16366
7.78368,17669
7.79302,17940
7.80237,17943
7.81170,15390
7.82103,14245
7.83038,13343
7.83972,14508
7.84905,16633
7.85840,26932
7.86773,45679
7.87707,58488
7.88642,50074
7.89575,31848
7.90508,31573
7.91443,54246
7.92377,74908
7.93312,75216
7.94245,62930
7.95178,63574
7.96113,57385
7.97047,42778
7.97980,30388
7.98915,24467
7.99848,20480
8.00782,17753
8.01717,16736
8.02650,19333
8.03583,23705
8.04518,29885
8.05452,30398
8.06385,25321
8.07320,20033
8.08253,18264
8.09188,23089
8.10122,26824
8.11055,27952
8.11990,22817
8.12923,18952
8.13857,16364
8.14792,15348
8.15725,15645
8.16658,14456
8.17593,14054
8.18527,14160
8.19460,13630
8.20395,15432
8.21328,18250
8.22262,18327
8.23197,16120
8.24130,16199
8.25063,16938
8.25998,15990
8.26932,16278
8.27867,15637
8.28800,14612
8.29733,14595
8.30668,15418
8.31602,14917
8.32535,14236
8.33470,14206
8.34403,14777
8.35337,14890
8.36272,14436
8.37205,15315
8.38138,14784
8.39073,17139
8.40007,17365
8.40940,18186
8.41875,19256
8.42808,20617
8.43742,20666
8.44677,19926
8.45610,19613
8.46545,18130
8.47478,17245
8.48412,18394
8.49347,17662
8.50280,18385
8.51213,17210
8.52148,15985
8.53082,19922
8.54015,23398
8.54950,26041
8.55883,24523
8.56817,22278
8.57752,21167
8.58685,21276
8.59618,21967
8.60553,22264
8.61487,23582
8.62420,21416
8.63355,19980
8.64288,18310
8.65223,19380
8.66157,19108
8.67090,19629
8.68025,19063
8.68958,17467
8.69892,19898
8.70827,19794
8.71760,20015
8.72693,18120
8.73628,19039
8.74562,19359
8.75495,22155
8.76430,24149
8.77363,22083
8.78297,21956
8.79232,21170
8.80165,26159
8.81098,35202
8.82033,35960
8.82967,29596
8.83902,22601
8.84835,18601
8.85768,18139
8.86703,18509
8.87637,17915
8.88570,19025
8.89505,19801
8.90438,19702
8.91372,20144
8.92307,19681
8.93240,19339
8.94173,19623
8.95108,19112
8.96042,18561
8.96975,18842
8.97910,19105
8.98843,17435
8.99778,18831
9.00712,19384
9.01645,18982
9.02580,18469
9.03513,18010
9.04447,19157
9.05382,18590
9.06315,19333
9.07248,21426
9.08183,21439
9.09117,23540
9.10050,22678
9.10985,20546
9.11918,18892
9.12852,18595
9.13787,21632
9.14720,22369
9.15653,19984
9.16588,18528
9.17522,16752
9.18457,17043
9.19390,17379
9.20323,19223
9.21258,19865
9.22192,25718
9.23125,35417
9.24060,38851
9.24993,34194
9.25927,25388
9.26862,20556
9.27795,19719
9.28728,19343
9.29663,18049
9.30597,17639
9.31530,17833
9.32465,22202
9.33398,30712
9.34332,31281
9.35267,30105
9.36200,43877
9.37135,79124
9.38068,98608
9.39002,88747
9.39937,67944
9.40870,53302
9.41803,42504
9.42738,40859
9.43672,36018
9.44605,27884
9.45540,20788
9.46473,17725
9.47407,18180
9.48342,17765
9.49275,18947
9.50208,19610
9.51143,18643
9.52077,17078
9.53010,18957
9.53945,23986
9.54878,28040
9.55813,32929
9.56747,36313
9.57680,33902
9.58615,26424
9.59548,22190
9.60482,23667
9.61417,23673
9.62350,21185
9.63283,19894
9.64218,21537
9.65152,19438
9.66085,18747
9.67020,19691
9.67953,19214
9.68887,17782
9.69822,17490
9.70755,16633
9.71690,25830
9.72623,112028
9.73557,464065
9.74492,1020201
9.75425,1217434
9.76358,812562
9.77293,389343
9.78227,192829
9.79160,123221
9.80095,94787
9.81028,75152
9.81962,64231
9.82897,64503
9.83830,64506
9.84763,64147
9.85698,58579
9.86632,49171
9.87565,44561
9.88500,49439
9.89433,56167
9.90368,55658
9.91302,55424
9.92235,59540
9.93170,60162
9.94103,48270
9.95037,39034
9.95972,33235
9.96905,32596
9.97838,44141
9.98773,67041
9.99707,79507
10.00640,66422
10.01575,43851
10.02508,30795
10.03442,28857
10.04377,26182
10.05310,28524
10.06243,40068
10.07178,58763
10.08112,67534
10.09047,54052
10.09980,40049
10.10913,43556
10.11848,105832
10.12782,230795
10.13715,290457
10.14650,293183
10.15583,583473
10.16517,1195741
10.17452,1408582
10.18385,768282
10.19318,225367
10.20253,57805
10.21187,32750
10.22120,27989
10.23055,30049
10.23988,37144
10.24922,43983
10.25857,39732
10.26790,27993
10.27725,23878
10.28658,21714
10.29592,23658
10.30527,22253
10.31460,22798
10.32393,24290
10.33328,21764
10.34262,21416
10.35195,21456
10.36130,21806
10.37063,22822
10.37997,20934
10.38932,19710
10.39865,18795
10.40798,19825
10.41733,19687
10.42667,19789
10.43600,20716
10.44535,23610
10.45468,27556
10.46403,31029
10.47337,27658
10.48270,23521
10.49205,19007
10.50138,17430
10.51072,17750
10.52007,18170
10.52940,19190
10.53873,21483
10.54808,20945
10.55742,20235
10.56675,18743
10.57610,18968
10.58543,18938
10.59477,18707
10.60412,18005
10.61345,17746
10.62280,19676
10.63213,21507
10.64147,24464
10.65082,23040
10.66015,22617
10.66948,25855
10.67883,31188
10.68817,30441
10.69750,27495
10.70685,25386
10.71618,27388
10.72552,30843
10.73487,28926
10.74420,31037
10.75353,59073
10.76288,101448
10.77222,107270
10.78155,85413
10.79090,111734
10.80023,226828
10.80958,320458
10.81892,258417
10.82825,126334
10.83760,51386
10.84693,29215
10.85627,26171
10.86562,27948
10.87495,33996
10.88428,38268
10.89363,37804
10.90297,31589
10.91230,28098
10.92165,26109
10.93098,26183
10.94032,26487
10.94967,25374
10.95900,25362
10.96833,24295
10.97768,24951
10.98702,22941
10.99637,19719
11.00570,19369
11.01503,19186
11.02438,19103
11.03372,18623
11.04305,20839
11.05240,18782
11.06173,18713
11.07107,18017
11.08042,17546
11.08975,16828
11.09908,17758
11.10843,19734
11.11777,23358
11.12710,21897
11.13645,20143
11.14578,19465
11.15512,21000
11.16447,19957
11.17380,20654
11.18315,19883
11.19248,17816
11.20182,17466
11.21117,19073
11.22050,21458
11.22983,23800
11.23918,22497
11.24852,20418
11.25785,21988
11.26720,25833
11.27653,25931
11.28587,21751
11.29522,21640
11.30455,22075
11.31388,21758
11.32323,20717
11.33257,23360
11.34190,29040
11.35125,37631
11.36058,41177
11.36993,37151
11.37927,28925
11.38860,25118
11.39795,28922
11.40728,33965
11.41662,32622
11.42597,27995
11.43530,23340
11.44463,19979
11.45398,20822
11.46332,27415
11.47265,35178
11.48200,37748
11.49133,29115
11.50067,20836
11.51002,19243
11.51935,17356
11.52870,18015
11.53803,18107
11.54737,19110
11.55672,23329
11.56605,35541
11.57538,52446
11.58473,63337
11.59407,55455
11.60340,43108
11.61275,37066
11.62208,28496
11.63142,24375
11.64077,24607
11.65010,31118
11.65943,36706
11.66878,36233
11.67812,32205
11.68745,26718
11.69680,24578
11.70613,25070
11.71548,25871
11.72482,25482
11.73415,26033
11.74350,24747
11.75283,23669
11.76217,22706
11.77152,23125
11.78085,28683
11.79018,32686
11.79953,33944
11.80887,27806
11.81820,25984
11.82755,27212
11.83688,27531
11.84622,25130
11.85557,23613
11.86490,23498
11.87423,24387
11.88358,24766
11.89292,22652
11.90227,20736
11.91160,21764
11.92093,21360
11.93028,27336
11.93962,45684
11.94895,60668
11.95830,57518
11.96763,40082
11.97697,28206
11.98632,23533
11.99565,24402
12.00498,31309
12.01433,45350
12.02367,48350
12.03300,39572
12.04235,26595
12.05168,22462
12.06102,20648
12.07037,20556
12.07970,20349
12.08905,22442
12.09838,21667
12.10772,22724
12.11707,21199
12.12640,18584
12.13573,20178
12.14508,20154
12.15442,22241
12.16375,32334
12.17310,60194
12.18243,86273
12.19177,69347
12.20112,40833
12.21045,26131
12.21978,24980
12.22913,28569
12.23847,29464
12.24780,28018
12.25715,26156
12.26648,39097
12.27583,78250
12.28517,114895
12.29450,98691
12.30385,55988
12.31318,33831
12.32252,26296
12.33187,24851
12.34120,26044
12.35053,26194
12.35988,23382
12.36922,22319
12.37855,23278
12.38790,24438
12.39723,22298
12.40657,21699
12.41592,20973
12.42525,23305
12.43460,22379
12.44393,21813
12.45327,22342
12.46262,22997
12.47195,26047
12.48128,27339
12.49063,25837
12.49997,27898
12.50930,28476
12.51865,29093
12.52798,27818
12.53732,25577
12.54667,24380
12.55600,25970
12.56533,31539
12.57468,33817
12.58402,30504
12.59335,24075
12.60270,22346
12.61203,22411
12.62138,21616
12.63072,27508
12.64005,33813
12.64940,37740
12.65873,33615
12.66807,31681
12.67742,30457
12.68675,29549
12.69608,24258
12.70543,24416
12.71477,22221
12.72410,25593
12.73345,24067
12.74278,25411
12.75212,24177
12.76147,24662
12.77080,23425
12.78013,21212
12.78948,20201
12.79882,20707
12.80817,22227
12.81750,20714
12.82683,21002
12.83618,22655
12.84552,22071
12.85485,21303
12.86420,18735
12.87353,20419
12.88287,19677
12.89222,20697
12.90155,20561
12.91088,20997
12.92023,19281
12.92957,19535
12.93890,20182
12.94825,19580
12.95758,21321
12.96692,20343
12.97627,19017
12.98560,16232
12.99495,16040
13.00428,16270
13.01362,17895
13.02297,20674
13.03230,24589
13.04163,25681
13.05098,22717
13.06032,19160
13.06965,20208
13.07900,20678
13.08833,20902
13.09767,21657
13.10702,20501
13.11635,20143
13.12568,20369
13.13503,22999
13.14437,24120
13.15372,24390
13.16305,24722
13.17238,26634
13.18173,29286
13.19107,39426
13.20040,94663
13.20975,210797
13.21908,274588
13.22842,199509
13.23777,101141
13.24710,68980
13.25643,64956
13.26578,47698
13.27512,33432
13.28445,25073
13.29380,22063
13.30313,20220
13.31247,21815
13.32182,25720
13.33115,26086
13.34050,23876
13.34983,23493
13.35917,23281
13.36852,20402
13.37785,19979
13.38718,21602
13.39653,26054
13.40587,28183
13.41520,25263
13.42455,20737
13.43388,23120
13.44322,26641
13.45257,28175
13.46190,26335
13.47123,25593
13.48058,25369
13.48992,25197
13.49925,22869
13.50860,24514
13.51793,37620
13.52728,65408
13.53662,71728
13.54595,50623
13.55530,31580
13.56463,24442
13.57397,20088
13.58332,19334
13.59265,17845
13.60198,18232
13.61133,18969
13.62067,17878
13.63000,22436
13.63935,28637
13.64868,36226
13.65802,37371
13.66737,31958
13.67670,23504
13.68603,20506
13.69538,19121
13.70472,16062
13.71407,16822
13.72340,17169
13.73273,16240
13.74208,16736
13.75142,16832
13.76075,19004
13.77010,17777
13.77943,16525
13.78877,18213
13.79812,19334
13.80745,19834
13.81678,20624
13.82613,18970
13.83547,18845
13.84480,18501
13.85415,19371
13.86348,18737
13.87282,22044
13.88217,26729
13.89150,38892
13.90085,63866
13.91018,100350
13.91952,132903
13.92887,122800
13.93820,70469
13.94753,38318
13.95688,26081
13.96622,23913
13.97555,23621
13.98490,20922
13.99423,23116
14.00357,22512
14.01292,21561
14.02225,19611
14.03158,21138
14.04093,51094
14.05027,324014
14.05960,1540855
14.06895,3836377
14.07828,4867729
14.08763,2945613
14.09697,854044
14.10630,144567
14.11565,42888
14.12498,32952
14.13432,29233
14.14367,28712
14.15300,27334
14.16233,28753
14.17168,28399
14.18102,32345
14.19035,47229
14.19970,61695
14.20903,55086
14.21837,37880
14.22772,25724
14.23705,20900
14.24640,20027
14.25573,19671
14.26507,19653
14.27442,20396
14.28375,21488
14.29308,20220
14.30243,19764
14.31177,20289
14.32110,25168
14.33045,28216
14.33978,28165
14.34912,24419
14.35847,22191
14.36780,18987
14.37713,17543
14.38648,19059
14.39582,17787
14.40515,17156
14.41450,16706
14.42383,16520
14.43318,16079
14.44252,17080
14.45185,17308
14.46120,20866
14.47053,22180
14.47987,22705
14.48922,18681
14.49855,19204
14.50788,18293
14.51723,15980
14.52657,16022
14.53590,17031
14.54525,17010
14.55458,16562
14.56392,18540
14.57327,18373
14.58260,17478
14.59193,17788
14.60128,17247
14.61062,17453
14.61997,17461
14.62930,18567
14.63863,26994
14.64798,40940
14.65732,50121
14.66665,49879
14.67600,39330
14.68533,30508
14.69467,25659
14.70402,22565
14.71335,21355
14.72268,20171
14.73203,22338
14.74137,21789
14.75070,20655
14.76005,19790
14.76938,18864
14.77872,19613
14.78807,20638
14.79740,20742
14.80675,20157
14.81608,20890
14.82542,21055
14.83477,21690
14.84410,18039
14.85343,19296
14.86278,21854
14.87212,27123
14.88145,28743
14.89080,26541
14.90013,21072
14.90947,19643
14.91882,18634
14.92815,18468
14.93748,18251
14.94683,17465
14.95617,17188
14.96552,17746
14.97485,18726
14.98418,19868
14.99353,19488
15.00287,20872
15.01220,24529
15.02155,23773
15.03088,20226
15.04022,19887
15.04957,21099
15.05890,20857
15.06823,19990
15.07758,20002
15.08692,19429
15.09625,16815
15.10560,18978
15.11493,18834
15.12427,22091
15.13362,24884
15.14295,23598
15.15230,20942
15.16163,19466
15.17097,18418
15.18032,18906
15.18965,20932
15.19898,25786
15.20833,36365
15.21767,46094
15.22700,41567
15.23635,31267
15.24568,25638
15.25502,21806
15.26437,19779
15.27370,20071
15.28303,20280
15.29238,20847
15.30172,19789
15.31105,19819
15.32040,21997
15.32973,23888
15.33908,26585
15.34842,24200
15.35775,22599
15.36710,24938
15.37643,27386
15.38577,26283
15.39512,22664
15.40445,19430
15.41378,20490
15.42313,22312
15.43247,22893
15.44180,21834
15.45115,20055
15.46048,18173
15.46982,17851
15.47917,18692
15.48850,20796
15.49783,22423
15.50718,26729
15.51652,35318
15.52587,41510
15.53520,35138
15.54453,25464
15.55388,20301
15.56322,19322
15.57255,20501
15.58190,19573
15.59123,20397
15.60057,18733
15.60992,19442
15.61925,19263
15.62858,19922
15.63793,21057
15.64727,21804
15.65660,22133
15.66595,24252
15.67528,23506
15.68462,23973
15.69397,27819
15.70330,35942
15.71265,39577
15.72198,33079
15.73132,25968
15.74067,23864
15.75000,24028
15.75933,26469
15.76868,28272
15.77802,26169
15.78735,22738
15.79670,21605
15.80603,25142
15.81537,40741
15.82472,75963
15.83405,135299
15.84338,192245
15.85273,174930
15.86207,103903
15.87142,52309
15.88075,38405
15.89008,36371
15.89943,41219
15.90877,40755
15.91810,32464
15.92745,28458
15.93678,23979
15.94612,22350
15.95547,22584
15.96480,25083
15.97413,31113
15.98348,35723
15.99282,39162
16.00215,38956
16.01150,32515
16.02083,25697
16.03017,22197
16.03952,21850
16.04885,23156
16.05820,25013
16.06753,24980
16.07687,24282
16.08622,23486
16.09555,23141
16.10488,26313
16.11423,29535
16.12357,33920
16.13290,32475
16.14225,27571
16.15158,27325
16.16092,24869
16.17027,23559
16.17960,22931
16.18893,22656
16.19828,24000
16.20762,26751
16.21695,28352
16.22630,28865
16.23563,32017
16.24498,30522
16.25432,30129
16.26365,30503
16.27300,37709
16.28233,63450
16.29167,131171
16.30102,194523
16.31035,174155
16.31968,98858
16.32903,44785
16.33837,28711
16.34770,24209
16.35705,21139
16.36638,19103
16.37572,20415
16.38507,18840
16.39440,18645
16.40373,21067
16.41308,21190
16.42242,22478
16.43177,21975
16.44110,21016
16.45043,24814
16.45978,28586
16.46912,28063
16.47845,25632
16.48780,28496
16.49713,28152
16.50647,25449
16.51582,24905
16.52515,25267
16.53448,25237
16.54383,23402
16.55317,22241
16.56250,21429
16.57185,20137
16.58118,23420
16.59053,23782
16.59987,21937
16.60920,22752
16.61855,22759
16.62788,27672
16.63722,30154
16.64657,30141
16.65590,28612
16.66523,25964
16.67458,25893
16.68392,26136
16.69325,31578
16.70260,34096
16.71193,32164
16.72127,27559
16.73062,28148
16.73995,41497
16.74928,70200
16.75863,82026
16.76797,58219
16.77732,32558
16.78665,25082
16.79598,23108
16.80533,21290
16.81467,21671
16.82400,24746
16.83335,28730
16.84268,30722
16.85202,26418
16.86137,24721
16.87070,21742
16.88003,21766
16.88938,21824
16.89872,24531
16.90805,28929
16.91740,32898
16.92673,34932
16.93607,30282
16.94542,31151
16.95475,34428
16.96410,35981
16.97343,33965
16.98277,28700
16.99212,25691
17.00145,23258
17.01078,24047
17.02013,31134
17.02947,47248
17.03880,61072
17.04815,52049
17.05748,35849
17.06682,27462
17.07617,25409
17.08550,23148
17.09483,23684
17.10418,24028
17.11352,23162
17.12285,24767
17.13220,28925
17.14153,33994
17.15088,34024
17.16022,32231
17.16955,36513
17.17890,38868
17.18823,33940
17.19757,29105
17.20692,24656
17.21625,22884
17.22558,22511
17.23493,22311
17.24427,22090
17.25360,21687
17.26295,22492
17.27228,25989
17.28162,29347
17.29097,28339
17.30030,26161
17.30963,24681
17.31898,27328
17.32832,28080
17.33767,26898
17.34700,23305
17.35633,22421
17.36568,25284
17.37502,35991
17.38435,61924
17.39370,82253
17.40303,66609
17.41237,43338
17.42172,34329
17.43105,30822
17.44038,26653
17.44973,26506
17.45907,25039
17.46840,25809
17.47775,25938
17.48708,51186
17.49643,233044
17.50577,851030
17.51510,1596135
17.52445,1474887
17.53378,653951
17.54312,170950
17.55247,49110
17.56180,33795
17.57113,32310
17.58048,35849
17.58982,35921
17.59915,31069
17.60850,27709
17.61783,24844
17.62717,25241
17.63652,25417
17.64585,26885
17.65518,26353
17.66453,29742
17.67387,32359
17.68322,35307
17.69255,40075
17.70188,40966
17.71123,34767
17.72057,31369
17.72990,27189
17.73925,25860
17.74858,27353
17.75792,29100
17.76727,30831
17.77660,33499
17.78593,32245
17.79528,32471
17.80462,30533
17.81395,27297
17.82330,26718
17.83263,24608
17.84197,24095
17.85132,25086
17.86065,32866
17.87000,36953
17.87933,35422
17.88867,30471
17.89802,25278
17.90735,23246
17.91668,22333
17.92603,22512
17.93537,23850
17.94470,23761
17.95405,24558
17.96338,25538
17.97272,26539
17.98207,25505
17.99140,23527
18.00073,23045
18.01008,23237
18.01942,22486
18.02875,23219
18.03810,24232
18.04743,26223
18.05678,29948
18.06612,27781
18.07545,26729
18.08480,24442
18.09413,23677
18.10347,23985
18.11282,24345
18.12215,23369
18.13148,24101
18.14083,23698
18.15017,24712
18.15950,24273
18.16885,24848
18.17818,23932
18.18752,21891
18.19687,21798
18.20620,20796
18.21555,21407
18.22488,22312
18.23422,24041
18.24357,22085
18.25290,22521
18.26223,22520
18.27158,22941
18.28092,27296
18.29025,27802
18.29960,28704
18.30893,28330
18.31827,29322
18.32762,28028
18.33695,31847
18.34628,35058
18.35563,36847
18.36497,34604
18.37430,31069
18.38365,30244
18.39298,30023
18.40233,30991
18.41167,30274
18.42100,29179
18.43035,28166
18.43968,27897
18.44902,30772
18.45837,29294
18.46770,24811
18.47703,23860
18.48638,25127
18.49572,30661
18.50505,40892
18.51440,44381
18.52373,44222
18.53307,39949
18.54242,32507
18.55175,28615
18.56108,27938
18.57043,26277
18.57977,24491
18.58912,23299
18.59845,22838
18.60778,24911
18.61713,26916
18.62647,29189
18.63580,29126
18.64515,29618
18.65448,29000
18.66382,27185
18.67317,27950
18.68250,27258
18.69183,26125
18.70118,26124
18.71052,25926
18.71985,27795
18.72920,29088
18.73853,26900
18.74787,26247
18.75722,24871
18.76655,21626
18.77590,21686
18.78523,20913
18.79457,23692
18.80392,24408
18.81325,24950
18.82258,28357
18.83193,26585
18.84127,24119
18.85060,23726
18.85995,22226
18.86928,21141
18.87862,22046
18.88797,20152
18.89730,20397
18.90663,23822
18.91598,26767
18.92532,26339
18.93465,28905
18.94400,33527
18.95333,33203
18.96268,34240
18.97202,33026
18.98135,31415
18.99070,28786
19.00003,26065
19.00937,25554
19.01872,23641
19.02805,24043
19.03738,25631
19.04673,34883
19.05607,49047
19.06540,59832
19.07475,79213
19.08408,109080
19.09342,107433
19.10277,75561
19.11210,43703
19.12143,27071
19.13078,25000
19.14012,22326
19.14947,21470
19.15880,20802
19.16813,21502
19.17748,22120
19.18682,23434
19.19615,26334
19.20550,28251
19.21483,27031
19.22417,25685
19.23352,26013
19.24285,24793
19.25218,22935
19.26153,23379
19.27087,23473
19.28020,26438
19.28955,27337
19.29888,31528
19.30823,40018
19.31757,46736
19.32690,46082
19.33625,36247
19.34558,29537
19.35492,23569
19.36427,21820
19.37360,22924
19.38293,22491
19.39228,22476
19.40162,22338
19.41095,23225
19.42030,25222
19.42963,23636
19.43897,22117
19.44832,22119
19.45765,22086
19.46698,22409
19.47633,24044
19.48567,27012
19.49502,29036
19.50435,26626
19.51368,24134
19.52303,23109
19.53237,23589
19.54170,23991
19.55105,21958
19.56038,22500
19.56972,22899
19.57907,24626
19.58840,25376
19.59773,23647
19.60708,22910
19.61642,22663
19.62575,25391
19.63510,29193
19.64443,31156
19.65377,27824
19.66312,24557
19.67245,23468
19.68180,24340
19.69113,24161
19.70047,22751
19.70982,25628
19.71915,32079
19.72848,41022
19.73783,46071
19.74717,40921
19.75650,31753
19.76585,29252
19.77518,28880
19.78452,28949
19.79387,26682
19.80320,26475
19.81253,24742
19.82188,23893
19.83122,23617
19.84055,23616
19.84990,21738
19.85923,24064
19.86858,30200
19.87792,41213
19.88725,45916
19.89660,37782
19.90593,32916
19.91527,28915
19.92462,29742
19.93395,26475
19.94328,31431
19.95263,41501
19.96197,58123
19.97130,61198
19.98065,49977
19.98998,35622
19.99932,29217
20.00867,27946
20.01800,28927
20.02735,28709
20.03668,29950
20.04602,28991
20.05537,30537
20.06470,31281
20.07403,30544
20.08338,29854
20.09272,29545
20.10205,26958
20.11140,26043
20.12073,24995
20.13007,25093
20.13942,25308
20.14875,27906
20.15808,33622
20.16743,34063
20.17677,30430
20.18610,26794
20.19545,24128
20.20478,24532
20.21413,24609
20.22347,25332
20.23280,23195
20.24215,22527
20.25148,22455
20.26082,20793
20.27017,22776
20.27950,23740
20.28883,24658
20.29818,26652
20.30752,26093
20.31685,22216
20.32620,22548
20.33553,22225
20.34487,21371
20.35422,22478
20.36355,23819
20.37288,23663
20.38223,23682
20.39157,23108
20.40092,21862
20.41025,21204
20.41958,19861
20.42893,22833
20.43827,21816
20.44760,23122
20.45695,22720
20.46628,25507
20.47562,26452
20.48497,27000
20.49430,23887
20.50363,21490
20.51298,21808
20.52232,21800
20.53165,21445
20.54100,22713
20.55033,24151
20.55967,32685
20.56902,60536
20.57835,113470
20.58770,128833
20.59703,80324
20.60637,42109
20.61572,28536
20.62505,26419
20.63438,30670
20.64373,36145
20.65307,36252
20.66240,35099
20.67175,31725
20.68108,28698
20.69042,27503
20.69977,26779
20.70910,25771
20.71843,25667
20.72778,25997
20.73712,25413
20.74645,23570
20.75580,25627
20.76513,23343
20.77448,23084
20.78382,24758
20.79315,25275
20.80250,27284
20.81183,28152
20.82117,27226
20.83052,25408
20.83985,24422
20.84918,24228
20.85853,22355
20.86787,21934
20.87720,21708
20.88655,23577
20.89588,26148
20.90522,26175
20.91457,25537
20.92390,24313
20.93325,23255
20.94258,21606
20.95192,20848
20.96127,22670
20.97060,22445
20.97993,21888
20.98928,21402
20.99862,21853
21.00795,21660
21.01730,21986
21.02663,22102
21.03597,21755
21.04532,22316
21.05465,22110
21.06398,22598
21.07333,22480
21.08267,21800
21.09200,21945
21.10135,22436
21.11068,22764
21.12003,23260
21.12937,22712
21.13870,24789
21.14805,24687
21.15738,25475
21.16672,24334
21.17607,28448
21.18540,33043
21.19473,34253
21.20408,31530
21.21342,27336
21.22275,24728
21.23210,23708
21.24143,23483
21.25077,21496
21.26012,22260
21.26945,30023
21.27878,38995
21.28813,47925
21.29747,46455
21.30682,35330
21.31615,27148
21.32548,22733
21.33483,23342
21.34417,22365
21.35350,22516
21.36285,21875
21.37218,21970
21.38152,22454
21.39087,24160
21.40020,24097
21.40953,24373
21.41888,25359
21.42822,23371
21.43755,24601
21.44690,23191
21.45623,24481
21.46557,23557
21.47492,23708
21.48425,23472
21.49360,23298
21.50293,24203
21.51227,23513
21.52162,22283
21.53095,22533
21.54028,20156
21.54963,22363
21.55897,26991
21.56830,33147
21.57765,38317
21.58698,32787
21.59632,28162
21.60567,24376
21.61500,24175
21.62433,24701
21.63368,23641
21.64302,21413
21.65237,21172
21.66170,21082
21.67103,22465
21.68038,23253
21.68972,23934
21.69905,24876
21.70840,23113
21.71773,23300
21.72707,23865
21.73642,24342
21.74575,23630
21.75508,21710
21.76443,21633
21.77377,20834
21.78310,22574
21.79245,22065
21.80178,21771
21.81112,23942
21.82047,24465
21.82980,24716
21.83915,25299
21.84848,22422
21.85782,22726
21.86717,23509
21.87650,25132
21.88583,27345
21.89518,27985
21.90452,27168
21.91385,25457
21.92320,22983
21.93253,22896
21.94187,22350
21.95122,21589
21.96055,23317
21.96988,25971
21.97923,30048
21.98857,32410
21.99790,33237
22.00725,30815
22.01658,27849
22.02593,23922
22.03527,22831
22.04460,25705
22.05395,24546
22.06328,25048
22.07262,25703
22.08197,26636
22.09130,26524
22.10063,26027
22.10998,24589
22.11932,24055
22.12865,23455
22.13800,23273
22.14733,24119
22.15667,26001
22.16602,27516
22.17535,30406
22.18468,29007
22.19403,27072
22.20337,25160
22.21272,24850
22.22205,27275
22.23138,25283
22.24073,25032
22.25007,24834
22.25940,24258
22.26875,23703
22.27808,24883
22.28742,27427
22.29677,29127
22.30610,26848
22.31543,25090
22.32478,23201
22.33412,23219
22.34345,22785
22.35280,24979
22.36213,24561
22.37147,23840
22.38082,23021
22.39015,23391
22.39950,22756
22.40883,22837
22.41817,22453
22.42752,23853
22.43685,24378
22.44618,24305
22.45553,24372
22.46487,23177
22.47420,23223
22.48355,22340
22.49288,23047
22.50222,22287
22.51157,22751
22.52090,21637
22.53023,22449
22.53958,22193
22.54892,22331
22.55825,22140
22.56760,23696
22.57693,24645
22.58628,24605
22.59562,25066
22.60495,25402
22.61430,25191
22.62363,24947
22.63297,24107
22.64232,23048
22.65165,22772
22.66098,23363
22.67033,21919
22.67967,23415
22.68900,24252
22.69835,26761
22.70768,24533
22.71702,22810
22.72637,22121
22.73570,25304
22.74505,24657
22.75438,27178
22.76372,28011
22.77307,28452
22.78240,25987
22.79173,25718
22.80108,23350
22.81042,25360
22.81975,24566
22.82910,24003
22.83843,24889
22.84777,25045
22.85712,22505
22.86645,24344
22.87578,22933
22.88513,25021
22.89447,25005
22.90380,24246
22.91315,23064
22.92248,23106
22.93183,23684
22.94117,22872
22.95050,22825
22.95985,23985
22.96918,23497
22.97852,22756
22.98787,21826
22.99720,22877
23.00653,20935
23.01588,21675
23.02522,22212
23.03455,22612
23.04390,22460
23.05323,22422
23.06257,22684
23.07192,22720
23.08125,23614
23.09058,23466
23.09993,21466
23.10927,22576
23.11862,21677
23.12795,22848
23.13728,23443
23.14663,23018
23.15597,19915
23.16530,22015
23.17465,22037
23.18398,22478
23.19332,20703
23.20267,21334
23.21200,21813
23.22133,20837
23.23068,21842
23.24002,22019
23.24935,21364
23.25870,22911
23.26803,23132
23.27738,23391
23.28672,22750
23.29605,23064
23.30540,22339
23.31473,21483
23.32407,23196
23.33342,26855
23.34275,28281
23.35208,26183
23.36143,23827
23.37077,22407
23.38010,22386
23.38945,23533
23.39878,23279
23.40812,22219
23.41747,21595
23.42680,22801
23.43613,22015
23.44548,21661
23.45482,22367
23.46417,22788
23.47350,23062
23.48283,24277
23.49218,22449
23.50152,20912
23.51085,21132
23.52020,22194
23.52953,24631
23.53887,24500
23.54822,24120
23.55755,22969
23.56688,21839
23.57623,21839
23.58557,23890
23.59490,23133
23.60425,22412
23.61358,22784
23.62292,22000
23.63227,21954
23.64160,22038
23.65095,21988
23.66028,22449
23.66962,22408
23.67897,22363
23.68830,23450
23.69763,23894
23.70698,24639
23.71632,24352
23.72565,24611
23.73500,24731
23.74433,23678
23.75367,23614
23.76302,23617
23.77235,22880
23.78168,22580
23.79103,23284
23.80037,22698
23.80970,22360
23.81905,23341
23.82838,23199
23.83773,21542
23.84707,21515
23.85640,21774
23.86575,21545
23.87508,22181
23.88442,22575
23.89377,22107
23.90310,21293
23.91243,21334
23.92178,20275
23.93112,21285
23.94045,22381
23.94980,20417
23.95913,20539
23.96847,20960
23.97782,20666
23.98715,20920
23.99648,20990
24.00583,20784
24.01517,21464
24.02452,20856
24.03385,21618
24.04318,20512
24.05253,20010
24.06187,19951
24.07120,20712
24.08055,22828
24.08988,20006
24.09922,21088
24.10857,20553
24.11790,19544
24.12723,21328
24.13658,21216
24.14592,21859
24.15525,21827
24.16460,22680
24.17393,22548
24.18327,21851
24.19262,22186
24.20195,22385
24.21130,21777
24.22063,21358
24.22997,23765
24.23932,23481
24.24865,22862
24.25798,23495
24.26733,20773
24.27667,21534
24.28600,21211
24.29535,21706
24.30468,21721
24.31402,22339
24.32337,22523
24.33270,23784
24.34203,23617
24.35138,21419
24.36072,21704
24.37007,22041
24.37940,22158
24.38873,23397
24.39808,21700
24.40742,23398
24.41675,22308
24.42610,23014
24.43543,22359
24.44477,21303
24.45412,22271
24.46345,21490
24.47278,21492
24.48213,21618
24.49147,21025
24.50080,23341
24.51015,23248
24.51948,22373
24.52882,22589
24.53817,21856
24.54750,22397
24.55685,21669
24.56618,22347
24.57552,21048
24.58487,22302
24.59420,21923
24.60353,20671
24.61288,22220
24.62222,23463
24.63155,22414
24.64090,22430
24.65023,21669
24.65957,23151
24.66892,23261
24.67825,22957
24.68758,24448
24.69693,22222
24.70627,22588
24.71560,23011
24.72495,23850
24.73428,21874
24.74363,22464
24.75297,22645
24.76230,22122
24.77165,23274
24.78098,21768
24.79032,21964
24.79967,23798
24.80900,22523
24.81833,23619
24.82768,22016
24.83702,23534
24.84635,22787
24.85570,22792
24.86503,23413
24.87437,23250
24.88372,23248
24.89305,24467
24.90238,22060
24.91173,23028
24.92107,24368
24.93042,22515
24.93975,22512
24.94908,22631
24.95843,24055
24.96777,22291
24.97710,22906
24.98645,22376
24.99578,23805
25.00512,21299
25.01447,21854
25.02380,22175
25.03313,22148
25.04248,21678
25.05182,22816
25.06115,22126
25.07050,23052
25.07983,22472
25.08918,22185
25.09852,22338
25.10785,22816
25.11720,22605
25.12653,23161
25.13587,23701
25.14522,24297
25.15455,24098
25.16388,21939
25.17323,23966
25.18257,23130
25.19190,23022
25.20125,22744
25.21058,22661
25.21992,22823
25.22927,22348
25.23860,22526
25.24793,22308
25.25728,22086
25.26662,23301
25.27597,22986
25.28530,23754
25.29463,24434
25.30398,24049
25.31332,28174
25.32265,41688
25.33200,53161
25.34133,48722
25.35067,36858
25.36002,30165
25.36935,28438
25.37868,27269
25.38803,26521
25.39737,25920
25.40670,25733
25.41605,24102
25.42538,25051
25.43472,25167
25.44407,27133
25.45340,25111
25.46275,25229
25.47208,26103
25.48142,25502
25.49077,27064
25.50010,25728
25.50943,25239
25.51878,25009
25.52812,24709
25.53745,24805
25.54680,24442
25.55613,24810
25.56547,24198
25.57482,23476
25.58415,24294
25.59348,22478
25.60283,23270
25.61217,23664
25.62150,23878
25.63085,23930
25.64018,24087
25.64953,24793
25.65887,25054
25.66820,25090
25.67755,23846
25.68688,23650
25.69622,24887
25.70557,23265
25.71490,24843
25.72423,22899
25.73358,23897
25.74292,24475
25.75225,23357
25.76160,23699
25.77093,25083
25.78027,23997
25.78962,24793
25.79895,26380
25.80828,26891
25.81763,27771
25.82697,27397
25.83632,27400
25.84565,26701
25.85498,25450
25.86433,24594
25.87367,24972
25.88300,24501
25.89235,23887
25.90168,23935
25.91102,24936
25.92037,25686
25.92970,23822
25.93903,24571
25.94838,23919
25.95772,24104
25.96705,24485
25.97640,24572
25.98573,23272
25.99508,25339
26.00442,24899
26.01375,24305
26.02310,23866
26.03243,24927
26.04177,25124
26.05112,24361
26.06045,23590
26.06978,23126
26.07913,23580
26.08847,24957
26.09780,23988
26.10715,25313
26.11648,23940
26.12582,24656
26.13517,26234
26.14450,26032
26.15383,27246
26.16318,27579
26.17252,26793
26.18187,25600
26.19120,25069
26.20053,26409
26.20988,26729
26.21922,26415
26.22855,25755
26.23790,27543
26.24723,26344
26.25657,26203
26.26592,24965
26.27525,24749
26.28458,25034
26.29393,24848
26.30327,25685
26.31260,25318
26.32195,25314
26.33128,24926
26.34062,25036
26.34997,25813
26.35930,24402
26.36865,25640
26.37798,24242
26.38732,23238
26.39667,24432
26.40600,24052
26.41533,23753
26.42468,23909
26.43402,25599
26.44335,26307
26.45270,27119
26.46203,26055
26.47137,25818
26.48072,25803
26.49005,25859
26.49938,25231
26.50873,25366
26.51807,25455
26.52740,25533
26.53675,25254
26.54608,25707
26.55543,25175
26.56477,24352
26.57410,25695
26.58345,25569
26.59278,25459
26.60212,24171
26.61147,25934
26.62080,26216
26.63013,26460
26.63948,24986
26.64882,25843
26.65815,25864
26.66750,25362
26.67683,26193
26.68617,25656
26.69552,27479
26.70485,26053
26.71420,27430
26.72353,26614
26.73287,26789
26.74222,26708
26.75155,26555
26.76088,26982
26.77023,28007
26.77957,25926
26.78890,27983
26.79825,26062
26.80758,25790
26.81692,27564
26.82627,27259
26.83560,27273
26.84493,29208
26.85428,29764
26.86362,28561
26.87295,27438
26.88230,26353
26.89163,26018
26.90098,26851
26.91032,24902
26.91965,27218
26.92900,25959
26.93833,25448
26.94767,25900
26.95702,26294
26.96635,27160
26.97568,26201
26.98503,27177
26.99437,28575
27.00370,27521
27.01305,26698
27.02238,27274
27.03172,25642
27.04107,26608
27.05040,26874
27.05973,26223
27.06908,26898
27.07842,27932
27.08777,25994
27.09710,25559
27.10643,26152
27.11578,26897
27.12512,28247
27.13445,26184
27.14380,27454
27.15313,28450
27.16247,27879
27.17182,27386
27.18115,27197
27.19048,27876
27.19983,27428
27.20917,27488
27.21850,28332
27.22785,28201
27.23718,27926
27.24652,29269
27.25587,29132
27.26520,29848
27.27455,29045
27.28388,28323
27.29322,27668
27.30257,27656
27.31190,27541
27.32123,26663
27.33058,27984
27.33992,27946
27.34925,27917
27.35860,28360
27.36793,28077
27.37727,28461
27.38662,29738
27.39595,30071
27.40528,29548
27.41463,31177
27.42397,29314
27.43330,30514
27.44265,29287
27.45198,31047
27.46133,30096
27.47067,30805
27.48000,29923
27.48935,31270
27.49868,30085
27.50802,29817
27.51737,30519
27.52670,28930
27.53603,30877
27.54538,29953
27.55472,29086
27.56405,29527
27.57340,29809
27.58273,28003
27.59207,29495
27.60142,27521
27.61075,29380
27.62008,29397
27.62943,28785
27.63877,30067
27.64812,28366
27.65745,30345
27.66678,36670
27.67613,45938
27.68547,51936
27.69480,46536
27.70415,41161
27.71348,37233
27.72282,35377
27.73217,32848
27.74150,31886
27.75083,31662
27.76018,34161
27.76952,32206
27.77885,32064
27.78820,32893
27.79753,32288
27.80688,31625
27.81622,32384
27.82555,31597
27.83490,32234
27.84423,29305
27.85357,30951
27.86292,31959
27.87225,30431
27.88158,30284
27.89093,31059
27.90027,30962
27.90960,29699
27.91895,29036
27.92828,30579
27.93762,31312
27.94697,31671
27.95630,31613
27.96563,31360
27.97498,30135
27.98432,31232
27.99367,29871
28.00300,30965
28.01233,31286
28.02168,32659
28.03102,30756
28.04035,30990
28.04970,31345
28.05903,32208
28.06837,31791
28.07772,32095
28.08705,31957
28.09638,32813
28.10573,31967
28.11507,32338
28.12440,33594
28.13375,34612
28.14308,32756
28.15242,31948
28.16177,32223
28.17110,33640
28.18045,33028
28.18978,33057
28.19912,32597
28.20847,31854
28.21780,33152
28.22713,32178
28.23648,32441
28.24582,33014
28.25515,32924
28.26450,32968
28.27383,31421
28.28317,34210
28.29252,31174
28.30185,32310
28.31118,33094
28.32053,34167
28.32987,32304
28.33920,32002
28.34855,30975
28.35788,33181
28.36723,32208
28.37657,32196
28.38590,32625
28.39525,34350
28.40458,31621
28.41392,32810
28.42327,33180
28.43260,32687
28.44193,33618
28.45128,32743
28.46062,32666
28.46995,33282
28.47930,33159
28.48863,33418
28.49797,32842
28.50732,33756
28.51665,33160
28.52600,34763
28.53533,32335
28.54467,34548
28.55402,32905
28.56335,34559
28.57268,33795
28.58203,35443
28.59137,35675
28.60070,35006
28.61005,37078
28.61938,35047
28.62872,36019
28.63807,34767
28.64740,34276
28.65673,34443
28.66608,38079
28.67542,41896
28.68475,44943
28.69410,45474
28.70343,40837
28.71278,38358
28.72212,36828
28.73145,35762
28.74080,34117
28.75013,35369
28.75947,35537
28.76882,36467
28.77815,34471
28.78748,34650
28.79683,35270
28.80617,35311
28.81550,34774
28.82485,35217
28.83418,36576
28.84352,35521
28.85287,36500
28.86220,36455
28.87153,37852
28.88088,35444
28.89022,36210
28.89957,36474
28.90890,35300
28.91823,36555
28.92758,36897
28.93692,37268
28.94625,37990
28.95560,35875
28.96493,35710
28.97427,37406
28.98362,37590
28.99295,38544
29.00228,35996
29.01163,38461
29.02097,38189
29.03030,39208
29.03965,39026
29.04898,38385
29.05832,38098
29.06767,39491
29.07700,39175
29.08635,37765
29.09568,37471
29.10502,39095
29.11437,38086
29.12370,40016
29.13303,39027
29.14238,37877
29.15172,39332
29.16105,39282
29.17040,40562
29.17973,39662
29.18907,39625
29.19842,39830
29.20775,40842
29.21708,40829
29.22643,39068
29.23577,39674
29.24510,38263
29.25445,40031
29.26378,40243
29.27313,40592
29.28247,39293
29.29180,39414
29.30115,39533
29.31048,39937
29.31982,41879
29.32917,39159
29.33850,40859
29.34783,40350
29.35718,41653
29.36652,38914
29.37585,40008
29.38520,38793
29.39453,39316
29.40387,40037
29.41322,40118
29.42255,40255
29.43190,39618
29.44123,40077
29.45057,41487
29.45992,42099
29.46925,44205
29.47858,44932
29.48793,45699
29.49727,43369
29.50660,43374
29.51595,39940
29.52528,41058
29.53462,42120
29.54397,39150
29.55330,42500
29.56263,41972
29.57198,41822
29.58132,42699
29.59065,40381
29.60000,42678
29.60933,42560
29.61868,42331
29.62802,42125
29.63735,42646
29.64670,42774
29.65603,41763
29.66537,41685
29.67472,42257
29.68405,44082
29.69338,42882
29.70273,41077
29.71207,40282
29.72140,42170
29.73075,40755
29.74008,41189
29.74942,40284
29.75877,41757
29.76810,42964
29.77743,41802
29.78678,41664
29.79612,42330
29.80547,40813
29.81480,41209
29.82413,42112
29.83348,41155
29.84282,41699
29.85215,40396
29.86150,41797
29.87083,40973
29.88017,41450
29.88952,40945
29.89885,41732
29.90818,42396
29.91753,41400
29.92687,41681
29.93620,41089
29.94555,40308
29.95488,42212
29.96422,42879
29.97357,41765
29.98290,43701
29.99225,41704
30.00158,45146
30.01092,45295
30.02027,45667
30.02960,44475
30.03893,44504
30.04828,44468
30.05762,43808
30.06695,44332
30.07630,43458
30.08563,42637
30.09497,42931
30.10432,43222
30.11365,42921
30.12298,43168
30.13233,44418
30.14167,43623
30.15102,44416
30.16035,44447
30.16968,44634
30.17903,44714
30.18837,43390
30.19770,43174
30.20705,44977
30.21638,43267
30.22572,41535
30.23507,43179
30.24440,43172
30.25373,43640
30.26308,42740
30.27242,43963
30.28175,44557
30.29110,44588
30.30043,44380
30.30977,43994
30.31912,42564
30.32845,44498
30.33780,43432
30.34713,44449
30.35647,46160
30.36582,48370
30.37515,48558
30.38448,47640
30.39383,47708
30.40317,47148
30.41250,46683
30.42185,45278
30.43118,45290
30.44052,44757
30.44987,44076
30.45920,44801
30.46853,42995
30.47788,43725
30.48722,43780
30.49655,44050
30.50590,43728
30.51523,45414
30.52458,43374
30.53392,45348
30.54325,44296
30.55260,44209
30.56193,44143
30.57127,44364
30.58062,44326
30.58995,45352
30.59928,47424
30.60863,48102
30.61797,50258
30.62730,52335
30.63665,51607
30.64598,55317
30.65532,55486
30.66467,54424
30.67400,54493
30.68333,54367
30.69268,53850
30.70202,53604
30.71137,52594
30.72070,52548
30.73003,50336
30.73938,51437
30.74872,50436
30.75805,50212
30.76740,50228
30.77673,53174
30.78607,52023
30.79542,51714
30.80475,53632
30.81408,54435
30.82343,55049
30.83277,54004
30.84210,53328
30.85145,52588
30.86078,53556
30.87012,52927
30.87947,57176
30.88880,52862
30.89815,55196
30.90748,54940
30.91682,55136
30.92617,53310
30.93550,52090
30.94483,51791
30.95418,53988
30.96352,53237
30.97285,53712
30.98220,54228
30.99153,55455
31.00087,54562
31.01022,56057
31.01955,55192
31.02888,57127
31.03823,56687
31.04757,56909
31.05692,57153
31.06625,57083
31.07558,56645
31.08493,57321
31.09427,58147
31.10360,55763
31.11295,56893
31.12228,55237
31.13162,54637
31.14097,55314
31.15030,53270
31.15963,53163
31.16898,51821
31.17832,53306
31.18765,53883
31.19700,51011
31.20633,52612
31.21567,52946
31.22502,52448
31.23435,52936
31.24370,53957
31.25303,52744
31.26237,54927
31.27172,55781
31.28105,54117
31.29038,54628
31.29973,57657
31.30907,56137
31.31840,56092
31.32775,57440
31.33708,55529
31.34642,56883
31.35577,59030
31.36510,55674
