D:\数据\20220223\LCLN-ZS1E #000425.D Wed Feb 23 23:02:22 2022
Start of data points
0.09750,17686
0.10685,17700
0.11618,17596
0.12552,18166
0.13487,17891
0.14420,18281
0.15353,18307
0.16288,17826
0.17222,17689
0.18155,18616
0.19090,17516
0.20023,18022
0.20957,17588
0.21892,16787
0.22825,17219
0.23758,16814
0.24693,15560
0.25627,16752
0.26560,15345
0.27495,16594
0.28428,16224
0.29363,17144
0.30297,15999
0.31230,16178
0.32165,16296
0.33098,15819
0.34032,15447
0.34967,17061
0.35900,16727
0.36833,15860
0.37768,15802
0.38702,15313
0.39635,13174
0.40570,11542
0.41503,11424
0.42437,8919
0.43372,5051
0.44305,3470
0.45240,3201
0.46173,3671
0.47107,3510
0.48042,3187
0.48975,3514
0.49908,2841
0.50843,2753
0.51777,3151
0.52710,2793
0.53645,3375
0.54578,2799
0.55512,2923
0.56447,2791
0.57380,3407
0.58313,2930
0.59248,3336
0.60182,2821
0.61115,2577
0.62050,2932
0.62983,3238
0.63918,3126
0.64852,2826
0.65785,3021
0.66720,3085
0.67653,2973
0.68587,2711
0.69522,2738
0.70455,2675
0.71388,2855
0.72323,2560
0.73257,2694
0.74190,2545
0.75125,3098
0.76058,2964
0.76992,3036
0.77927,2709
0.78860,2799
0.79793,2735
0.80728,2732
0.81662,2833
0.82597,2444
0.83530,2586
0.84463,2941
0.85398,2526
0.86332,2468
0.87265,2737
0.88200,2651
0.89133,2587
0.90067,2403
0.91002,2395
0.91935,2769
0.92868,2948
0.93803,2805
0.94737,2868
0.95670,2798
0.96605,2556
0.97538,3011
0.98472,2995
0.99407,2504
1.00340,2780
1.01275,2657
1.02208,2708
1.03142,2626
1.04077,2947
1.05010,2658
1.05943,2642
1.06878,2426
1.07812,2681
1.08745,2683
1.09680,2497
1.10613,2945
1.11547,2933
1.12482,2887
1.13415,3017
1.14348,2653
1.15283,2634
1.16217,2869
1.17150,2664
1.18085,2590
1.19018,2991
1.19953,2635
1.20887,3066
1.21820,2764
1.22755,2641
1.23688,2863
1.24622,2929
1.25557,2918
1.26490,2581
1.27423,2752
1.28358,2662
1.29292,2568
1.30225,2458
1.31160,2843
1.32093,2588
1.33027,2716
1.33962,2415
1.34895,2541
1.35830,3006
1.36763,2612
1.37697,2616
1.38632,2693
1.39565,3017
1.40498,2435
1.41433,2495
1.42367,2406
1.43300,2590
1.44235,2461
1.45168,2150
1.46102,2182
1.47037,2577
1.47970,2297
1.48903,2385
1.49838,2301
1.50772,2494
1.51705,2583
1.52640,2513
1.53573,2673
1.54508,2184
1.55442,2430
1.56375,2373
1.57310,2440
1.58243,2602
1.59177,4488
1.60112,9810
1.61045,14357
1.61978,18457
1.62913,23857
1.63847,33330
1.64780,41044
1.65715,39375
1.66648,33848
1.67582,29808
1.68517,25353
1.69450,20022
1.70383,15378
1.71318,13310
1.72252,13439
1.73187,15278
1.74120,17017
1.75053,18249
1.75988,18914
1.76922,20727
1.77855,19688
1.78790,20702
1.79723,19992
1.80657,20425
1.81592,20353
1.82525,21163
1.83458,20284
1.84393,19653
1.85327,20042
1.86260,20523
1.87195,23128
1.88128,35775
1.89062,65681
1.89997,109235
1.90930,140500
1.91865,152266
1.92798,164778
1.93732,191619
1.94667,235216
1.95600,273689
1.96533,273606
1.97468,236042
1.98402,183855
1.99335,139333
2.00270,114520
2.01203,99668
2.02137,90187
2.03072,91186
2.04005,86374
2.04938,69095
2.05873,56624
2.06807,53264
2.07742,72812
2.08675,227289
2.09608,490492
2.10543,462808
2.11477,256151
2.12410,151808
2.13345,202194
2.14278,342149
2.15212,358738
2.16147,262312
2.17080,166716
2.18013,108736
2.18948,86083
2.19882,88390
2.20815,77631
2.21750,62104
2.22683,64460
2.23617,105634
2.24552,268434
2.25485,1291073
2.26420,3309156
2.27353,3799321
2.28287,2886108
2.29222,1726083
2.30155,1005465
2.31088,1440704
2.32023,4985284
2.32957,8204295
2.33890,6258521
2.34825,3051370
2.35758,1286796
2.36692,564785
2.37627,293744
2.38560,192189
2.39493,155867
2.40428,127248
2.41362,110535
2.42295,102681
2.43230,91864
2.44163,75924
2.45098,61059
2.46032,54096
2.46965,54988
2.47900,56757
2.48833,54767
2.49767,48449
2.50702,46051
2.51635,41381
2.52568,40537
2.53503,39658
2.54437,41145
2.55370,46476
2.56305,84201
2.57238,158921
2.58172,160866
2.59107,119272
2.60040,88485
2.60973,76696
2.61908,82199
2.62842,89576
2.63777,84892
2.64710,87755
2.65643,89530
2.66578,72250
2.67512,54310
2.68445,43498
2.69380,37821
2.70313,36098
2.71247,38925
2.72182,53863
2.73115,72746
2.74048,94989
2.74983,117127
2.75917,120850
2.76850,107551
2.77785,117494
2.78718,141203
2.79652,133785
2.80587,104696
2.81520,80338
2.82455,72667
2.83388,63399
2.84322,55155
2.85257,56903
2.86190,73356
2.87123,86760
2.88058,75905
2.88992,58727
2.89925,48298
2.90860,45406
2.91793,42385
2.92727,41714
2.93662,38782
2.94595,36115
2.95528,34965
2.96463,33438
2.97397,33573
2.98332,35795
2.99265,49211
3.00198,80845
3.01133,120262
3.02067,116130
3.03000,81844
3.03935,61822
3.04868,50398
3.05802,53183
3.06737,75206
3.07670,93059
3.08603,83273
3.09538,59028
3.10472,43006
3.11405,35551
3.12340,33254
3.13273,31273
3.14207,32482
3.15142,35229
3.16075,37110
3.17010,38726
3.17943,35990
3.18877,33339
3.19812,32502
3.20745,31151
3.21678,30563
3.22613,28531
3.23547,28668
3.24480,28599
3.25415,30853
3.26348,32649
3.27282,33036
3.28217,31178
3.29150,30299
3.30083,30236
3.31018,30853
3.31952,30759
3.32885,29238
3.33820,27784
3.34753,29497
3.35688,28498
3.36622,28379
3.37555,29068
3.38490,27435
3.39423,26280
3.40357,27662
3.41292,28641
3.42225,33640
3.43158,34488
3.44093,35252
3.45027,34050
3.45960,33632
3.46895,30458
3.47828,30028
3.48762,31108
3.49697,31040
3.50630,29888
3.51563,29326
3.52498,28283
3.53432,27958
3.54367,32378
3.55300,59169
3.56233,135228
3.57168,221255
3.58102,217329
3.59035,151638
3.59970,94172
3.60903,71698
3.61837,55988
3.62772,45419
3.63705,38674
3.64638,35277
3.65573,33186
3.66507,33794
3.67440,34192
3.68375,35505
3.69308,34465
3.70243,32065
3.71177,30480
3.72110,35205
3.73045,39101
3.73978,38230
3.74912,33086
3.75847,30455
3.76780,27950
3.77713,26454
3.78648,27291
3.79582,27882
3.80515,28876
3.81450,32104
3.82383,35155
3.83317,34932
3.84252,33294
3.85185,31697
3.86118,32316
3.87053,30098
3.87987,30543
3.88922,30528
3.89855,34439
3.90788,38237
3.91723,40907
3.92657,42898
3.93590,46680
3.94525,50687
3.95458,49427
3.96392,45929
3.97327,40545
3.98260,36638
3.99193,31730
4.00128,31124
4.01062,30226
4.01995,33556
4.02930,53794
4.03863,121493
4.04797,215630
4.05732,222260
4.06665,150119
4.07600,89818
4.08533,69271
4.09467,63703
4.10402,55045
4.11335,45390
4.12268,34981
4.13203,31331
4.14137,29798
4.15070,29177
4.16005,30247
4.16938,30337
4.17872,34161
4.18807,39150
4.19740,39642
4.20673,35890
4.21608,34474
4.22542,32363
4.23475,29544
4.24410,27811
4.25343,28302
4.26278,29546
4.27212,29392
4.28145,29876
4.29080,28886
4.30013,27939
4.30947,27955
4.31882,31643
4.32815,33923
4.33748,34807
4.34683,32072
4.35617,31330
4.36550,28307
4.37485,28061
4.38418,27570
4.39352,27089
4.40287,26609
4.41220,25842
4.42153,25817
4.43088,25257
4.44022,25078
4.44957,26186
4.45890,29870
4.46823,41516
4.47758,67333
4.48692,91229
4.49625,78999
4.50560,53473
4.51493,37010
4.52427,28792
4.53362,26165
4.54295,27278
4.55228,26917
4.56163,26713
4.57097,25903
4.58030,26058
4.58965,26465
4.59898,25519
4.60833,26670
4.61767,26687
4.62700,26597
4.63635,26402
4.64568,28678
4.65502,29937
4.66437,29023
4.67370,29512
4.68303,31029
4.69238,43280
4.70172,56962
4.71105,59010
4.72040,52694
4.72973,40200
4.73907,31898
4.74842,28247
4.75775,26025
4.76708,27240
4.77643,29654
4.78577,29263
4.79512,29671
4.80445,27420
4.81378,29001
4.82313,28612
4.83247,29225
4.84180,26983
4.85115,27217
4.86048,27644
4.86982,28868
4.87917,32473
4.88850,32550
4.89783,28271
4.90718,26894
4.91652,27326
4.92585,25410
4.93520,28071
4.94453,26953
4.95387,27626
4.96322,25865
4.97255,26233
4.98190,26336
4.99123,27599
5.00057,26863
5.00992,27129
5.01925,27572
5.02858,27674
5.03793,28150
5.04727,27643
5.05660,28393
5.06595,26179
5.07528,27177
5.08462,27341
5.09397,28586
5.10330,28450
5.11263,26074
5.12198,25169
5.13132,25297
5.14065,26379
5.15000,26273
5.15933,26883
5.16868,25216
5.17802,26406
5.18735,28916
5.19670,27743
5.20603,25930
5.21537,24751
5.22472,23874
5.23405,26843
5.24338,29871
5.25273,30270
5.26207,29822
5.27140,38438
5.28075,68480
5.29008,111271
5.29942,125662
5.30877,90392
5.31810,54079
5.32745,37413
5.33678,32275
5.34612,28423
5.35547,29278
5.36480,26816
5.37413,27151
5.38348,27990
5.39282,31208
5.40215,33334
5.41150,32280
5.42083,30204
5.43017,27088
5.43952,27138
5.44885,25071
5.45818,26711
5.46753,25507
5.47687,26272
5.48620,27893
5.49555,29150
5.50488,29092
5.51423,29482
5.52357,35527
5.53290,41309
5.54225,41835
5.55158,37900
5.56092,35147
5.57027,37028
5.57960,41222
5.58893,39874
5.59828,32586
5.60762,28893
5.61695,26583
5.62630,26115
5.63563,24894
5.64497,25324
5.65432,27730
5.66365,28854
5.67298,31056
5.68233,30450
5.69167,28408
5.70102,29651
5.71035,29728
5.71968,30427
5.72903,29134
5.73837,31105
5.74770,36967
5.75705,43204
5.76638,42985
5.77572,36200
5.78507,29791
5.79440,27117
5.80373,27816
5.81308,27418
5.82242,29342
5.83175,31577
5.84110,30694
5.85043,28696
5.85977,26885
5.86912,27268
5.87845,27530
5.88780,27751
5.89713,27631
5.90647,28202
5.91582,40118
5.92515,57336
5.93448,68983
5.94383,61473
5.95317,52281
5.96250,39177
5.97185,28576
5.98118,23260
5.99052,19321
5.99987,19146
6.00920,20495
6.01853,23192
6.02788,24078
6.03722,25184
6.04655,24455
6.05590,24975
6.06523,25181
6.07458,22688
6.08392,18658
6.09325,15504
6.10260,13321
6.11193,11083
6.12127,12772
6.13062,19260
6.13995,21309
6.14928,20674
6.15863,16323
6.16797,13333
6.17730,11263
6.18665,10881
6.19598,10472
6.20532,10723
6.21467,10838
6.22400,12908
6.23335,15036
6.24268,15875
6.25202,14463
6.26137,14357
6.27070,15488
6.28003,13515
6.28938,13188
6.29872,10684
6.30805,10580
6.31740,8526
6.32673,8528
6.33607,8680
6.34542,8993
6.35475,8815
6.36408,8060
6.37343,9495
6.38277,12386
6.39210,25212
6.40145,89600
6.41078,234051
6.42013,333475
6.42947,255025
6.43880,106443
6.44815,32569
6.45748,15428
6.46682,12448
6.47617,11612
6.48550,10810
6.49483,9891
6.50418,10700
6.51352,10741
6.52285,10890
6.53220,9831
6.54153,9531
6.55087,9217
6.56022,8415
6.56955,8950
6.57888,8643
6.58823,9750
6.59757,10647
6.60692,9683
6.61625,10267
6.62558,9542
6.63493,10160
6.64427,9790
6.65360,11766
6.66295,11431
6.67228,13020
6.68162,13676
6.69097,12582
6.70030,11368
6.70963,11753
6.71898,10841
6.72832,8754
6.73765,8987
6.74700,9355
6.75633,7783
6.76567,7909
6.77502,9074
6.78435,10936
6.79370,11168
6.80303,13816
6.81237,14243
6.82172,11703
6.83105,9267
6.84038,8851
6.84973,8325
6.85907,8262
6.86840,8762
6.87775,10066
6.88708,9938
6.89642,11465
6.90577,12317
6.91510,12771
6.92443,12385
6.93378,10797
6.94312,10354
6.95247,9902
6.96180,11017
6.97113,10214
6.98048,10241
6.98982,10669
6.99915,10442
7.00850,11128
7.01783,10038
7.02717,9790
7.03652,9266
7.04585,7912
7.05518,7382
7.06453,7797
7.07387,7846
7.08320,9529
7.09255,8979
7.10188,10407
7.11122,11366
7.12057,11843
7.12990,11467
7.13925,11193
7.14858,9305
7.15792,8684
7.16727,8765
7.17660,8293
7.18593,9106
7.19528,9478
7.20462,10060
7.21395,10537
7.22330,11742
7.23263,18613
7.24197,27735
7.25132,31233
7.26065,22659
7.26998,15285
7.27933,13821
7.28867,12934
7.29800,11989
7.30735,10920
7.31668,9322
7.32603,9059
7.33537,8368
7.34470,8089
7.35405,8850
7.36338,8543
7.37272,8521
7.38207,10994
7.39140,19438
7.40073,34702
7.41008,54692
7.41942,59360
7.42875,41979
7.43810,26172
7.44743,14909
7.45677,10792
7.46612,9928
7.47545,12186
7.48478,13441
7.49413,12200
7.50347,10874
7.51282,9962
7.52215,8843
7.53148,9195
7.54083,9651
7.55017,9776
7.55950,11543
7.56885,13436
7.57818,12313
7.58752,12000
7.59687,11401
7.60620,11012
7.61553,11302
7.62488,10991
7.63422,11624
7.64355,10490
7.65290,9828
7.66223,10303
7.67157,10138
7.68092,10490
7.69025,11505
7.69960,11642
7.70893,12119
7.71827,10628
7.72762,11148
7.73695,12123
7.74628,11311
7.75563,11391
7.76497,11484
7.77430,11479
7.78365,13335
7.79298,11753
7.80232,10430
7.81167,10074
7.82100,9434
7.83033,8979
7.83968,9826
7.84902,13783
7.85835,25456
7.86770,36725
7.87703,41757
7.88638,31758
7.89572,21448
7.90505,17438
7.91440,26363
7.92373,34441
7.93307,30952
7.94242,26531
7.95175,23448
7.96108,20604
7.97043,18917
7.97977,18641
7.98910,18069
7.99845,17789
8.00778,15190
8.01712,16457
8.02647,19257
8.03580,22305
8.04515,26307
8.05448,25644
8.06382,20207
8.07317,15554
8.08250,16731
8.09183,23648
8.10118,25533
8.11052,20750
8.11985,14432
8.12920,10998
8.13853,10086
8.14787,9000
8.15722,8831
8.16655,10015
8.17588,10189
8.18523,9519
8.19457,10091
8.20390,9720
8.21325,10984
8.22258,10965
8.23193,11134
8.24127,11954
8.25060,12123
8.25995,11570
8.26928,11218
8.27862,11074
8.28797,10102
8.29730,11484
8.30663,10441
8.31598,11031
8.32532,10165
8.33465,10397
8.34400,9674
8.35333,10153
8.36267,12465
8.37202,13123
8.38135,14016
8.39068,14427
8.40003,15320
8.40937,14193
8.41872,14422
8.42805,12944
8.43738,12192
8.44673,11887
8.45607,11888
8.46540,12174
8.47475,12039
8.48408,11904
8.49342,12195
8.50277,11420
8.51210,13285
8.52143,15895
8.53078,17499
8.54012,17301
8.54945,20392
8.55880,18763
8.56813,18601
8.57747,15852
8.58682,14040
8.59615,13595
8.60550,13622
8.61483,13835
8.62417,13085
8.63352,12531
8.64285,11578
8.65218,12019
8.66153,12550
8.67087,12792
8.68020,13024
8.68955,12671
8.69888,12799
8.70822,14369
8.71757,13882
8.72690,13576
8.73623,14064
8.74558,16565
8.75492,20516
8.76427,20106
8.77360,18084
8.78293,15730
8.79228,22059
8.80162,40258
8.81095,66256
8.82030,68762
8.82963,43930
8.83897,23813
8.84832,14912
8.85765,12524
8.86698,13137
8.87633,13520
8.88567,14831
8.89500,14410
8.90435,13886
8.91368,14203
8.92302,14401
8.93237,14666
8.94170,15629
8.95105,13857
8.96038,13265
8.96972,14387
8.97907,14499
8.98840,14543
8.99773,14003
9.00708,16148
9.01642,16095
9.02575,15110
9.03510,14495
9.04443,13999
9.05377,13963
9.06312,14661
9.07245,16712
9.08178,18727
9.09113,22644
9.10047,21632
9.10980,20648
9.11915,30189
9.12848,60271
9.13783,87837
9.14717,84259
9.15650,50247
9.16585,25398
9.17518,17368
9.18452,13487
9.19387,14373
9.20320,15384
9.21253,18059
9.22188,23637
9.23122,38443
9.24055,43021
9.24990,36795
9.25923,22114
9.26857,16211
9.27792,14762
9.28725,12769
9.29658,13141
9.30593,12909
9.31527,16949
9.32462,25726
9.33395,34820
9.34328,35179
9.35263,35426
9.36197,60814
9.37130,98912
9.38065,104571
9.38998,74946
9.39932,45041
9.40867,30969
9.41800,27340
9.42733,24493
9.43668,22078
9.44602,18227
9.45535,15552
9.46470,13579
9.47403,13433
9.48337,15308
9.49272,17637
9.50205,20011
9.51140,17536
9.52073,14999
9.53007,15643
9.53942,18306
9.54875,22203
9.55808,34270
9.56743,43050
9.57677,40068
9.58610,26760
9.59545,24101
9.60478,28380
9.61412,26194
9.62347,20348
9.63280,17046
9.64213,16505
9.65148,15840
9.66082,15426
9.67017,14774
9.67950,15400
9.68883,14594
9.69818,13808
9.70752,13405
9.71685,19571
9.72620,65128
9.73553,224808
9.74487,473425
9.75422,556319
9.76355,404457
9.77288,218547
9.78223,124905
9.79157,80805
9.80090,62456
9.81025,52647
9.81958,49370
9.82892,49598
9.83827,53457
9.84760,59173
9.85695,54069
9.86628,43602
9.87562,42591
9.88497,50390
9.89430,59461
9.90363,71201
9.91298,88466
9.92232,81118
9.93165,58159
9.94100,36085
9.95033,27934
9.95967,23731
9.96902,28924
9.97835,53712
9.98768,93290
9.99703,110524
10.00637,80196
10.01570,43862
10.02505,29109
10.03438,22798
10.04373,23178
10.05307,24255
10.06240,27676
10.07175,31582
10.08108,33161
10.09042,29631
10.09977,25029
10.10910,31180
10.11843,77358
10.12778,158502
10.13712,213364
10.14645,413832
10.15580,1383729
10.16513,3055817
10.17447,3402765
10.18382,1761765
10.19315,459645
10.20248,87742
10.21183,33803
10.22117,28783
10.23052,32403
10.23985,39449
10.24918,39453
10.25853,32498
10.26787,24475
10.27720,23405
10.28655,23824
10.29588,25321
10.30522,23977
10.31457,21056
10.32390,18020
10.33323,17013
10.34258,17037
10.35192,16916
10.36125,17454
10.37060,17250
10.37993,16022
10.38928,14768
10.39862,15486
10.40795,16496
10.41730,19580
10.42663,23483
10.43597,23326
10.44532,20742
10.45465,19894
10.46398,20497
10.47333,19319
10.48267,16222
10.49200,14698
10.50135,13734
10.51068,14548
10.52002,14584
10.52937,15436
10.53870,16195
10.54803,16574
10.55738,14893
10.56672,15337
10.57607,15196
10.58540,15848
10.59473,17218
10.60408,16427
10.61342,14320
10.62275,15500
10.63210,18187
10.64143,18248
10.65077,16360
10.66012,15791
10.66945,18123
10.67878,20347
10.68813,21411
10.69747,19407
10.70680,19978
10.71615,22599
10.72548,23806
10.73482,21503
10.74417,25339
10.75350,41096
10.76285,52473
10.77218,48418
10.78152,65575
10.79087,182161
10.80020,453789
10.80953,596754
10.81888,428877
10.82822,178798
10.83755,55464
10.84690,26994
10.85623,23589
10.86557,26585
10.87492,32273
10.88425,33015
10.89358,26271
10.90293,22602
10.91227,20739
10.92160,23372
10.93095,25125
10.94028,24776
10.94963,20622
10.95897,17352
10.96830,17768
10.97765,16502
10.98698,15712
10.99632,15138
11.00567,14573
11.01500,14162
11.02433,15077
11.03368,14661
11.04302,14979
11.05235,14148
11.06170,13696
11.07103,13790
11.08037,13801
11.08972,13329
11.09905,14724
11.10838,16392
11.11773,17131
11.12707,16184
11.13642,15270
11.14575,13701
11.15508,13595
11.16443,14322
11.17377,14883
11.18310,15568
11.19245,15192
11.20178,15178
11.21112,15638
11.22047,14579
11.22980,15353
11.23913,14301
11.24848,13715
11.25782,15010
11.26715,16350
11.27650,15919
11.28583,14509
11.29518,14262
11.30452,16019
11.31385,16258
11.32320,15839
11.33253,18379
11.34187,22366
11.35122,26998
11.36055,27614
11.36988,24722
11.37923,19586
11.38857,16767
11.39790,17280
11.40725,20204
11.41658,20227
11.42592,19215
11.43527,17055
11.44460,16764
11.45393,17205
11.46328,23419
11.47262,31301
11.48197,30823
11.49130,22630
11.50063,16420
11.50998,14372
11.51932,13451
11.52865,14106
11.53800,14450
11.54733,17502
11.55667,26449
11.56602,37326
11.57535,46908
11.58468,47811
11.59403,41437
11.60337,32637
11.61270,26027
11.62205,23575
11.63138,21507
11.64072,17278
11.65007,16798
11.65940,16953
11.66875,17435
11.67808,16283
11.68742,16135
11.69677,15341
11.70610,16882
11.71543,17474
11.72478,19764
11.73412,18736
11.74345,17555
11.75280,16742
11.76213,17052
11.77147,17410
11.78082,18490
11.79015,18408
11.79948,18695
11.80883,16497
11.81817,15574
11.82750,16729
11.83685,16975
11.84618,17250
11.85553,16870
11.86487,16512
11.87420,16049
11.88355,16583
11.89288,16705
11.90222,16380
11.91157,15126
11.92090,14159
11.93023,15924
11.93958,17053
11.94892,19899
11.95825,19281
11.96760,16833
11.97693,14890
11.98627,15148
11.99562,18730
12.00495,28548
12.01428,40856
12.02363,42502
12.03297,32846
12.04232,24058
12.05165,19127
12.06098,15907
12.07033,14790
12.07967,13811
12.08900,14377
12.09835,15211
12.10768,14317
12.11702,14810
12.12637,15353
12.13570,14601
12.14503,14710
12.15438,20484
12.16372,51367
12.17305,124133
12.18240,180611
12.19173,133993
12.20108,57639
12.21042,24653
12.21975,18588
12.22910,21599
12.23843,21467
12.24777,20767
12.25712,21334
12.26645,38796
12.27578,71107
12.28513,85774
12.29447,65418
12.30380,36019
12.31315,23871
12.32248,21294
12.33182,19757
12.34117,18356
12.35050,18393
12.35983,16789
12.36918,15431
12.37852,17501
12.38787,15912
12.39720,16298
12.40653,16258
12.41588,15597
12.42522,16680
12.43455,15024
12.44390,16088
12.45323,16246
12.46257,17959
12.47192,17731
12.48125,19814
12.49058,19830
12.49993,19319
12.50927,20243
12.51860,20059
12.52795,21481
12.53728,22828
12.54662,22073
12.55597,21229
12.56530,27036
12.57465,26218
12.58398,23397
12.59332,20194
12.60267,17373
12.61200,17483
12.62133,17157
12.63068,18983
12.64002,22058
12.64935,23736
12.65870,24115
12.66803,22098
12.67737,18110
12.68672,14181
12.69605,15182
12.70538,14591
12.71473,16031
12.72407,16576
12.73340,17605
12.74275,19434
12.75208,20084
12.76143,21014
12.77077,17751
12.78010,16425
12.78945,16064
12.79878,15911
12.80812,17036
12.81747,16161
12.82680,16531
12.83613,16496
12.84548,15647
12.85482,15379
12.86415,14898
12.87350,14720
12.88283,15448
12.89217,16796
12.90152,17748
12.91085,18177
12.92018,16745
12.92953,15544
12.93887,16292
12.94822,15164
12.95755,16380
12.96688,15610
12.97623,15458
12.98557,14048
12.99490,12367
13.00425,13529
13.01358,14789
13.02292,19162
13.03227,24641
13.04160,26132
13.05093,23219
13.06028,19189
13.06962,18076
13.07895,19113
13.08830,19797
13.09763,18621
13.10698,19001
13.11632,17722
13.12565,19022
13.13500,22291
13.14433,23266
13.15367,24767
13.16302,26006
13.17235,26378
13.18168,26323
13.19103,36409
13.20037,91919
13.20970,187384
13.21905,221651
13.22838,155445
13.23772,82745
13.24707,70483
13.25640,69765
13.26573,47005
13.27508,31872
13.28442,29685
13.29377,26973
13.30310,24073
13.31243,24337
13.32178,24088
13.33112,23975
13.34045,24286
13.34980,23297
13.35913,21489
13.36847,18803
13.37782,20428
13.38715,20045
13.39648,21022
13.40583,23033
13.41517,19008
13.42450,17520
13.43385,21725
13.44318,26666
13.45252,25682
13.46187,24402
13.47120,23040
13.48055,24449
13.48988,22043
13.49922,19972
13.50857,26128
13.51790,50211
13.52723,87106
13.53658,87947
13.54592,55534
13.55525,28084
13.56460,18980
13.57393,16828
13.58327,16972
13.59262,15630
13.60195,16730
13.61128,16828
13.62063,15986
13.62997,18560
13.63930,22073
13.64865,26085
13.65798,26220
13.66733,22066
13.67667,17351
13.68600,15539
13.69535,14690
13.70468,16118
13.71402,14813
13.72337,13333
13.73270,14119
13.74203,13954
13.75138,14727
13.76072,15260
13.77005,16931
13.77940,16929
13.78873,19077
13.79807,22516
13.80742,28271
13.81675,26283
13.82610,21979
13.83543,17206
13.84477,15920
13.85412,16071
13.86345,18057
13.87278,19689
13.88213,23099
13.89147,31708
13.90080,69656
13.91015,173997
13.91948,301145
13.92882,271127
13.93817,136870
13.94750,53405
13.95683,31262
13.96618,25752
13.97552,22062
13.98485,19425
13.99420,19673
14.00353,20484
14.01288,21325
14.02222,19833
14.03155,24913
14.04090,87493
14.05023,566840
14.05957,2568147
14.06892,6230321
14.07825,8200850
14.08758,5350164
14.09693,1538660
14.10627,232892
14.11560,49423
14.12495,32794
14.13428,28118
14.14362,29974
14.15297,33298
14.16230,36800
14.17163,38178
14.18098,36503
14.19032,42178
14.19967,47206
14.20900,39242
14.21833,26057
14.22768,19775
14.23702,16853
14.24635,16645
14.25570,16969
14.26503,19634
14.27437,18835
14.28372,18867
14.29305,16810
14.30238,18576
14.31173,18730
14.32107,22904
14.33040,30711
14.33975,32350
14.34908,30654
14.35842,24715
14.36777,17777
14.37710,16855
14.38645,16123
14.39578,17405
14.40512,16199
14.41447,16541
14.42380,17024
14.43313,15589
14.44248,16306
14.45182,19009
14.46115,22191
14.47050,25792
14.47983,24043
14.48917,21723
14.49852,19300
14.50785,17539
14.51718,18226
14.52653,15892
14.53587,16099
14.54520,16686
14.55455,15560
14.56388,18305
14.57323,16623
14.58257,16313
14.59190,16297
14.60125,15679
14.61058,14760
14.61992,15698
14.62927,16153
14.63860,20929
14.64793,24628
14.65728,30210
14.66662,27221
14.67595,22955
14.68530,19951
14.69463,19711
14.70397,18642
14.71332,17383
14.72265,17499
14.73200,15638
14.74133,17653
14.75067,18121
14.76002,17243
14.76935,18081
14.77868,17094
14.78803,17083
14.79737,17419
14.80670,17170
14.81605,18138
14.82538,18251
14.83472,17288
14.84407,16427
14.85340,17167
14.86273,23329
14.87208,31458
14.88142,30137
14.89075,24389
14.90010,18687
14.90943,16997
14.91878,16992
14.92812,17611
14.93745,16015
14.94680,17691
14.95613,16508
14.96547,16580
14.97482,18743
14.98415,18580
14.99348,18995
15.00283,20942
15.01217,24361
15.02150,23148
15.03085,19277
15.04018,18754
15.04952,21732
15.05887,22694
15.06820,21062
15.07753,19549
15.08688,17325
15.09622,15945
15.10557,15464
15.11490,16812
15.12423,20410
15.13358,24513
15.14292,24077
15.15225,19874
15.16160,17309
15.17093,15966
15.18027,15731
15.18962,16691
15.19895,24824
15.20828,38772
15.21763,50042
15.22697,45342
15.23630,33688
15.24565,25305
15.25498,21273
15.26432,20112
15.27367,19144
15.28300,19448
15.29235,19403
15.30168,19114
15.31102,19299
15.32037,19748
15.32970,20632
15.33903,22377
15.34838,20998
15.35772,19535
15.36705,20843
15.37640,21532
15.38573,19479
15.39507,17942
15.40442,16870
15.41375,17354
15.42308,19727
15.43243,21358
15.44177,19589
15.45112,17657
15.46045,17626
15.46978,15767
15.47913,17614
15.48847,17912
15.49780,18718
15.50715,24599
15.51648,34336
15.52582,39381
15.53517,33157
15.54450,26412
15.55383,19975
15.56318,18703
15.57252,17655
15.58185,17420
15.59120,19103
15.60053,18522
15.60987,20088
15.61922,19833
15.62855,21386
15.63790,22288
15.64723,23616
15.65657,25584
15.66592,26313
15.67525,24479
15.68458,23042
15.69393,27961
15.70327,35926
15.71260,39759
15.72195,32751
15.73128,25939
15.74062,25289
15.74997,27734
15.75930,28437
15.76863,27002
15.77798,24594
15.78732,22275
15.79665,20468
15.80600,20732
15.81533,25584
15.82468,47689
15.83402,97252
15.84335,160765
15.85270,154983
15.86203,92515
15.87137,44351
15.88072,32090
15.89005,30695
15.89938,32556
15.90873,32021
15.91807,28115
15.92740,23911
15.93675,22346
15.94608,19583
15.95542,19936
15.96477,19748
15.97410,22844
15.98343,31231
15.99278,38070
16.00212,36589
16.01147,30780
16.02080,24442
16.03013,20714
16.03948,20244
16.04882,21638
16.05815,22248
16.06750,23110
16.07683,21909
16.08617,20385
16.09552,20121
16.10485,22133
16.11418,23703
16.12353,25599
16.13287,24442
16.14220,22489
16.15155,22384
16.16088,21191
16.17022,21528
16.17957,18529
16.18890,19319
16.19825,20179
16.20758,22797
16.21692,26737
16.22627,28047
16.23560,31243
16.24493,30537
16.25428,29017
16.26362,26170
16.27295,35944
16.28230,73972
16.29163,166768
16.30097,244031
16.31032,200118
16.31965,103065
16.32898,45792
16.33833,27196
16.34767,21676
16.35700,18088
16.36635,16843
16.37568,16227
16.38503,16952
16.39437,18233
16.40370,18857
16.41305,20266
16.42238,22016
16.43172,19762
16.44107,20123
16.45040,25356
16.45973,27945
16.46908,26232
16.47842,23397
16.48775,23145
16.49710,23144
16.50643,24713
16.51577,25248
16.52512,24435
16.53445,23591
16.54380,19379
16.55313,19729
16.56247,18274
16.57182,18172
16.58115,20382
16.59048,20637
16.59983,19155
16.60917,18128
16.61850,19793
16.62785,24497
16.63718,28167
16.64652,27806
16.65587,26583
16.66520,23520
16.67453,22700
16.68388,24068
16.69322,27377
16.70255,29774
16.71190,25362
16.72123,21510
16.73058,21978
16.73992,40871
16.74925,71914
16.75860,78276
16.76793,52624
16.77727,29589
16.78662,21481
16.79595,18394
16.80528,18398
16.81463,21241
16.82397,22000
16.83330,26488
16.84265,26296
16.85198,23876
16.86132,19822
16.87067,19345
16.88000,17355
16.88933,18638
16.89868,19191
16.90802,25085
16.91737,31058
16.92670,31096
16.93603,28305
16.94538,31077
16.95472,31838
16.96405,35023
16.97340,32771
16.98273,26578
16.99207,22116
17.00142,19220
17.01075,21398
17.02008,32672
17.02943,51496
17.03877,68474
17.04810,56340
17.05745,35834
17.06678,26285
17.07612,22827
17.08547,20787
17.09480,21711
17.10415,21275
17.11348,19677
17.12282,21873
17.13217,25560
17.14150,28223
17.15083,26608
17.16018,20587
17.16952,19029
17.17885,19144
17.18820,17922
17.19753,18695
17.20687,17399
17.21622,17210
17.22555,18085
17.23488,19137
17.24423,19284
17.25357,19958
17.26292,21499
17.27225,22162
17.28158,26820
17.29093,27333
17.30027,24956
17.30960,24703
17.31895,26150
17.32828,25625
17.33762,25285
17.34697,22541
17.35630,21686
17.36563,26533
17.37498,54069
17.38432,107211
17.39365,131757
17.40300,92227
17.41233,43145
17.42167,28536
17.43102,24411
17.44035,23930
17.44970,24082
17.45903,22924
17.46837,22030
17.47772,25305
17.48705,68192
17.49638,346790
17.50573,1219211
17.51507,2180227
17.52440,1928042
17.53375,845210
17.54308,201506
17.55242,48321
17.56177,29140
17.57110,28272
17.58043,30587
17.58978,31105
17.59912,28214
17.60845,24987
17.61780,21645
17.62713,23976
17.63648,23459
17.64582,23089
17.65515,24057
17.66450,26201
17.67383,28967
17.68317,32089
17.69252,33377
17.70185,33127
17.71118,30707
17.72053,26987
17.72987,22323
17.73920,23063
17.74855,23358
17.75788,25842
17.76722,29270
17.77657,29112
17.78590,26923
17.79523,25082
17.80458,23131
17.81392,21151
17.82327,21177
17.83260,22404
17.84193,23079
17.85128,25255
17.86062,29427
17.86995,31986
17.87930,29790
17.88863,26267
17.89797,23824
17.90732,22058
17.91665,19860
17.92598,18568
17.93533,17606
17.94467,17170
17.95400,18302
17.96335,17998
17.97268,17323
17.98202,17344
17.99137,17845
18.00070,16681
18.01005,16696
18.01938,16375
18.02872,16806
18.03807,20550
18.04740,24731
18.05673,30973
18.06608,30009
18.07542,25988
18.08475,20764
18.09410,19027
18.10343,19664
18.11277,20040
18.12212,22034
18.13145,23067
18.14078,22994
18.15013,21407
18.15947,21195
18.16882,20999
18.17815,20185
18.18748,18688
18.19683,18066
18.20617,18304
18.21550,17831
18.22485,18465
18.23418,19319
18.24352,18768
18.25287,17815
18.26220,17328
18.27153,18649
18.28088,20237
18.29022,23245
18.29955,24296
18.30890,24774
18.31823,24026
18.32757,25770
18.33692,28499
18.34625,30915
18.35560,33700
18.36493,30207
18.37427,25359
18.38362,21404
18.39295,22968
18.40228,26560
18.41163,27461
18.42097,26310
18.43030,26264
18.43965,27190
18.44898,29659
18.45832,28096
18.46767,23668
18.47700,20954
18.48633,22786
18.49568,30725
18.50502,41582
18.51435,47462
18.52370,43904
18.53303,34428
18.54238,25776
18.55172,26313
18.56105,23756
18.57040,21925
18.57973,19841
18.58907,19116
18.59842,20954
18.60775,24787
18.61708,26577
18.62643,24486
18.63577,24713
18.64510,23803
18.65445,23157
18.66378,22552
18.67312,22287
18.68247,22063
18.69180,22588
18.70113,23070
18.71048,26470
18.71982,26471
18.72917,25221
18.73850,22477
18.74783,22627
18.75718,20714
18.76652,18265
18.77585,16703
18.78520,17286
18.79453,18911
18.80387,19214
18.81322,20178
18.82255,21150
18.83188,19891
18.84123,19155
18.85057,18757
18.85990,18672
18.86925,17761
18.87858,17459
18.88793,17419
18.89727,18730
18.90660,22103
18.91595,28268
18.92528,27826
18.93462,25460
18.94397,26291
18.95330,29988
18.96263,31505
18.97198,31843
18.98132,29153
18.99065,24059
19.00000,21726
19.00933,21038
19.01867,20336
19.02802,20849
19.03735,25164
19.04668,38199
19.05603,56272
19.06537,67321
19.07472,86980
19.08405,115689
19.09338,106685
19.10273,69680
19.11207,38025
19.12140,25780
19.13075,20137
19.14008,18358
19.14942,16023
19.15877,16821
19.16810,17592
19.17743,21200
19.18678,33862
19.19612,63219
19.20545,86149
19.21480,80362
19.22413,55124
19.23347,36267
19.24282,28656
19.25215,24754
19.26150,23555
19.27083,21185
19.28017,24090
19.28952,25510
19.29885,27058
19.30818,31289
19.31753,35509
19.32687,32743
19.33620,26752
19.34555,21799
19.35488,19911
19.36422,19191
19.37357,18683
19.38290,18382
19.39223,19064
19.40158,18261
19.41092,18894
19.42025,18021
19.42960,17851
19.43893,16952
19.44828,16704
19.45762,16264
19.46695,17259
19.47630,19663
19.48563,21148
19.49497,21957
19.50432,21715
19.51365,18832
19.52298,19384
19.53233,19075
19.54167,19019
19.55100,18280
19.56035,19393
19.56968,20527
19.57902,21288
19.58837,22516
19.59770,24898
19.60703,22923
19.61638,23095
19.62572,22371
19.63507,25447
19.64440,26099
19.65373,23706
19.66308,18558
19.67242,18046
19.68175,18760
19.69110,17911
19.70043,17787
19.70977,19414
19.71912,24311
19.72845,33668
19.73778,37112
19.74713,32196
19.75647,24693
19.76580,21095
19.77515,23051
19.78448,22812
19.79383,23830
19.80317,21258
19.81250,19317
19.82185,18168
19.83118,18120
19.84052,17422
19.84987,18390
19.85920,19845
19.86853,26011
19.87788,36767
19.88722,36363
19.89655,30039
19.90590,22062
19.91523,21737
19.92457,21547
19.93392,20343
19.94325,19501
19.95258,18791
19.96193,20646
19.97127,20960
19.98062,19418
19.98995,17265
19.99928,16723
20.00863,16903
20.01797,18750
20.02730,18919
20.03665,21221
20.04598,22662
20.05532,20965
20.06467,20336
20.07400,21404
20.08333,21597
20.09268,20645
20.10202,19444
20.11135,17383
20.12070,16228
20.13003,15762
20.13937,17472
20.14872,22173
20.15805,26584
20.16740,24468
20.17673,19651
20.18607,18788
20.19542,16927
20.20475,17573
20.21408,17627
20.22343,17257
20.23277,16449
20.24210,16143
20.25145,16501
20.26078,17354
20.27012,16977
20.27947,16406
20.28880,16366
20.29813,17848
20.30748,15587
20.31682,14655
20.32615,16281
20.33550,16555
20.34483,17387
20.35418,16606
20.36352,17799
20.37285,18081
20.38220,17715
20.39153,16669
20.40087,15685
20.41022,17423
20.41955,16020
20.42888,17302
20.43823,15887
20.44757,16465
20.45690,17933
20.46625,22074
20.47558,25552
20.48492,23884
20.49427,18297
20.50360,16804
20.51295,16582
20.52228,16491
20.53162,16416
20.54097,16958
20.55030,20571
20.55963,35392
20.56898,87471
20.57832,165587
20.58765,166333
20.59700,95836
20.60633,42309
20.61567,24299
20.62502,21771
20.63435,21133
20.64368,23020
20.65303,22069
20.66237,20895
20.67170,20813
20.68105,20212
20.69038,20388
20.69973,20075
20.70907,20082
20.71840,20188
20.72775,19040
20.73708,18257
20.74642,18629
20.75577,17739
20.76510,16885
20.77443,17809
20.78378,19286
20.79312,20825
20.80245,22129
20.81180,21527
20.82113,19639
20.83047,17882
20.83982,16471
20.84915,17525
20.85848,16382
20.86783,16553
20.87717,16733
20.88652,17108
20.89585,17167
20.90518,18842
20.91453,17240
20.92387,17428
20.93320,16987
20.94255,16582
20.95188,16575
20.96122,16864
20.97057,15963
20.97990,16801
20.98923,16670
20.99858,16853
21.00792,17188
21.01725,16615
21.02660,15460
21.03593,16024
21.04527,16757
21.05462,16663
21.06395,17404
21.07330,16690
21.08263,17045
21.09197,17743
21.10132,18267
21.11065,18322
21.11998,19056
21.12933,18519
21.13867,18268
21.14800,17488
21.15735,17287
21.16668,17996
21.17602,23030
21.18537,29167
21.19470,31177
21.20403,27678
21.21338,23404
21.22272,20482
21.23205,20312
21.24140,18156
21.25073,18470
21.26008,18722
21.26942,21175
21.27875,22269
21.28810,23355
21.29743,22794
21.30677,21674
21.31612,19159
21.32545,17712
21.33478,17059
21.34413,17472
21.35347,17561
21.36280,17569
21.37215,16377
21.38148,17041
21.39082,16847
21.40017,18821
21.40950,19213
21.41883,18733
21.42818,19843
21.43752,19369
21.44687,19270
21.45620,17703
21.46553,17291
21.47488,18981
21.48422,20599
21.49355,19368
21.50290,18406
21.51223,19094
21.52157,19700
21.53092,17728
21.54025,18548
21.54958,19029
21.55893,22794
21.56827,29549
21.57760,32002
21.58695,29739
21.59628,23426
21.60563,19623
21.61497,18115
21.62430,18422
21.63365,17785
21.64298,18901
21.65232,17058
21.66167,17343
21.67100,18778
21.68033,20600
21.68968,20196
21.69902,19608
21.70835,20298
21.71770,19851
21.72703,20914
21.73637,19139
21.74572,19519
21.75505,18131
21.76438,17330
21.77373,17215
21.78307,16834
21.79242,17285
21.80175,17505
21.81108,18656
21.82043,19887
21.82977,21025
21.83910,20188
21.84845,18428
21.85778,18667
21.86712,18018
21.87647,19556
21.88580,21661
21.89513,23730
21.90448,25123
21.91382,22913
21.92315,22660
21.93250,20454
21.94183,20585
21.95117,19766
21.96052,20563
21.96985,22219
21.97920,24595
21.98853,27479
21.99787,28601
22.00722,26107
22.01655,22850
22.02588,20815
22.03523,21022
22.04457,21496
22.05390,21012
22.06325,20468
22.07258,21646
22.08192,23409
22.09127,22366
22.10060,21339
22.10993,20648
22.11928,20379
22.12862,19420
22.13795,18561
22.14730,19448
22.15663,23146
22.16598,24572
22.17532,26261
22.18465,23940
22.19400,20012
22.20333,19951
22.21267,20010
22.22202,22608
22.23135,24216
22.24068,25029
22.25003,22046
22.25937,20525
22.26870,21051
22.27805,21117
22.28738,21727
22.29672,22091
22.30607,21729
22.31540,20353
22.32475,18453
22.33408,18378
22.34342,19950
22.35277,19974
22.36210,20903
22.37143,19990
22.38078,20267
22.39012,18402
22.39945,18854
22.40880,19054
22.41813,17531
22.42747,17860
22.43682,18126
22.44615,18557
22.45548,18822
22.46483,18399
22.47417,19002
22.48350,18998
22.49285,18631
22.50218,18798
22.51153,18981
22.52087,18134
22.53020,17978
22.53955,17975
22.54888,17559
22.55822,18515
22.56757,18869
22.57690,19694
22.58623,20088
22.59558,20364
22.60492,20441
22.61425,20862
22.62360,19728
22.63293,19987
22.64227,19059
22.65162,18391
22.66095,17681
22.67028,17707
22.67963,18525
22.68897,19496
22.69832,20798
22.70765,18909
22.71698,18737
22.72633,19105
22.73567,20129
22.74500,22959
22.75435,23540
22.76368,25816
22.77302,22630
22.78237,20864
22.79170,19248
22.80103,19566
22.81038,20270
22.81972,18655
22.82905,18725
22.83840,19713
22.84773,20279
22.85707,19328
22.86642,18618
22.87575,19266
22.88510,19288
22.89443,19443
22.90377,19427
22.91312,18912
22.92245,18766
22.93178,20371
22.94113,18862
22.95047,18808
22.95980,19218
22.96915,20004
22.97848,17918
22.98782,18747
22.99717,17827
23.00650,18097
23.01583,17482
23.02518,17243
23.03452,16751
23.04385,18065
23.05320,17370
23.06253,18902
23.07188,17890
23.08122,17644
23.09055,16953
23.09990,15495
23.10923,17648
23.11857,18004
23.12792,16098
23.13725,17567
23.14658,16740
23.15593,17573
23.16527,17463
23.17460,17414
23.18395,17524
23.19328,17845
23.20262,17678
23.21197,16923
23.22130,17517
23.23065,18371
23.23998,17341
23.24932,20737
23.25867,20664
23.26800,21755
23.27733,20916
23.28668,20507
23.29602,18895
23.30535,19901
23.31470,19299
23.32403,22089
23.33337,25318
23.34272,26460
23.35205,24553
23.36138,20633
23.37073,18604
23.38007,18012
23.38940,19533
23.39875,18854
23.40808,18367
23.41743,17909
23.42677,17988
23.43610,19273
23.44545,17731
23.45478,18377
23.46412,18959
23.47347,19642
23.48280,19031
23.49213,18655
23.50148,18083
23.51082,17842
23.52015,18962
23.52950,20271
23.53883,20620
23.54817,19404
23.55752,19826
23.56685,18568
23.57618,19342
23.58553,19892
23.59487,18431
23.60422,19248
23.61355,18010
23.62288,16960
23.63223,17485
23.64157,16756
23.65090,17895
23.66025,17951
23.66958,16660
23.67892,18290
23.68827,17408
23.69760,18507
23.70693,17567
23.71628,19565
23.72562,19787
23.73495,20541
23.74430,19676
23.75363,18321
23.76297,17421
23.77232,18619
23.78165,17412
23.79100,17692
23.80033,17872
23.80967,18900
23.81902,17028
23.82835,18124
23.83768,17607
23.84703,17555
23.85637,17496
23.86570,17567
23.87505,18253
23.88438,17155
23.89372,18231
23.90307,17598
23.91240,18582
23.92173,18296
23.93108,17978
23.94042,17114
23.94977,18401
23.95910,17614
23.96843,17950
23.97778,17253
23.98712,16818
23.99645,16897
24.00580,17895
24.01513,17652
24.02447,17357
24.03382,16396
24.04315,16554
24.05248,17281
24.06183,17049
24.07117,17366
24.08050,18203
24.08985,18482
24.09918,16973
24.10852,17335
24.11787,17542
24.12720,16663
24.13655,17802
24.14588,18285
24.15522,17586
24.16457,16991
24.17390,16889
24.18323,18506
24.19258,18880
24.20192,17639
24.21125,18152
24.22060,17219
24.22993,17782
24.23927,18150
24.24862,17585
24.25795,17166
24.26728,16613
24.27663,17493
24.28597,17876
24.29530,17628
24.30465,17865
24.31398,18742
24.32333,18809
24.33267,19570
24.34200,18312
24.35135,18356
24.36068,17181
24.37002,18070
24.37937,18244
24.38870,18545
24.39803,18722
24.40738,18506
24.41672,18262
24.42605,18101
24.43540,18685
24.44473,19176
24.45407,18108
24.46342,19393
24.47275,18023
24.48208,19262
24.49143,18052
24.50077,18301
24.51012,18832
24.51945,19288
24.52878,19784
24.53813,19231
24.54747,19687
24.55680,18811
24.56615,19671
24.57548,18784
24.58482,18046
24.59417,18809
24.60350,19356
24.61283,19436
24.62218,18854
24.63152,19029
24.64085,19116
24.65020,17920
24.65953,19928
24.66887,20464
24.67822,19533
24.68755,18461
24.69690,18956
24.70623,19878
24.71557,18866
24.72492,17762
24.73425,18778
24.74358,17673
24.75293,19197
24.76227,17405
24.77160,18067
24.78095,18884
24.79028,18684
24.79962,18165
24.80897,19007
24.81830,18977
24.82763,18767
24.83698,18178
24.84632,19686
24.85567,20138
24.86500,18484
24.87433,20627
24.88368,20795
24.89302,20006
24.90235,21667
24.91170,20198
24.92103,19613
24.93037,19177
24.93972,20142
24.94905,19784
24.95838,19358
24.96773,19612
24.97707,19718
24.98640,19709
24.99575,19931
25.00508,19263
25.01442,19828
25.02377,19848
25.03310,18486
25.04245,19319
25.05178,18752
25.06112,20088
25.07047,19059
25.07980,18484
25.08913,19115
25.09848,19320
25.10782,19772
25.11715,18620
25.12650,18429
25.13583,20247
25.14517,18778
25.15452,19749
25.16385,20545
25.17318,18798
25.18253,19434
25.19187,18449
25.20120,20002
25.21055,19034
25.21988,19453
25.22923,18670
25.23857,19565
25.24790,18463
25.25725,19351
25.26658,19035
25.27592,19546
25.28527,20589
25.29460,19951
25.30393,22773
25.31328,36416
25.32262,64501
25.33195,94564
25.34130,91850
25.35063,60015
25.35997,39599
25.36932,28624
25.37865,27101
25.38798,24583
25.39733,24885
25.40667,22635
25.41602,22061
25.42535,22388
25.43468,23327
25.44403,21819
25.45337,22906
25.46270,21873
25.47205,22313
25.48138,23858
25.49072,22801
25.50007,24716
25.50940,24333
25.51873,21706
25.52808,21691
25.53742,21958
25.54675,21340
25.55610,22306
25.56543,22292
25.57478,21386
25.58412,21826
25.59345,20589
25.60280,22244
25.61213,21796
25.62147,23063
25.63082,21874
25.64015,23119
25.64948,22813
25.65883,23789
25.66817,22810
25.67750,23516
25.68685,22158
25.69618,20950
25.70552,23557
25.71487,23168
25.72420,20515
25.73353,22439
25.74288,22830
25.75222,23669
25.76157,23342
25.77090,23214
25.78023,22904
25.78958,23479
25.79892,24852
25.80825,25166
25.81760,25286
25.82693,23497
25.83627,23859
25.84562,23581
25.85495,22910
25.86428,21386
25.87363,22641
25.88297,22543
25.89230,22254
25.90165,22354
25.91098,22685
25.92032,21876
25.92967,22775
25.93900,21680
25.94835,22561
25.95768,21160
25.96702,21763
25.97637,21455
25.98570,21169
25.99503,20499
26.00438,20780
26.01372,20860
26.02305,20463
26.03240,19700
26.04173,20670
26.05107,20304
26.06042,19143
26.06975,20340
26.07908,21375
26.08843,20445
26.09777,20582
26.10710,20318
26.11645,20536
26.12578,22213
26.13513,21651
26.14447,21776
26.15380,21557
26.16315,21118
26.17248,20799
26.18182,22058
26.19117,20628
26.20050,20255
26.20983,20271
26.21918,20971
26.22852,21651
26.23785,20484
26.24720,21217
26.25653,22508
26.26587,20706
26.27522,20388
26.28455,20280
26.29388,21355
26.30323,22816
26.31257,22153
26.32192,21689
26.33125,20966
26.34058,20975
26.34993,22660
26.35927,21770
26.36860,20724
26.37795,22085
26.38728,20148
26.39662,20803
26.40597,21527
26.41530,21425
26.42463,19694
26.43398,20039
26.44332,19806
26.45265,22027
26.46200,22340
26.47133,22090
26.48067,21279
26.49002,21929
26.49935,21253
26.50870,22603
26.51803,21341
26.52737,22643
26.53672,21829
26.54605,22869
26.55538,22166
26.56473,21747
26.57407,22209
26.58340,21490
26.59275,22481
26.60208,22542
26.61142,21942
26.62077,22032
26.63010,21087
26.63943,21771
26.64878,22103
26.65812,22527
26.66747,21564
26.67680,22876
26.68613,22169
26.69548,21730
26.70482,21431
26.71415,23477
26.72350,22192
26.73283,22396
26.74217,21840
26.75152,23020
26.76085,21569
26.77018,22078
26.77953,21066
26.78887,22944
26.79820,22051
26.80755,23071
26.81688,23920
26.82622,23839
26.83557,22676
26.84490,23989
26.85425,24807
26.86358,25841
26.87292,24219
26.88227,23212
26.89160,23442
26.90093,22648
26.91028,23798
26.91962,24143
26.92895,24575
26.93830,23489
26.94763,22309
26.95697,23892
26.96632,24684
26.97565,23556
26.98498,23889
26.99433,24003
27.00367,24056
27.01300,23399
27.02235,23584
27.03168,24198
27.04103,23549
27.05037,23235
27.05970,23711
27.06905,23429
27.07838,23683
27.08772,24248
27.09707,23436
27.10640,22954
27.11573,24047
27.12508,23881
27.13442,24038
27.14375,23272
27.15310,23577
27.16243,23897
27.17177,23600
27.18112,24444
27.19045,24110
27.19978,23193
27.20913,23573
27.21847,23492
27.22782,24710
27.23715,23243
27.24648,24459
27.25583,25796
27.26517,24729
27.27450,24256
27.28385,23319
27.29318,23281
27.30252,24080
27.31187,22523
27.32120,22122
27.33053,23597
27.33988,22615
27.34922,22529
27.35855,22179
27.36790,22540
27.37723,23578
27.38658,24013
27.39592,24080
27.40525,23886
27.41460,25408
27.42393,24871
27.43327,26464
27.44262,27243
27.45195,24936
27.46128,25789
27.47063,25710
27.47997,25001
27.48930,25293
27.49865,25708
27.50798,26659
27.51732,26773
27.52667,26770
27.53600,25987
27.54533,24418
27.55468,25922
27.56402,25533
27.57337,24396
27.58270,24380
27.59203,24441
27.60138,24688
27.61072,24127
27.62005,25323
27.62940,23479
27.63873,24985
27.64807,25110
27.65742,29151
27.66675,37087
27.67608,53317
27.68543,57007
27.69477,49077
27.70410,38571
27.71345,31552
27.72278,30317
27.73212,28675
27.74147,28930
27.75080,28067
27.76015,25987
27.76948,26271
27.77882,26040
27.78817,26757
27.79750,25845
27.80683,27045
27.81618,27008
27.82552,26775
27.83485,25252
27.84420,24810
27.85353,24854
27.86287,25079
27.87222,25170
27.88155,24897
27.89088,24963
27.90023,24941
27.90957,24875
27.91890,25257
27.92825,25872
27.93758,29149
27.94693,29950
27.95627,29533
27.96560,27866
27.97495,26362
27.98428,27425
27.99362,25899
28.00297,26876
28.01230,26789
28.02163,26117
28.03098,27190
28.04032,26459
28.04965,28047
28.05900,27534
28.06833,27469
28.07767,26777
28.08702,26337
28.09635,27590
28.10568,28624
28.11503,27891
28.12437,27272
28.13372,26557
28.14305,27173
28.15238,26410
28.16173,27832
28.17107,27138
28.18040,27795
28.18975,27083
28.19908,26931
28.20842,26761
28.21777,26569
28.22710,26313
28.23643,26834
28.24578,26710
28.25512,27568
28.26445,27255
28.27380,26783
28.28313,26904
28.29248,27492
28.30182,27912
28.31115,25675
28.32050,27375
28.32983,26552
28.33917,27527
28.34852,26505
28.35785,27345
28.36718,27863
28.37653,27993
28.38587,27057
28.39520,27466
28.40455,27564
28.41388,28524
28.42322,26818
28.43257,28101
28.44190,28578
28.45123,28085
28.46058,27103
28.46992,28111
28.47927,27499
28.48860,27882
28.49793,29427
28.50728,28542
28.51662,28015
28.52595,28975
28.53530,28310
28.54463,27829
28.55397,28864
28.56332,28903
28.57265,27935
28.58198,28923
28.59133,29393
28.60067,30211
28.61000,29500
28.61935,29431
28.62868,30781
28.63802,28906
28.64737,30182
28.65670,32227
28.66605,36848
28.67538,45292
28.68472,52152
28.69407,48663
28.70340,43178
28.71273,35536
28.72208,35174
28.73142,33316
28.74075,32448
28.75010,33336
28.75943,31367
28.76877,31728
28.77812,31533
28.78745,31148
28.79678,32111
28.80613,31010
28.81547,30735
28.82480,32404
28.83415,33889
28.84348,31777
28.85283,31925
28.86217,34000
28.87150,32876
28.88085,34220
28.89018,33816
28.89952,33789
28.90887,33097
28.91820,34448
28.92753,33465
28.93688,33664
28.94622,34860
28.95555,34091
28.96490,34123
28.97423,32716
28.98357,33918
28.99292,34520
29.00225,31839
29.01160,32251
29.02093,33374
29.03027,34444
29.03962,34147
29.04895,33277
29.05828,32591
29.06763,32933
29.07697,32515
29.08630,33376
29.09565,35138
29.10498,32106
29.11432,34610
29.12367,33216
29.13300,32747
29.14233,33624
29.15168,33248
29.16102,33482
29.17035,33036
29.17970,33531
29.18903,34685
29.19838,35691
29.20772,34965
29.21705,34738
29.22640,34305
29.23573,34822
29.24507,34758
29.25442,34660
29.26375,33763
29.27308,33142
29.28243,34841
29.29177,34160
29.30110,35049
29.31045,36249
29.31978,34598
29.32912,36024
29.33847,34844
29.34780,36085
29.35713,37572
29.36648,34908
29.37582,34653
29.38517,36084
29.39450,37017
29.40383,35166
29.41318,34012
29.42252,35705
29.43185,35278
29.44120,36258
29.45053,36379
29.45987,40461
29.46922,42768
29.47855,42642
29.48788,41148
29.49723,38530
29.50657,36431
29.51590,37524
29.52525,36410
29.53458,36361
29.54392,35002
29.55327,34358
29.56260,36252
29.57195,35509
29.58128,37138
29.59062,36622
29.59997,34487
29.60930,36243
29.61863,34289
29.62798,35297
29.63732,36198
29.64665,35757
29.65600,36802
29.66533,35922
29.67467,37019
29.68402,35421
29.69335,34665
29.70268,36557
29.71203,36172
29.72137,37227
29.73070,37977
29.74005,35904
29.74938,36732
29.75873,36949
29.76807,37318
29.77740,36951
29.78675,36342
29.79608,37398
29.80542,35894
29.81477,37211
29.82410,35835
29.83343,37361
29.84278,36261
29.85212,36242
29.86145,36420
29.87080,36756
29.88013,35667
29.88947,33880
29.89882,34649
29.90815,36909
29.91748,36142
29.92683,36305
29.93617,36642
29.94552,38053
29.95485,37611
29.96418,36790
29.97353,44606
29.98287,49557
29.99220,55775
30.00155,60019
30.01088,61371
30.02022,56141
30.02957,50773
30.03890,49786
30.04823,47700
30.05758,45576
30.06692,44295
30.07625,44920
30.08560,43576
30.09493,43108
30.10428,43491
30.11362,43561
30.12295,43785
30.13230,43448
30.14163,42763
30.15097,42374
30.16032,42212
30.16965,39807
30.17898,41176
30.18833,40605
30.19767,39917
30.20700,41445
30.21635,41407
30.22568,41001
30.23502,40251
30.24437,39983
30.25370,40522
30.26303,40281
30.27238,38230
30.28172,42037
30.29107,41642
30.30040,42307
30.30973,41551
30.31908,39352
30.32842,40212
30.33775,40931
30.34710,41232
30.35643,40766
30.36577,41184
30.37512,40750
30.38445,41066
30.39378,42860
30.40313,42838
30.41247,42495
30.42180,42291
30.43115,43644
30.44048,42713
30.44982,42229
30.45917,42120
30.46850,40188
30.47785,40808
30.48718,40428
30.49652,41320
30.50587,40638
30.51520,41143
30.52453,40291
30.53388,37861
30.54322,40190
30.55255,41526
30.56190,41084
30.57123,40396
30.58057,41761
30.58992,42128
30.59925,43346
30.60858,45352
30.61793,45718
30.62727,46344
30.63660,50098
30.64595,49822
30.65528,50558
30.66463,49646
30.67397,54236
30.68330,51465
30.69265,51219
30.70198,52799
30.71132,48668
30.72067,47461
30.73000,47446
30.73933,46684
30.74868,48651
30.75802,47771
30.76735,45468
30.77670,47512
30.78603,48848
30.79537,48102
30.80472,46454
30.81405,46736
30.82340,45581
30.83273,47899
30.84207,47991
30.85142,48110
30.86075,48267
30.87008,48382
30.87943,48476
30.88877,49488
30.89810,52320
30.90745,51186
30.91678,52286
30.92612,51558
30.93547,52736
30.94480,51856
30.95413,52875
30.96348,51208
30.97282,52701
30.98215,52854
30.99150,52022
31.00083,50737
31.01018,49928
31.01952,50265
31.02885,49318
31.03820,48363
31.04753,47744
31.05687,47775
31.06622,47862
31.07555,49562
31.08488,48568
31.09423,48211
31.10357,48927
31.11290,49187
31.12225,48022
31.13158,48820
31.14092,49280
31.15027,49625
31.15960,51861
31.16893,49732
31.17828,51392
31.18762,49719
31.19697,51084
31.20630,55226
31.21563,54415
31.22498,52342
31.23432,53209
31.24365,51939
31.25300,51698
31.26233,53680
31.27167,51632
31.28102,52131
31.29035,50941
31.29968,51648
31.30903,53825
31.31837,52601
31.32770,54440
31.33705,54400
31.34638,52514
31.35572,52258
31.36507,54295
