D:\数据\20220107\ZS1E-Z-000124.D Fri Jan 07 20:31:41 2022
Start of data points
0.09750,22288
0.10683,23206
0.11617,22437
0.12552,22482
0.13485,22864
0.14418,22995
0.15353,23020
0.16287,23925
0.17220,22872
0.18155,22415
0.19088,22524
0.20022,22307
0.20957,22731
0.21890,22557
0.22823,21755
0.23758,22416
0.24692,21427
0.25627,21728
0.26560,22819
0.27493,22563
0.28428,20617
0.29362,22275
0.30295,21301
0.31230,21652
0.32163,20928
0.33097,21973
0.34032,21539
0.34965,21546
0.35898,20978
0.36833,22072
0.37767,21130
0.38700,21749
0.39635,21637
0.40568,21514
0.41502,20313
0.42437,22621
0.43370,21740
0.44305,21497
0.45238,19310
0.46172,15509
0.47107,13464
0.48040,8453
0.48973,5942
0.49908,5010
0.50842,4955
0.51775,3394
0.52710,4445
0.53643,3891
0.54577,4308
0.55512,4282
0.56445,4582
0.57378,3935
0.58313,4196
0.59247,4293
0.60182,3797
0.61115,3980
0.62048,3509
0.62983,3967
0.63917,4099
0.64850,3629
0.65785,4087
0.66718,3807
0.67652,3741
0.68587,4019
0.69520,3956
0.70453,3876
0.71388,3677
0.72322,3725
0.73255,3432
0.74190,3990
0.75123,3615
0.76057,3511
0.76992,3369
0.77925,3374
0.78860,3924
0.79793,4093
0.80727,4051
0.81662,4019
0.82595,3769
0.83528,3840
0.84463,3219
0.85397,3851
0.86330,3592
0.87265,3123
0.88198,3462
0.89132,3504
0.90067,3943
0.91000,3669
0.91933,3480
0.92868,3359
0.93802,3604
0.94735,3351
0.95670,3239
0.96603,3370
0.97538,3745
0.98472,3449
0.99405,3664
1.00340,3613
1.01273,3490
1.02207,3677
1.03142,3505
1.04075,3691
1.05008,3598
1.05943,3517
1.06877,3848
1.07810,4068
1.08745,3633
1.09678,3509
1.10612,3066
1.11547,3863
1.12480,3358
1.13413,3418
1.14348,3362
1.15282,3620
1.16217,3675
1.17150,3553
1.18083,3751
1.19018,3559
1.19952,3137
1.20885,3848
1.21820,4047
1.22753,3084
1.23687,3366
1.24622,3911
1.25555,3679
1.26488,3500
1.27423,3604
1.28357,3622
1.29290,3759
1.30225,3338
1.31158,3106
1.32092,3489
1.33027,3612
1.33960,3468
1.34895,2773
1.35828,3500
1.36762,3839
1.37697,3390
1.38630,3289
1.39563,3591
1.40498,2757
1.41432,3471
1.42365,3035
1.43300,3527
1.44233,3769
1.45167,3327
1.46102,3112
1.47035,3598
1.47968,3756
1.48903,3700
1.49837,3277
1.50772,3100
1.51705,2916
1.52638,3264
1.53573,3302
1.54507,3061
1.55440,3382
1.56375,3075
1.57308,3441
1.58242,3144
1.59177,2913
1.60110,3740
1.61043,4532
1.61978,8578
1.62912,15736
1.63845,19113
1.64780,24962
1.65713,35362
1.66647,46032
1.67582,54455
1.68515,50489
1.69450,45198
1.70383,33913
1.71317,23889
1.72252,17129
1.73185,16540
1.74118,20322
1.75053,20442
1.75987,23626
1.76920,24707
1.77855,24728
1.78788,26281
1.79722,26191
1.80657,26604
1.81590,26639
1.82523,28089
1.83458,27394
1.84392,25658
1.85325,26480
1.86260,27290
1.87193,28913
1.88128,35216
1.89062,45806
1.89995,59990
1.90930,76743
1.91863,93682
1.92797,119828
1.93732,151149
1.94665,181462
1.95598,192272
1.96533,183306
1.97467,156863
1.98400,120888
1.99335,96590
2.00268,79252
2.01202,74505
2.02137,86822
2.03070,105829
2.04003,125021
2.04938,132289
2.05872,102576
2.06807,81193
2.07740,74839
2.08673,102492
2.09608,132629
2.10542,98544
2.11475,67827
2.12410,61001
2.13343,90780
2.14277,214710
2.15212,243611
2.16145,187259
2.17078,129788
2.18013,119450
2.18947,172002
2.19880,186578
2.20815,127881
2.21748,82097
2.22683,85651
2.23617,123179
2.24550,150813
2.25485,358454
2.26418,1289044
2.27352,1546760
2.28287,1151982
2.29220,721614
2.30153,458524
2.31088,461937
2.32022,556234
2.32955,431109
2.33890,241329
2.34823,132420
2.35757,88120
2.36692,78048
2.37625,106324
2.38558,150870
2.39493,143234
2.40427,122383
2.41362,103514
2.42295,84160
2.43228,72215
2.44163,62358
2.45097,52499
2.46030,48458
2.46965,47042
2.47898,43730
2.48832,42681
2.49767,39697
2.50700,39590
2.51633,40152
2.52568,39337
2.53502,40419
2.54435,41361
2.55370,44641
2.56303,47046
2.57237,164367
2.58172,229437
2.59105,205277
2.60040,165971
2.60973,147680
2.61907,149395
2.62842,135493
2.63775,106293
2.64708,87141
2.65643,80189
2.66577,86384
2.67510,77840
2.68445,66332
2.69378,58745
2.70312,56632
2.71247,68858
2.72180,108907
2.73113,142483
2.74048,127493
2.74982,115349
2.75915,121736
2.76850,136409
2.77783,158729
2.78718,178073
2.79652,177774
2.80585,147787
2.81520,115051
2.82453,96986
2.83387,89113
2.84322,105646
2.85255,180665
2.86188,268453
2.87123,269280
2.88057,218949
2.88990,158585
2.89925,113593
2.90858,86664
2.91792,75251
2.92727,64115
2.93660,56709
2.94593,52743
2.95528,45281
2.96462,44273
2.97397,43439
2.98330,41962
2.99263,41881
3.00198,42987
3.01132,46492
3.02065,44453
3.03000,45255
3.03933,65149
3.04867,96478
3.05802,105377
3.06735,115446
3.07668,107056
3.08603,89534
3.09537,66900
3.10470,51505
3.11405,43301
3.12338,40739
3.13272,42116
3.14207,44618
3.15140,54783
3.16075,71440
3.17008,72552
3.17942,64545
3.18877,56714
3.19810,50528
3.20743,45529
3.21678,41676
3.22612,40846
3.23545,39271
3.24480,39643
3.25413,39020
3.26347,40614
3.27282,38536
3.28215,36043
3.29148,34834
3.30083,36438
3.31017,36866
3.31952,35472
3.32885,35322
3.33818,35064
3.34753,35618
3.35687,35444
3.36620,33442
3.37555,33872
3.38488,33300
3.39422,34875
3.40357,43937
3.41290,57901
3.42223,64758
3.43158,54039
3.44092,45986
3.45025,42339
3.45960,42763
3.46893,41350
3.47827,38748
3.48762,40769
3.49695,42687
3.50630,42571
3.51563,39692
3.52497,36504
3.53432,36097
3.54365,43806
3.55298,94279
3.56233,222074
3.57167,343789
3.58100,318740
3.59035,202690
3.59968,114461
3.60902,75358
3.61837,60510
3.62770,81165
3.63703,78563
3.64638,68249
3.65572,59391
3.66505,54800
3.67440,51445
3.68373,47400
3.69308,44562
3.70242,41560
3.71175,40890
3.72110,46581
3.73043,50493
3.73977,48367
3.74912,42464
3.75845,38453
3.76778,36596
3.77713,34494
3.78647,34482
3.79580,33354
3.80515,39279
3.81448,55155
3.82382,64553
3.83317,59941
3.84250,49453
3.85185,42340
3.86118,40931
3.87052,39005
3.87987,39657
3.88920,40945
3.89853,44068
3.90788,46813
3.91722,44130
3.92655,42446
3.93590,45283
3.94523,51139
3.95457,59050
3.96392,59492
3.97325,54485
3.98258,49144
3.99193,43694
4.00127,39142
4.01060,37998
4.01995,35551
4.02928,35750
4.03863,35316
4.04797,39171
4.05730,37690
4.06665,40395
4.07598,47695
4.08532,70001
4.09467,92577
4.10400,90716
4.11333,73816
4.12268,55235
4.13202,46274
4.14135,39445
4.15070,38557
4.16003,36819
4.16937,35437
4.17872,36502
4.18805,35690
4.19738,35497
4.20673,38478
4.21607,37124
4.22542,38679
4.23475,35806
4.24408,34476
4.25343,33835
4.26277,31674
4.27210,34988
4.28145,35512
4.29078,36154
4.30012,38531
4.30947,38179
4.31880,35388
4.32813,36498
4.33748,37054
4.34682,38509
4.35615,38760
4.36550,35407
4.37483,34789
4.38417,36018
4.39352,37544
4.40285,39243
4.41220,37637
4.42153,35384
4.43087,34069
4.44022,33350
4.44955,33278
4.45888,34544
4.46823,37202
4.47757,45160
4.48690,50352
4.49625,47072
4.50558,40868
4.51492,36799
4.52427,34475
4.53360,31641
4.54293,33262
4.55228,32789
4.56162,34416
4.57095,36202
4.58030,35187
4.58963,33664
4.59898,35377
4.60832,35601
4.61765,33811
4.62700,33959
4.63633,32548
4.64567,35647
4.65502,35583
4.66435,36875
4.67368,37682
4.68303,39530
4.69237,37899
4.70170,36246
4.71105,33869
4.72038,32946
4.72972,32677
4.73907,34994
4.74840,44679
4.75773,45897
4.76708,42091
4.77642,40979
4.78577,39002
4.79510,37645
4.80443,40210
4.81378,38701
4.82312,36990
4.83245,38128
4.84180,39365
4.85113,40065
4.86047,38199
4.86982,40698
4.87915,42782
4.88848,44450
4.89783,44799
4.90717,42655
4.91650,43068
4.92585,39848
4.93518,38690
4.94453,37281
4.95387,36990
4.96320,33227
4.97255,33526
4.98188,32180
4.99122,32303
5.00057,32870
5.00990,33721
5.01923,34927
5.02858,36207
5.03792,36821
5.04725,35831
5.05660,36427
5.06593,38195
5.07527,41986
5.08462,49226
5.09395,49162
5.10328,44360
5.11263,37797
5.12197,35411
5.13132,36547
5.14065,39757
5.14998,43334
5.15933,40795
5.16867,38574
5.17800,35962
5.18735,40159
5.19668,49049
5.20602,54106
5.21537,49129
5.22470,42660
5.23403,40093
5.24338,41040
5.25272,42646
5.26205,40912
5.27140,59642
5.28073,121698
5.29007,219754
5.29942,253088
5.30875,187344
5.31810,110574
5.32743,78068
5.33677,61339
5.34612,50199
5.35545,42290
5.36478,39995
5.37413,44276
5.38347,50434
5.39280,56131
5.40215,61100
5.41148,56703
5.42082,49520
5.43017,44093
5.43950,39611
5.44883,36746
5.45818,33991
5.46752,35289
5.47685,35082
5.48620,36068
5.49553,35259
5.50488,36874
5.51422,36110
5.52355,38384
5.53290,41351
5.54223,40181
5.55157,37882
5.56092,40614
5.57025,41902
5.57958,41536
5.58893,38236
5.59827,36343
5.60760,35664
5.61695,33256
5.62628,34005
5.63562,35174
5.64497,33669
5.65430,32578
5.66365,33184
5.67298,35558
5.68232,34195
5.69167,35969
5.70100,38608
5.71033,40957
5.71968,39343
5.72902,38738
5.73835,39485
5.74770,41144
5.75703,42355
5.76637,43540
5.77572,39023
5.78505,36509
5.79438,37125
5.80373,35518
5.81307,37639
5.82240,39120
5.83175,40823
5.84108,39179
5.85043,33109
5.85977,27689
5.86910,23994
5.87845,23339
5.88778,24656
5.89712,23932
5.90647,36217
5.91580,81659
5.92513,166233
5.93448,194670
5.94382,142780
5.95315,111486
5.96250,106633
5.97183,80977
5.98117,56063
5.99052,36450
5.99985,25193
6.00918,20074
6.01853,16975
6.02787,16592
6.03722,14106
6.04655,13926
6.05588,13544
6.06523,13859
6.07457,14797
6.08390,12567
6.09325,11137
6.10258,10528
6.11192,10346
6.12127,12875
6.13060,19401
6.13993,23933
6.14928,23407
6.15862,18147
6.16795,13798
6.17730,12409
6.18663,12183
6.19597,11721
6.20532,11974
6.21465,11594
6.22400,12605
6.23333,13347
6.24267,15486
6.25202,14495
6.26135,12200
6.27068,13358
6.28003,22602
6.28937,34056
6.29870,30282
6.30805,22183
6.31738,16098
6.32672,13304
6.33607,11561
6.34540,11644
6.35473,10713
6.36408,12533
6.37342,14993
6.38275,20779
6.39210,30401
6.40143,47585
6.41078,95843
6.42012,150611
6.42945,138054
6.43880,74521
6.44813,29541
6.45747,18015
6.46682,17215
6.47615,16939
6.48548,14776
6.49483,13951
6.50417,13799
6.51350,13915
6.52285,15428
6.53218,14747
6.54152,13569
6.55087,13388
6.56020,11388
6.56955,10661
6.57888,11974
6.58822,13326
6.59757,14097
6.60690,15882
6.61623,15985
6.62558,15400
6.63492,16484
6.64425,15323
6.65360,14478
6.66293,14377
6.67227,15728
6.68162,14286
6.69095,15002
6.70028,13067
6.70963,14249
6.71897,13483
6.72830,13857
6.73765,14271
6.74698,13531
6.75633,13239
6.76567,12973
6.77500,13928
6.78435,15442
6.79368,15807
6.80302,19130
6.81237,18460
6.82170,16427
6.83103,14801
6.84038,12562
6.84972,13013
6.85905,12072
6.86840,12407
6.87773,12086
6.88707,12262
6.89642,13555
6.90575,15216
6.91508,16890
6.92443,18767
6.93377,15531
6.94312,13667
6.95245,14391
6.96178,13832
6.97113,12135
6.98047,13183
6.98980,12778
6.99915,12191
7.00848,13523
7.01782,13861
7.02717,13101
7.03650,12667
7.04583,12231
7.05518,10654
7.06452,11136
7.07385,10980
7.08320,11301
7.09253,11334
7.10187,11876
7.11122,13854
7.12055,14955
7.12990,14153
7.13923,14961
7.14857,12525
7.15792,11835
7.16725,11819
7.17658,10937
7.18593,11638
7.19527,11794
7.20460,11482
7.21395,12633
7.22328,20711
7.23262,46050
7.24197,93556
7.25130,121308
7.26063,88861
7.26998,48027
7.27932,27896
7.28867,24761
7.29800,20764
7.30733,18776
7.31668,15041
7.32602,12071
7.33535,12021
7.34470,12857
7.35403,12192
7.36337,12290
7.37272,11227
7.38205,14114
7.39138,29135
7.40073,77830
7.41007,152041
7.41940,186294
7.42875,152700
7.43808,88509
7.44742,43816
7.45677,23628
7.46610,15574
7.47545,13582
7.48478,12868
7.49412,15332
7.50347,16723
7.51280,16991
7.52213,15915
7.53148,13897
7.54082,13150
7.55015,14196
7.55950,14291
7.56883,14844
7.57817,15941
7.58752,13580
7.59685,14274
7.60618,14097
7.61553,14081
7.62487,13531
7.63420,14854
7.64355,15244
7.65288,14574
7.66223,14488
7.67157,14305
7.68090,12436
7.69025,12946
7.69958,13247
7.70892,15103
7.71827,16136
7.72760,16142
7.73693,16470
7.74628,16950
7.75562,15367
7.76495,17129
7.77430,17000
7.78363,17071
7.79297,17303
7.80232,18575
7.81165,16255
7.82098,14720
7.83033,13628
7.83967,14164
7.84902,16858
7.85835,26962
7.86768,48483
7.87703,69096
7.88637,59992
7.89570,39901
7.90505,37194
7.91438,61786
7.92372,101841
7.93307,104042
7.94240,64189
7.95173,34191
7.96108,26638
7.97042,36125
7.97975,44386
7.98910,44931
7.99843,42671
8.00777,34554
8.01712,25678
8.02645,22253
8.03580,25277
8.04513,35707
8.05447,38906
8.06382,29546
8.07315,19541
8.08248,17785
8.09183,22523
8.10117,34585
8.11050,39454
8.11985,33093
8.12918,23227
8.13852,17629
8.14787,15564
8.15720,14512
8.16653,14749
8.17588,14307
8.18522,13157
8.19457,13437
8.20390,14214
8.21323,14840
8.22258,14599
8.23192,13336
8.24125,14036
8.25060,14569
8.25993,15356
8.26927,15678
8.27862,16041
8.28795,16016
8.29728,14443
8.30663,14060
8.31597,13194
8.32530,13171
8.33465,13424
8.34398,13373
8.35332,13601
8.36267,13396
8.37200,12005
8.38135,12748
8.39068,13363
8.40002,13677
8.40937,16615
8.41870,18034
8.42803,19741
8.43738,19384
8.44672,19208
8.45605,17079
8.46540,18515
8.47473,18686
8.48407,20459
8.49342,18980
8.50275,19480
8.51208,18259
8.52143,16695
8.53077,15707
8.54010,16046
8.54945,17007
8.55878,20392
8.56813,19258
8.57747,18658
8.58680,22209
8.59615,24925
8.60548,25558
8.61482,26499
8.62417,23637
8.63350,22572
8.64283,19975
8.65218,18144
8.66152,18434
8.67085,20060
8.68020,19982
8.68953,20656
8.69887,20482
8.70822,21892
8.71755,19791
8.72688,17669
8.73623,19576
8.74557,26994
8.75492,39368
8.76425,43916
8.77358,35097
8.78293,25931
8.79227,21568
8.80160,21710
8.81095,25279
8.82028,30818
8.82962,27304
8.83897,21563
8.84830,18664
8.85763,17833
8.86698,18836
8.87632,22419
8.88565,23035
8.89500,25467
8.90433,21781
8.91368,21706
8.92302,21174
8.93235,24404
8.94170,25174
8.95103,21685
8.96037,18106
8.96972,17955
8.97905,18839
8.98838,18346
8.99773,18186
9.00707,19782
9.01640,20492
9.02575,19856
9.03508,17886
9.04442,18977
9.05377,18921
9.06310,21839
9.07243,25282
9.08178,32790
9.09112,40245
9.10047,40730
9.10980,30606
9.11913,21264
9.12848,18143
9.13782,19604
9.14715,19647
9.15650,20488
9.16583,20164
9.17517,19549
9.18452,19865
9.19385,20025
9.20318,21758
9.21253,24521
9.22187,32785
9.23120,58372
9.24055,79810
9.24988,67944
9.25922,43524
9.26857,23406
9.27790,19556
9.28725,18139
9.29658,19304
9.30592,18858
9.31527,23190
9.32460,41392
9.33393,66731
9.34328,68684
9.35262,46874
9.36195,38420
9.37130,70643
9.38063,108839
9.38997,118478
9.39932,88498
9.40865,63049
9.41798,48757
9.42733,42476
9.43667,39791
9.44600,29613
9.45535,22163
9.46468,18473
9.47403,19067
9.48337,21479
9.49270,25801
9.50205,30206
9.51138,28058
9.52072,22876
9.53007,20184
9.53940,23722
9.54873,30976
9.55808,51386
9.56742,76766
9.57675,76083
9.58610,54374
9.59543,42585
9.60477,49348
9.61412,51378
9.62345,36540
9.63278,26124
9.64213,21663
9.65147,21576
9.66082,21314
9.67015,20592
9.67948,23168
9.68883,23684
9.69817,21525
9.70750,18185
9.71685,26065
9.72618,107793
9.73552,568445
9.74487,1612214
9.75420,2299033
9.76353,1788066
9.77288,875685
9.78222,373195
9.79155,206184
9.80090,142065
9.81023,112611
9.81957,96847
9.82892,100101
9.83825,107864
9.84760,121602
9.85693,121241
9.86627,94878
9.87562,73853
9.88495,74176
9.89428,86903
9.90363,99529
9.91297,150395
9.92230,301557
9.93165,379740
9.94098,273261
9.95032,132598
9.95967,69135
9.96900,54723
9.97833,81718
9.98768,148567
9.99702,183127
10.00637,138799
10.01570,76690
10.02503,49543
10.03438,40029
10.04372,36606
10.05305,37919
10.06240,43283
10.07173,49388
10.08107,53264
10.09042,48844
10.09975,40784
10.10908,40966
10.11843,84054
10.12777,184101
10.13710,268936
10.14645,449230
10.15578,1673668
10.16512,4513373
10.17447,6294535
10.18380,4482268
10.19315,1444145
10.20248,263729
10.21182,68284
10.22117,47512
10.23050,48057
10.23983,69823
10.24918,91809
10.25852,89947
10.26785,59842
10.27720,42360
10.28653,39428
10.29587,36733
10.30522,34236
10.31455,31725
10.32388,30231
10.33323,26705
10.34257,27294
10.35190,26759
10.36125,25567
10.37058,25793
10.37993,26492
10.38927,22923
10.39860,22449
10.40795,21315
10.41728,23334
10.42662,24103
10.43597,23635
10.44530,25517
10.45463,28811
10.46398,34102
10.47332,33146
10.48265,28573
10.49200,23089
10.50133,20191
10.51067,21368
10.52002,21437
10.52935,21430
10.53868,21982
10.54803,22932
10.55737,23008
10.56672,22920
10.57605,24845
10.58538,27600
10.59473,27282
10.60407,26983
10.61340,26398
10.62275,26623
10.63208,28404
10.64142,32243
10.65077,30715
10.66010,24271
10.66943,23586
10.67878,24826
10.68812,25001
10.69745,25530
10.70680,24521
10.71613,26805
10.72548,29788
10.73482,28475
10.74415,26418
10.75350,35322
10.76283,62180
10.77217,84711
10.78152,77439
10.79085,61371
10.80018,63624
10.80953,75697
10.81887,71129
10.82820,48611
10.83755,30966
10.84688,25459
10.85622,23725
10.86557,25791
10.87490,28182
10.88423,35628
10.89358,39681
10.90292,34367
10.91227,29638
10.92160,30691
10.93093,37909
10.94028,39390
10.94962,30112
10.95895,26223
10.96830,24317
10.97763,24458
10.98697,22423
10.99632,20392
11.00565,21633
11.01498,20380
11.02433,20816
11.03367,20813
11.04300,19536
11.05235,19495
11.06168,18473
11.07102,18512
11.08037,18684
11.08970,19235
11.09905,20568
11.10838,20929
11.11772,23578
11.12707,22717
11.13640,23637
11.14573,21287
11.15508,22249
11.16442,22006
11.17375,21899
11.18310,23407
11.19243,21199
11.20177,21016
11.21112,21767
11.22045,21326
11.22978,22353
11.23913,21088
11.24847,20896
11.25780,21707
11.26715,20708
11.27648,22441
11.28583,20925
11.29517,20180
11.30450,20660
11.31385,19062
11.32318,19994
11.33252,24554
11.34187,31050
11.35120,37710
11.36053,42659
11.36988,37883
11.37922,28636
11.38855,25924
11.39790,27928
11.40723,31349
11.41657,30510
11.42592,25155
11.43525,22394
11.44458,21335
11.45393,23025
11.46327,31307
11.47262,44563
11.48195,49100
11.49128,35152
11.50063,24748
11.50997,20404
11.51930,18904
11.52865,20492
11.53798,19526
11.54732,19900
11.55667,20943
11.56600,26322
11.57533,40835
11.58468,57362
11.59402,63524
11.60335,51345
11.61270,40269
11.62203,32439
11.63138,30239
11.64072,31935
11.65005,35549
11.65940,44446
11.66873,45817
11.67807,39919
11.68742,32366
11.69675,27547
11.70608,26049
11.71543,26849
11.72477,25424
11.73410,24325
11.74345,22964
11.75278,22474
11.76212,22344
11.77147,22996
11.78080,25669
11.79013,27715
11.79948,28101
11.80882,25136
11.81817,22289
11.82750,24673
11.83683,25436
11.84618,25811
11.85552,26576
11.86485,24020
11.87420,23195
11.88353,24897
11.89287,21865
11.90222,23536
11.91155,23338
11.92088,22091
11.93023,21886
11.93957,25087
11.94890,28801
11.95825,31649
11.96758,29025
11.97692,23197
11.98627,22097
11.99560,23736
12.00495,33960
12.01428,50394
12.02362,59984
12.03297,47697
12.04230,31548
12.05163,26581
12.06098,22609
12.07032,22341
12.07965,19263
12.08900,21433
12.09833,22085
12.10767,22199
12.11702,22163
12.12635,21732
12.13568,20390
12.14503,20712
12.15437,26259
12.16370,49557
12.17305,129620
12.18238,228716
12.19173,207849
12.20107,106089
12.21040,42640
12.21975,29924
12.22908,34261
12.23842,37472
12.24777,35173
12.25710,33534
12.26643,66157
12.27578,191213
12.28512,337224
12.29445,314820
12.30380,165428
12.31313,70695
12.32247,41890
12.33182,36412
12.34115,34182
12.35050,32458
12.35983,29766
12.36917,26226
12.37852,26307
12.38785,26772
12.39718,26656
12.40653,26627
12.41587,24744
12.42520,23921
12.43455,23508
12.44388,24188
12.45322,23998
12.46257,27420
12.47190,29143
12.48123,30781
12.49058,29006
12.49992,30010
12.50925,28544
12.51860,29920
12.52793,30354
12.53728,34036
12.54662,32828
12.55595,32289
12.56530,37452
12.57463,42768
12.58397,40243
12.59332,33864
12.60265,26611
12.61198,25192
12.62133,27475
12.63067,27899
12.64000,34000
12.64935,40060
12.65868,38846
12.66802,36944
12.67737,32330
12.68670,25413
12.69603,21247
12.70538,20499
12.71472,22558
12.72407,22512
12.73340,23866
12.74273,24876
12.75208,26580
12.76142,30425
12.77075,25882
12.78010,23232
12.78943,22678
12.79877,22497
12.80812,22284
12.81745,22024
12.82678,22763
12.83613,22365
12.84547,22173
12.85480,22064
12.86415,21762
12.87348,21054
12.88282,20416
12.89217,22874
12.90150,24962
12.91085,24137
12.92018,22082
12.92952,21595
12.93887,22541
12.94820,21959
12.95753,22738
12.96688,23287
12.97622,21595
12.98555,20136
12.99490,17512
13.00423,18573
13.01357,20276
13.02292,26209
13.03225,33427
13.04158,41940
13.05093,37086
13.06027,28631
13.06960,24555
13.07895,25883
13.08828,27408
13.09763,29686
13.10697,29126
13.11630,26266
13.12565,27372
13.13498,31257
13.14432,33414
13.15367,32616
13.16300,28947
13.17233,29421
13.18168,32898
13.19102,44563
13.20035,91036
13.20970,210660
13.21903,313309
13.22837,255906
13.23772,137490
13.24705,107695
13.25638,108958
13.26573,79251
13.27507,41776
13.28442,28164
13.29375,25090
13.30308,22407
13.31243,23867
13.32177,26935
13.33110,27657
13.34045,26651
13.34978,28958
13.35912,28512
13.36847,25323
13.37780,23797
13.38713,25250
13.39648,30683
13.40582,35800
13.41515,32815
13.42450,27066
13.43383,28144
13.44318,36521
13.45252,36530
13.46185,30785
13.47120,29325
13.48053,32782
13.48987,32931
13.49922,28438
13.50855,29447
13.51788,57411
13.52723,126197
13.53657,173779
13.54590,133105
13.55525,65278
13.56458,32875
13.57392,26697
13.58327,23654
13.59260,23376
13.60193,23420
13.61128,24282
13.62062,23450
13.62997,25119
13.63930,26235
13.64863,28553
13.65798,33786
13.66732,31371
13.67665,28020
13.68600,24142
13.69533,21976
13.70467,21355
13.71402,19352
13.72335,18924
13.73268,18903
13.74203,19146
13.75137,19951
13.76070,21517
13.77005,22185
13.77938,23371
13.78872,24463
13.79807,32757
13.80740,42781
13.81675,43074
13.82608,35353
13.83542,26912
13.84477,22603
13.85410,23515
13.86343,24537
13.87278,26568
13.88212,31463
13.89145,41258
13.90080,83210
13.91013,212292
13.91947,448072
13.92882,511897
13.93815,300954
13.94748,118711
13.95683,50153
13.96617,37542
13.97550,31305
13.98485,28054
13.99418,27137
14.00353,30351
14.01287,31470
14.02220,27432
14.03155,28822
14.04088,62347
14.05022,422908
14.05957,2346904
14.06890,7213100
14.07823,1.253836E+07
14.08758,1.215568E+07
14.09692,5556961
14.10625,1025066
14.11560,136323
14.12493,55575
14.13427,45963
14.14362,45417
14.15295,48656
14.16230,56553
14.17163,63425
14.18097,76132
14.19032,121288
14.19965,201166
14.20898,199629
14.21833,121408
14.22767,58305
14.23700,34983
14.24635,29034
14.25568,28584
14.26502,27127
14.27437,29539
14.28370,28085
14.29303,25031
14.30238,24503
14.31172,26444
14.32105,36821
14.33040,49677
14.33973,57619
14.34908,51563
14.35842,40423
14.36775,30140
14.37710,24714
14.38643,23798
14.39577,24816
14.40512,26174
14.41445,23762
14.42378,20595
14.43313,20751
14.44247,22473
14.45180,27136
14.46115,39607
14.47048,53408
14.47982,53793
14.48917,40631
14.49850,30794
14.50783,26197
14.51718,21639
14.52652,19675
14.53587,19930
14.54520,20787
14.55453,20320
14.56388,20494
14.57322,21267
14.58255,22369
14.59190,20842
14.60123,20920
14.61057,19595
14.61992,20982
14.62925,20559
14.63858,21539
14.64793,28060
14.65727,35760
14.66660,38770
14.67595,35959
14.68528,30673
14.69462,25770
14.70397,25709
14.71330,22170
14.72265,23129
14.73198,24133
14.74132,24768
14.75067,22854
14.76000,23135
14.76933,22278
14.77868,20592
14.78802,21161
14.79735,19995
14.80670,22470
14.81603,22234
14.82537,22474
14.83472,22814
14.84405,21253
14.85338,22273
14.86273,28364
14.87207,43922
14.88140,50293
14.89075,41342
14.90008,27853
14.90943,23530
14.91877,22568
14.92810,22094
14.93745,22468
14.94678,21722
14.95612,22203
14.96547,24375
14.97480,29482
14.98413,29360
14.99348,28228
15.00282,28512
15.01215,31019
15.02150,33339
15.03083,29607
15.04017,27176
15.04952,29536
15.05885,31404
15.06820,33164
15.07753,35782
15.08687,29786
15.09622,24439
15.10555,21878
15.11488,21685
15.12423,28722
15.13357,36216
15.14290,39156
15.15225,31385
15.16158,22963
15.17092,20681
15.18027,20209
15.18960,22067
15.19893,31001
15.20828,49150
15.21762,72793
15.22695,81657
15.23630,66686
15.24563,41696
15.25498,28129
15.26432,23129
15.27365,23345
15.28300,23874
15.29233,22869
15.30167,20738
15.31102,23418
15.32035,22212
15.32968,24574
15.33903,28773
15.34837,26934
15.35770,24768
15.36705,27054
15.37638,29882
15.38572,28328
15.39507,24342
15.40440,21137
15.41373,21686
15.42308,25973
15.43242,28608
15.44177,26060
15.45110,22857
15.46043,20545
15.46978,19870
15.47912,22002
15.48845,26577
15.49780,29512
15.50713,40277
15.51647,59152
15.52582,72739
15.53515,62542
15.54448,42659
15.55383,29611
15.56317,23260
15.57250,23284
15.58185,22953
15.59118,23774
15.60052,26389
15.60987,26815
15.61920,27848
15.62855,29374
15.63788,31764
15.64722,32692
15.65657,36463
15.66590,41506
15.67523,38578
15.68458,31454
15.69392,31515
15.70325,44267
15.71260,52459
15.72193,44595
15.73127,31257
15.74062,28787
15.74995,34318
15.75928,37551
15.76863,38357
15.77797,35860
15.78732,29347
15.79665,28340
15.80598,45895
15.81533,125368
15.82467,317499
15.83400,533270
15.84335,627643
15.85268,496127
15.86202,272385
15.87137,127447
15.88070,77559
15.89003,64983
15.89938,64832
15.90872,64047
15.91805,53165
15.92740,41975
15.93673,36655
15.94607,32589
15.95542,30507
15.96475,31173
15.97410,32652
15.98343,46302
15.99277,60842
16.00212,65262
16.01145,52471
16.02078,38834
16.03013,30022
16.03947,26920
16.04880,28277
16.05815,30673
16.06748,31757
16.07682,32167
16.08617,28528
16.09550,26590
16.10483,29153
16.11418,33126
16.12352,35780
16.13285,34065
16.14220,31008
16.15153,28202
16.16088,27751
16.17022,25081
16.17955,25695
16.18890,25707
16.19823,27169
16.20757,30856
16.21692,31582
16.22625,31270
16.23558,31229
16.24493,31727
16.25427,30877
16.26360,29206
16.27295,37067
16.28228,65391
16.29162,148878
16.30097,248177
16.31030,249076
16.31963,142269
16.32898,61888
16.33832,33722
16.34767,26683
16.35700,23693
16.36633,22404
16.37568,21544
16.38502,22006
16.39435,22869
16.40370,24458
16.41303,24687
16.42237,25343
16.43172,24604
16.44105,25830
16.45038,32479
16.45973,38138
16.46907,39979
16.47840,33812
16.48775,33219
16.49708,32832
16.50642,31413
16.51577,35175
16.52510,33895
16.53445,32803
16.54378,26824
16.55312,26039
16.56247,24483
16.57180,24829
16.58113,27038
16.59048,29738
16.59982,28187
16.60915,28066
16.61850,31424
16.62783,35762
16.63717,38907
16.64652,40125
16.65585,37434
16.66518,33863
16.67453,29444
16.68387,32225
16.69320,38266
16.70255,43501
16.71188,37710
16.72123,29651
16.73057,30665
16.73990,50242
16.74925,103568
16.75858,135574
16.76792,99967
16.77727,51430
16.78660,30148
16.79593,25841
16.80528,23700
16.81462,25146
16.82395,29652
16.83330,35309
16.84263,35623
16.85197,29510
16.86132,26291
16.87065,22938
16.88000,22974
16.88933,23880
16.89867,25128
16.90802,33093
16.91735,44101
16.92668,45517
16.93603,38543
16.94537,36548
16.95470,40767
16.96405,48027
16.97338,50209
16.98272,39992
16.99207,30204
17.00140,24408
17.01073,25919
17.02008,36250
17.02942,66144
17.03875,100876
17.04810,95062
17.05743,57983
17.06678,37488
17.07612,32803
17.08545,30259
17.09480,29494
17.10413,28377
17.11347,26190
17.12282,26290
17.13215,28704
17.14148,32651
17.15083,31641
17.16017,28212
17.16950,24501
17.17885,23130
17.18818,22749
17.19752,24815
17.20687,23094
17.21620,20195
17.22553,22618
17.23488,21815
17.24422,22682
17.25357,23617
17.26290,25332
17.27223,31827
17.28158,35846
17.29092,40328
17.30025,36995
17.30960,31696
17.31893,30573
17.32827,31856
17.33762,30895
17.34695,26357
17.35628,26508
17.36563,33594
17.37497,69182
17.38430,170531
17.39365,255677
17.40298,203945
17.41232,100190
17.42167,51381
17.43100,38861
17.44035,34913
17.44968,33239
17.45902,32530
17.46837,29983
17.47770,31489
17.48703,74820
17.49638,402379
17.50572,1661850
17.51505,3794697
17.52440,4216713
17.53373,2347475
17.54307,625349
17.55242,118046
17.56175,44288
17.57108,40225
17.58043,42608
17.58977,47323
17.59912,43954
17.60845,37001
17.61778,30826
17.62713,30668
17.63647,28792
17.64580,29845
17.65515,33422
17.66448,40644
17.67382,42765
17.68317,46290
17.69250,51218
17.70183,51837
17.71118,48302
17.72052,41906
17.72985,38125
17.73920,33355
17.74853,35092
17.75787,40585
17.76722,42656
17.77655,46940
17.78590,42248
17.79523,36501
17.80457,33729
17.81392,31676
17.82325,29338
17.83258,26435
17.84193,29276
17.85127,34259
17.86060,48467
17.86995,55219
17.87928,52619
17.88862,45705
17.89797,39882
17.90730,36672
17.91663,29552
17.92598,25689
17.93532,26658
17.94465,25976
17.95400,25142
17.96333,24617
17.97268,25384
17.98202,24366
17.99135,25017
18.00070,25618
18.01003,23577
18.01937,24913
18.02872,25325
18.03805,23540
18.04738,26530
18.05673,29747
18.06607,27213
18.07540,25991
18.08475,24314
18.09408,25400
18.10342,27654
18.11277,29411
18.12210,30894
18.13143,31674
18.14078,33124
18.15012,32729
18.15947,31265
18.16880,28466
18.17813,28084
18.18748,26077
18.19682,23743
18.20615,23335
18.21550,25066
18.22483,26753
18.23417,26671
18.24352,25960
18.25285,24450
18.26218,23646
18.27153,27171
18.28087,28856
18.29020,32789
18.29955,36307
18.30888,36578
18.31822,36594
18.32757,34973
18.33690,40140
18.34625,46243
18.35558,53261
18.36492,53440
18.37427,45991
18.38360,37847
18.39293,42042
18.40228,60337
18.41162,79779
18.42095,81501
18.43030,65941
18.43963,54679
18.44897,54418
18.45832,51683
18.46765,40747
18.47698,32755
18.48633,33803
18.49567,43137
18.50502,64421
18.51435,77046
18.52368,71400
18.53303,59349
18.54237,46820
18.55170,45272
18.56105,43863
18.57038,37793
18.57972,30774
18.58907,27342
18.59840,29709
18.60773,36615
18.61708,42749
18.62642,41260
18.63575,37911
18.64510,33139
18.65443,31975
18.66377,31514
18.67312,34065
18.68245,35527
18.69180,36854
18.70113,39173
18.71047,43806
18.71982,46175
18.72915,41983
18.73848,38508
18.74783,35574
18.75717,32599
18.76650,29729
18.77585,26605
18.78518,26903
18.79452,24664
18.80387,26635
18.81320,28606
18.82253,29032
18.83188,28847
18.84122,27297
18.85055,27304
18.85990,26473
18.86923,25948
18.87858,26190
18.88792,25100
18.89725,27583
18.90660,36022
18.91593,44577
18.92527,49124
18.93462,44194
18.94395,41903
18.95328,45586
18.96263,52867
18.97197,49238
18.98130,43624
18.99065,35745
18.99998,32507
19.00932,30081
19.01867,29561
19.02800,30116
19.03733,35054
19.04668,57372
19.05602,86482
19.06537,98939
19.07470,98892
19.08403,108297
19.09338,114195
19.10272,92295
19.11205,64454
19.12140,42519
19.13073,29274
19.14007,26096
19.14942,24564
19.15875,23433
19.16808,23989
19.17743,25948
19.18677,28926
19.19610,34693
19.20545,38165
19.21478,39910
19.22413,37161
19.23347,36651
19.24280,33190
19.25215,29255
19.26148,26763
19.27082,27597
19.28017,30759
19.28950,31174
19.29883,34715
19.30818,41037
19.31752,48316
19.32685,47206
19.33620,39984
19.34553,31895
19.35487,26571
19.36422,24701
19.37355,23645
19.38288,24564
19.39223,24482
19.40157,25398
19.41092,26710
19.42025,26505
19.42958,24310
19.43893,23297
19.44827,22211
19.45760,23770
19.46695,24403
19.47628,26988
19.48562,31120
19.49497,31315
19.50430,31214
19.51363,27075
19.52298,24627
19.53232,26387
19.54165,26326
19.55100,24442
19.56033,24508
19.56967,26722
19.57902,32248
19.58835,36425
19.59770,36602
19.60703,31957
19.61637,29105
19.62572,29260
19.63505,37815
19.64438,41506
19.65373,37702
19.66307,30132
19.67240,26491
19.68175,27582
19.69108,27542
19.70042,25141
19.70977,26347
19.71910,36666
19.72843,53654
19.73778,65475
19.74712,61718
19.75645,44819
19.76580,33921
19.77513,33509
19.78448,33969
19.79382,33906
19.80315,32123
19.81250,30591
19.82183,27386
19.83117,26822
19.84052,26433
19.84985,23959
19.85918,25601
19.86853,36864
19.87787,56191
19.88720,65568
19.89655,51380
19.90588,37081
19.91522,30664
19.92457,30518
19.93390,28040
19.94323,27357
19.95258,25743
19.96192,26895
19.97127,28412
19.98060,26022
19.98993,25028
19.99928,24918
20.00862,24561
20.01795,28231
20.02730,31272
20.03663,32191
20.04597,32609
20.05532,32075
20.06465,30809
20.07398,32023
20.08333,34371
20.09267,32210
20.10200,29565
20.11135,24881
20.12068,24432
20.13003,22045
20.13937,27066
20.14870,33448
20.15805,40109
20.16738,41042
20.17672,36269
20.18607,28989
20.19540,25588
20.20473,25477
20.21408,26263
20.22342,25880
20.23275,25599
20.24210,24520
20.25143,22761
20.26077,23168
20.27012,23627
20.27945,24191
20.28878,24351
20.29813,22975
20.30747,23637
20.31682,21438
20.32615,22161
20.33548,23364
20.34483,22681
20.35417,23489
20.36350,25629
20.37285,25512
20.38218,24679
20.39152,23941
20.40087,23392
20.41020,22742
20.41953,22745
20.42888,22664
20.43822,23717
20.44755,25060
20.45690,25528
20.46623,30989
20.47557,38594
20.48492,38843
20.49425,32917
20.50360,25533
20.51293,23494
20.52227,25431
20.53162,24320
20.54095,23886
20.55028,27953
20.55963,47337
20.56897,133262
20.57830,289556
20.58765,367813
20.59698,235456
20.60632,93305
20.61567,40839
20.62500,31084
20.63433,28307
20.64368,30654
20.65302,31833
20.66235,31452
20.67170,30103
20.68103,31496
20.69038,32501
20.69972,31640
20.70905,31818
20.71840,30984
20.72773,31442
20.73707,29095
20.74642,28500
20.75575,26646
20.76508,27129
20.77443,25445
20.78377,25763
20.79310,29541
20.80245,32560
20.81178,33208
20.82112,29992
20.83047,25855
20.83980,25890
20.84915,24448
20.85848,22834
20.86782,21509
20.87717,23647
20.88650,26062
20.89583,25707
20.90518,26896
20.91452,27096
20.92385,25456
20.93320,24555
20.94253,23385
20.95187,23212
20.96122,23785
20.97055,22972
20.97988,23853
20.98923,22831
20.99857,23143
21.00790,21967
21.01725,24040
21.02658,22502
21.03593,23849
21.04527,24092
21.05460,25254
21.06395,24360
21.07328,25588
21.08262,24215
21.09197,23968
21.10130,24844
21.11063,28586
21.11998,29282
21.12932,29748
21.13865,28720
21.14800,26291
21.15733,25583
21.16667,27168
21.17602,28163
21.18535,32955
21.19468,34119
21.20403,33693
21.21337,30926
21.22272,29046
21.23205,28807
21.24138,28803
21.25073,27510
21.26007,27307
21.26940,29080
21.27875,31215
21.28808,32475
21.29742,33873
21.30677,31560
21.31610,29548
21.32543,28668
21.33478,29023
21.34412,26675
21.35345,27216
21.36280,27774
21.37213,25246
21.38147,23203
21.39082,24254
21.40015,24704
21.40950,26471
21.41883,28003
21.42817,28497
21.43752,28099
21.44685,25894
21.45618,28172
21.46553,25586
21.47487,27089
21.48420,30074
21.49355,28842
21.50288,27404
21.51222,27236
21.52157,25773
21.53090,25269
21.54023,23797
21.54958,24700
21.55892,26517
21.56825,30811
21.57760,33775
21.58693,32387
21.59628,32554
21.60562,28794
21.61495,28510
21.62430,28899
21.63363,27843
21.64297,27763
21.65232,26100
21.66165,26151
21.67098,28913
21.68033,34067
21.68967,35443
21.69900,34242
21.70835,32217
21.71768,32056
21.72702,31952
21.73637,31539
21.74570,30172
21.75503,27532
21.76438,26173
21.77372,26038
21.78307,25464
21.79240,25257
21.80173,25815
21.81108,27796
21.82042,29960
21.82975,30949
21.83910,31001
21.84843,30624
21.85777,28188
21.86712,26957
21.87645,29824
21.88578,33839
21.89513,35346
21.90447,35641
21.91380,35177
21.92315,32623
21.93248,30065
21.94183,29386
21.95117,28539
21.96050,31311
21.96985,34291
21.97918,35637
21.98852,39758
21.99787,43268
22.00720,39444
22.01653,34420
22.02588,32456
22.03522,32917
22.04455,33490
22.05390,32695
22.06323,32282
22.07257,32086
22.08192,33193
22.09125,33278
22.10058,32128
22.10993,32421
22.11927,30958
22.12862,31393
22.13795,29489
22.14728,31551
22.15663,35073
22.16597,41676
22.17530,45409
22.18465,44203
22.19398,37137
22.20332,30580
22.21267,28954
22.22200,31526
22.23133,33222
22.24068,30202
22.25002,31645
22.25935,32521
22.26870,31155
22.27803,30331
22.28737,33186
22.29672,35294
22.30605,33907
22.31540,29775
22.32473,26931
22.33407,27623
22.34342,27920
22.35275,28632
22.36208,27875
22.37143,28675
22.38077,27634
22.39010,27810
22.39945,27162
22.40878,26575
22.41812,24470
22.42747,24651
22.43680,26081
22.44613,26180
22.45548,28817
22.46482,28646
22.47415,30698
22.48350,29885
22.49283,28710
22.50218,26871
22.51152,27354
22.52085,26785
22.53020,28942
22.53953,28571
22.54887,26770
22.55822,26135
22.56755,27307
22.57688,29920
22.58623,30449
22.59557,29707
22.60490,31030
22.61425,30564
22.62358,30074
22.63292,28133
22.64227,28959
22.65160,27787
22.66095,26086
22.67028,26567
22.67962,27131
22.68897,28502
22.69830,32288
22.70763,31537
22.71698,28756
22.72632,28509
22.73565,28978
22.74500,30257
22.75433,33634
22.76367,36290
22.77302,36221
22.78235,31836
22.79168,29325
22.80103,27939
22.81037,27923
22.81970,26779
22.82905,26429
22.83838,27731
22.84773,29041
22.85707,29040
22.86640,28948
22.87575,28694
22.88508,26337
22.89442,28991
22.90377,27931
22.91310,27206
22.92243,27509
22.93178,26974
22.94112,26799
22.95045,26549
22.95980,27542
22.96913,26974
22.97847,25581
22.98782,26311
22.99715,26698
23.00648,27327
23.01583,24657
23.02517,25050
23.03452,25434
23.04385,24666
23.05318,25033
23.06253,24911
23.07187,26380
23.08120,26021
23.09055,27734
23.09988,24408
23.10922,24756
23.11857,25210
23.12790,24055
23.13723,23987
23.14658,25316
23.15592,24540
23.16525,25407
23.17460,26353
23.18393,24655
23.19327,25500
23.20262,24553
23.21195,24900
23.22130,25119
23.23063,24227
23.23997,25671
23.24932,25244
23.25865,28227
23.26798,28014
23.27733,26775
23.28667,26540
23.29600,25582
23.30535,25889
23.31468,25616
23.32402,29522
23.33337,37082
23.34270,42475
23.35203,37613
23.36138,32731
23.37072,27256
23.38005,26601
23.38940,27277
23.39873,25830
23.40808,26042
23.41742,27534
23.42675,26951
23.43610,27290
23.44543,26568
23.45477,26904
23.46412,27889
23.47345,27677
23.48278,27272
23.49213,27356
23.50147,25838
23.51080,26253
23.52015,26550
23.52948,26600
23.53882,27970
23.54817,27429
23.55750,26958
23.56685,25623
23.57618,27096
23.58552,25818
23.59487,27734
23.60420,26590
23.61353,26339
23.62288,24534
23.63222,25745
23.64155,23127
23.65090,26164
23.66023,25685
23.66957,26817
23.67892,25337
23.68825,24899
23.69758,25412
23.70693,25726
23.71627,24808
23.72560,26983
23.73495,26171
23.74428,27155
23.75363,25668
23.76297,25856
23.77230,26298
23.78165,25588
23.79098,24282
23.80032,25120
23.80967,25970
23.81900,25335
23.82833,25899
23.83768,25587
23.84702,24726
23.85635,25510
23.86570,26378
23.87503,26193
23.88437,25794
23.89372,25465
23.90305,25313
23.91238,25799
23.92173,25658
23.93107,24595
23.94042,26826
23.94975,25639
23.95908,25703
23.96843,24456
23.97777,25261
23.98710,26680
23.99645,25725
24.00578,27436
24.01512,28218
24.02447,27011
24.03380,27198
24.04313,24767
24.05248,25966
24.06182,22710
24.07115,24931
24.08050,26177
24.08983,25022
24.09917,25933
24.10852,27018
24.11785,25649
24.12720,25644
24.13653,25784
24.14587,25764
24.15522,25699
24.16455,26062
24.17388,25132
24.18323,25175
24.19257,26280
24.20190,25792
24.21125,24451
24.22058,26333
24.22992,26506
24.23927,26876
24.24860,26180
24.25793,25219
24.26728,26239
24.27662,26932
24.28597,26148
24.29530,25527
24.30463,27209
24.31398,27341
24.32332,28164
24.33265,28039
24.34200,28690
24.35133,26360
24.36067,25802
24.37002,26554
24.37935,26918
24.38868,29073
24.39803,27636
24.40737,27626
24.41670,27029
24.42605,25348
24.43538,24888
24.44472,24297
24.45407,24791
24.46340,25560
24.47275,25504
24.48208,26147
24.49142,25224
24.50077,25638
24.51010,26458
24.51943,27353
24.52878,27182
24.53812,27332
24.54745,26767
24.55680,27217
24.56613,26593
24.57547,26011
24.58482,27211
24.59415,28239
24.60348,28303
24.61283,29595
24.62217,31382
24.63150,29727
24.64085,29191
24.65018,28746
24.65953,28655
24.66887,27854
24.67820,29117
24.68755,27612
24.69688,28370
24.70622,28282
24.71557,29333
24.72490,28636
24.73423,28915
24.74358,26913
24.75292,26575
24.76225,26905
24.77160,27706
24.78093,27296
24.79027,28278
24.79962,27425
24.80895,27073
24.81828,27863
24.82763,28134
24.83697,28420
24.84632,27435
24.85565,28362
24.86498,27302
24.87433,29797
24.88367,30420
24.89300,29750
24.90235,29574
24.91168,30542
24.92102,31642
24.93037,29317
24.93970,30149
24.94903,28561
24.95838,29276
24.96772,31428
24.97705,30115
24.98640,28851
24.99573,31183
25.00507,29674
25.01442,29857
25.02375,29806
25.03310,29652
25.04243,29038
25.05177,28437
25.06112,28633
25.07045,28713
25.07978,29726
25.08913,27967
25.09847,28307
25.10780,27796
25.11715,29317
25.12648,30303
25.13582,30371
25.14517,30248
25.15450,29683
25.16383,29930
25.17318,30700
25.18252,30083
25.19187,30426
25.20120,31285
25.21053,28107
25.21988,29820
25.22922,29530
25.23855,29242
25.24790,29333
25.25723,30300
25.26657,28625
25.27592,31013
25.28525,29649
25.29458,28779
25.30393,30617
25.31327,35116
25.32260,49156
25.33195,65550
25.34128,65979
25.35062,51857
25.35997,40778
25.36930,37630
25.37865,34201
25.38798,33696
25.39732,34231
25.40667,33877
25.41600,32459
25.42533,33242
25.43468,34291
25.44402,34971
25.45335,35281
25.46270,33530
25.47203,35379
25.48137,36512
25.49072,39646
25.50005,39411
25.50938,39307
25.51873,40702
25.52807,38908
25.53740,38640
25.54675,41024
25.55608,37932
25.56543,37954
25.57477,37349
25.58410,36048
25.59345,34618
25.60278,33665
25.61212,34020
25.62147,33753
25.63080,32966
25.64013,32917
25.64948,34708
25.65882,34491
25.66815,35291
25.67750,34860
25.68683,32261
25.69617,32941
25.70552,30369
25.71485,32591
25.72418,31210
25.73353,32092
25.74287,33937
25.75222,32870
25.76155,33342
25.77088,34038
25.78023,32095
25.78957,34230
25.79890,35571
25.80825,38325
25.81758,36519
25.82692,35950
25.83627,34987
25.84560,35821
25.85493,33883
25.86428,33269
25.87362,32507
25.88295,33079
25.89230,32315
25.90163,32319
25.91097,33726
25.92032,31569
25.92965,31241
25.93900,31030
25.94833,31429
25.95767,33564
25.96702,33489
25.97635,33696
25.98568,31188
25.99503,31823
26.00437,32245
26.01370,31808
26.02305,30887
26.03238,30980
26.04172,30542
26.05107,31671
26.06040,32407
26.06973,32587
26.07908,30546
26.08842,31340
26.09777,31520
26.10710,31799
26.11643,32411
26.12578,33772
26.13512,33672
26.14445,36551
26.15380,34604
26.16313,35246
26.17247,33060
26.18182,32859
26.19115,33222
26.20048,31701
26.20983,31358
26.21917,31644
26.22850,33174
26.23785,31719
26.24718,31997
26.25652,30946
26.26587,30975
26.27520,31956
26.28455,31670
26.29388,29885
26.30322,32802
26.31257,30768
26.32190,32608
26.33123,31899
26.34058,31862
26.34992,30575
26.35925,32107
26.36860,32003
26.37793,31170
26.38727,33393
26.39662,32611
26.40595,31896
26.41528,30718
26.42463,31135
26.43397,30854
26.44330,32834
26.45265,33310
26.46198,32958
26.47133,33206
26.48067,30953
26.49000,34392
26.49935,33883
26.50868,34200
26.51802,32829
26.52737,32130
26.53670,33352
26.54603,33504
26.55538,33213
26.56472,32718
26.57405,33077
26.58340,32457
26.59273,32607
26.60207,33382
26.61142,32670
26.62075,31559
26.63008,32525
26.63943,33047
26.64877,33262
26.65812,33110
26.66745,31894
26.67678,33607
26.68613,33170
26.69547,33726
26.70480,34205
26.71415,33417
26.72348,34575
26.73282,34162
26.74217,34366
26.75150,34941
26.76083,34359
26.77018,35983
26.77952,35721
26.78885,34371
26.79820,35857
26.80753,33388
26.81687,33544
26.82622,35788
26.83555,35572
26.84490,38207
26.85423,38680
26.86357,37605
26.87292,34501
26.88225,36828
26.89158,34857
26.90093,35894
26.91027,35433
26.91960,34862
26.92895,35070
26.93828,33390
26.94762,33790
26.95697,34530
26.96630,34545
26.97563,35064
26.98498,34954
26.99432,34691
27.00367,35321
27.01300,36288
27.02233,35847
27.03168,36249
27.04102,37323
27.05035,34524
27.05970,34290
27.06903,34108
27.07837,35686
27.08772,34843
27.09705,34446
27.10638,35984
27.11573,34178
27.12507,35468
27.13440,36854
27.14375,34623
27.15308,36658
27.16242,34616
27.17177,35316
27.18110,36500
27.19045,35997
27.19978,35513
27.20912,34940
27.21847,35910
27.22780,36688
27.23713,35162
27.24648,38006
27.25582,38737
27.26515,38467
27.27450,38721
27.28383,35882
27.29317,37817
27.30252,37754
27.31185,37144
27.32118,36246
27.33053,37818
27.33987,37712
27.34920,37343
27.35855,37637
27.36788,34870
27.37723,35344
27.38657,36158
27.39590,38775
27.40525,36576
27.41458,35800
27.42392,37333
27.43327,36583
27.44260,38869
27.45193,38004
27.46128,39860
27.47062,37037
27.47995,39426
27.48930,39879
27.49863,41018
27.50797,41574
27.51732,44289
27.52665,44136
27.53598,41890
27.54533,42050
27.55467,41326
27.56402,40819
27.57335,39505
27.58268,40697
27.59203,40231
27.60137,39271
27.61070,40526
27.62005,36377
27.62938,39805
27.63872,37256
27.64807,38669
27.65740,39747
27.66673,43222
27.67608,51439
27.68542,58116
27.69475,55213
27.70410,49677
27.71343,46243
27.72278,42224
27.73212,41020
27.74145,41858
27.75080,40674
27.76013,40992
27.76947,39740
27.77882,40021
27.78815,40599
27.79748,41078
27.80683,42620
27.81617,41982
27.82550,42300
27.83485,41586
27.84418,40837
27.85352,40228
27.86287,40354
27.87220,39935
27.88153,39290
27.89088,40726
27.90022,40773
27.90957,41641
27.91890,40880
27.92823,39343
27.93758,43469
27.94692,40666
27.95625,40212
27.96560,40650
27.97493,40045
27.98427,40625
27.99362,39916
28.00295,41164
28.01228,42163
28.02163,41309
28.03097,40563
28.04030,42023
28.04965,41489
28.05898,40389
28.06832,40620
28.07767,41747
28.08700,42263
28.09635,41196
28.10568,42225
28.11502,42209
28.12437,44664
28.13370,43420
28.14303,45235
28.15238,43516
28.16172,41930
28.17105,41564
28.18040,42155
28.18973,42418
28.19907,43145
28.20842,41942
28.21775,43375
28.22708,44040
28.23643,44668
28.24577,42737
28.25510,43493
28.26445,42544
28.27378,44202
28.28313,44030
28.29247,43632
28.30180,43256
28.31115,42661
28.32048,43681
28.32982,42672
28.33917,44275
28.34850,42352
28.35783,41666
28.36718,41959
28.37652,43599
28.38585,41607
28.39520,43286
28.40453,43184
28.41387,42031
28.42322,42488
28.43255,42855
28.44188,43646
28.45123,44127
28.46057,45591
28.46992,44242
28.47925,42828
28.48858,44370
28.49793,45839
28.50727,45854
28.51660,45312
28.52595,47164
28.53528,46083
28.54462,47784
28.55397,46313
28.56330,47343
28.57263,45702
28.58198,48789
28.59132,46043
28.60065,46647
28.61000,45684
28.61933,47498
28.62868,47861
28.63802,46759
28.64735,46343
28.65670,47912
28.66603,48591
28.67537,54377
28.68472,61279
28.69405,58291
28.70338,53809
28.71273,50870
28.72207,50392
28.73140,50568
28.74075,46806
28.75008,48838
28.75942,49057
28.76877,50397
28.77810,49631
28.78743,48400
28.79678,48488
28.80612,48531
28.81547,48782
28.82480,49437
28.83413,49892
28.84348,49405
28.85282,50919
28.86215,51838
28.87150,50577
28.88083,48472
28.89017,49617
28.89952,51347
28.90885,50452
28.91818,50857
28.92753,49023
28.93687,49423
28.94620,49341
28.95555,49689
28.96488,51270
28.97422,50275
28.98357,49350
28.99290,52397
29.00225,49597
29.01158,49575
29.02092,50623
29.03027,51786
29.03960,51875
29.04893,51421
29.05828,51200
29.06762,49730
29.07695,51617
29.08630,50849
29.09563,50922
29.10497,52209
29.11432,51635
29.12365,52548
29.13298,54344
29.14233,53156
29.15167,53319
29.16100,52957
29.17035,51818
29.17968,51523
29.18903,53481
29.19837,54082
29.20770,56933
29.21705,57681
29.22638,54566
29.23572,52549
29.24507,52923
29.25440,52455
29.26373,52451
29.27308,52968
29.28242,53332
29.29175,52678
29.30110,54743
29.31043,56229
29.31977,54455
29.32912,52528
29.33845,50677
29.34780,54304
29.35713,53765
29.36647,52581
29.37582,53787
29.38515,56006
29.39448,52489
29.40383,55113
29.41317,55010
29.42250,54281
29.43185,55999
29.44118,54199
29.45052,55641
29.45987,58136
29.46920,61254
29.47853,61401
29.48788,59324
29.49722,58039
29.50655,56749
29.51590,55182
29.52523,54282
29.53458,56204
29.54392,54758
29.55325,54602
29.56260,54883
29.57193,55533
29.58127,52514
29.59062,54186
29.59995,55144
29.60928,54417
29.61863,56991
29.62797,55135
29.63730,54605
29.64665,55871
29.65598,55160
29.66532,57329
29.67467,53549
29.68400,56485
29.69333,55209
29.70268,56825
29.71202,55803
29.72137,56695
29.73070,54433
29.74003,55749
29.74938,58332
29.75872,53559
29.76805,53313
29.77740,55466
29.78673,53762
29.79607,54191
29.80542,56027
29.81475,52349
29.82408,54378
29.83343,54958
29.84277,56126
29.85210,53828
29.86145,54152
29.87078,53094
29.88012,52855
29.88947,54772
29.89880,54825
29.90815,53086
29.91748,55321
29.92682,56348
29.93617,55416
29.94550,52977
29.95483,54066
29.96418,55285
29.97352,55816
29.98285,55483
29.99220,58585
30.00153,58457
30.01087,55794
30.02022,57866
30.02955,57015
30.03888,56916
30.04823,56644
30.05757,54336
30.06690,55416
30.07625,57032
30.08558,56471
30.09493,56103
30.10427,56832
30.11360,56796
30.12295,59068
30.13228,58999
30.14162,60476
30.15097,62552
30.16030,61863
30.16963,61796
30.17898,61051
30.18832,60187
30.19765,61169
30.20700,59945
30.21633,58534
30.22567,56876
30.23502,57376
30.24435,58278
30.25368,57802
30.26303,57801
30.27237,57607
30.28172,58590
30.29105,57185
30.30038,59183
30.30973,57522
30.31907,56303
30.32840,57728
30.33775,55228
30.34708,57146
30.35642,58878
30.36577,60271
30.37510,59516
30.38443,60811
30.39378,63330
30.40312,66568
30.41245,64240
30.42180,64905
30.43113,63058
30.44048,61567
30.44982,62087
30.45915,59055
30.46850,57974
30.47783,59111
30.48717,59291
30.49652,59624
30.50585,59196
30.51518,61597
30.52453,60829
30.53387,59992
30.54320,58822
30.55255,59064
30.56188,57609
30.57122,58287
30.58057,60676
30.58990,60797
30.59923,63436
30.60858,64314
30.61792,65306
30.62727,67578
30.63660,67125
30.64593,68322
30.65528,70594
30.66462,70556
30.67395,71914
30.68330,67354
30.69263,70188
30.70197,69857
30.71132,66806
30.72065,66420
30.72998,64164
30.73933,66304
30.74867,67503
30.75800,64095
30.76735,65606
30.77668,64306
30.78602,65373
30.79537,63116
30.80470,66073
30.81405,65423
30.82338,64804
30.83272,65505
30.84207,65098
30.85140,64650
30.86073,65042
30.87008,65532
30.87942,65930
30.88875,66982
30.89810,64142
30.90743,68139
30.91677,67191
30.92612,68799
30.93545,69208
30.94478,66910
30.95413,69244
30.96347,68733
30.97280,69816
30.98215,68237
30.99148,69960
31.00083,67263
31.01017,69705
31.01950,67643
31.02885,67003
31.03818,67821
31.04752,67823
31.05687,64452
31.06620,65655
31.07553,65359
31.08488,67344
31.09422,65880
31.10355,67929
31.11290,68286
31.12223,68204
31.13157,68358
31.14092,67005
31.15025,68707
31.15960,69381
31.16893,69725
31.17827,69480
31.18762,69762
31.19695,69953
31.20628,69444
31.21563,69412
31.22497,70794
31.23430,71839
31.24365,71409
31.25298,70541
31.26232,69952
31.27167,69174
31.28100,70650
31.29033,68509
31.29968,70003
31.30902,69959
31.31835,69770
31.32770,69605
31.33703,69018
31.34638,71036
31.35572,69447
31.36505,69532
