D:\数据\20220223\LCLN-ZS1E #000435.D Wed Feb 23 20:41:27 2022
Start of data points
0.09760,18156
0.10695,18734
0.11628,18795
0.12562,19283
0.13497,19855
0.14430,19331
0.15363,18895
0.16298,18645
0.17232,19368
0.18165,18582
0.19100,18326
0.20033,19165
0.20967,19253
0.21902,18477
0.22835,18055
0.23768,17809
0.24703,17568
0.25637,18000
0.26570,16542
0.27505,17240
0.28438,16257
0.29373,16930
0.30307,16686
0.31240,16041
0.32175,17774
0.33108,16040
0.34042,16411
0.34977,17048
0.35910,16349
0.36843,16728
0.37778,16648
0.38712,14915
0.39645,13128
0.40580,12000
0.41513,12615
0.42447,9206
0.43382,5699
0.44315,4246
0.45248,4511
0.46183,4183
0.47117,4378
0.48052,3549
0.48985,3687
0.49918,3799
0.50853,3342
0.51787,3275
0.52720,3751
0.53655,3879
0.54588,3869
0.55522,3293
0.56457,3738
0.57390,3344
0.58323,3216
0.59258,3502
0.60192,3171
0.61125,3603
0.62060,3829
0.62993,3233
0.63928,3076
0.64862,3468
0.65795,3329
0.66730,3220
0.67663,3445
0.68597,3387
0.69532,3004
0.70465,3580
0.71398,3383
0.72333,3524
0.73267,3262
0.74200,3145
0.75135,3524
0.76068,3324
0.77002,2910
0.77937,3566
0.78870,3336
0.79803,3061
0.80738,2903
0.81672,3135
0.82607,3294
0.83540,3495
0.84473,3336
0.85408,3259
0.86342,3182
0.87275,3196
0.88210,3095
0.89143,3023
0.90077,3325
0.91012,3378
0.91945,2761
0.92878,3120
0.93813,3499
0.94747,3018
0.95680,3430
0.96615,3434
0.97548,3581
0.98482,2798
0.99417,3156
1.00350,2892
1.01285,2922
1.02218,3365
1.03152,2900
1.04087,3475
1.05020,3056
1.05953,3650
1.06888,3321
1.07822,3279
1.08755,3226
1.09690,3162
1.10623,3236
1.11557,3223
1.12492,2937
1.13425,3237
1.14358,2933
1.15293,2787
1.16227,2764
1.17160,3549
1.18095,2961
1.19028,3485
1.19963,3012
1.20897,2793
1.21830,3411
1.22765,3247
1.23698,2398
1.24632,3409
1.25567,3411
1.26500,3033
1.27433,2751
1.28368,3119
1.29302,3096
1.30235,3548
1.31170,3199
1.32103,2855
1.33037,2799
1.33972,3214
1.34905,3055
1.35838,3535
1.36773,3169
1.37707,3065
1.38642,2874
1.39575,2895
1.40508,2663
1.41443,2996
1.42377,3107
1.43310,2892
1.44245,3081
1.45178,2972
1.46112,2807
1.47047,2599
1.47980,3113
1.48913,3558
1.49848,2830
1.50782,2980
1.51715,2797
1.52650,2951
1.53583,2746
1.54518,2915
1.55452,2585
1.56385,2715
1.57320,3342
1.58253,4311
1.59187,9108
1.60122,14291
1.61055,18950
1.61988,21277
1.62923,26893
1.63857,31904
1.64790,33782
1.65725,30770
1.66658,27814
1.67592,25234
1.68527,22451
1.69460,17709
1.70393,14058
1.71328,13507
1.72262,14836
1.73197,16484
1.74130,18147
1.75063,19738
1.75998,21214
1.76932,20836
1.77865,20773
1.78800,21019
1.79733,21437
1.80667,21976
1.81602,21191
1.82535,21072
1.83468,21486
1.84403,22334
1.85337,21624
1.86270,22487
1.87205,26800
1.88138,45335
1.89072,83420
1.90007,123299
1.90940,152935
1.91875,164356
1.92808,188261
1.93742,237019
1.94677,321262
1.95610,380257
1.96543,370044
1.97478,303177
1.98412,228860
1.99345,174691
2.00280,146614
2.01213,124460
2.02147,110728
2.03082,101628
2.04015,87928
2.04948,68271
2.05883,55421
2.06817,50749
2.07750,68633
2.08685,162090
2.09618,234812
2.10553,172095
2.11487,102463
2.12420,101413
2.13355,202384
2.14288,312537
2.15222,293689
2.16157,201788
2.17090,131633
2.18023,88744
2.18958,81979
2.19892,86676
2.20825,75128
2.21760,63338
2.22693,86685
2.23627,197717
2.24562,748906
2.25495,2913432
2.26430,4975212
2.27363,4596535
2.28297,3070405
2.29232,1733673
2.30165,1108444
2.31098,2322832
2.32033,6898112
2.32967,8827089
2.33900,5760110
2.34835,2634072
2.35768,1117940
2.36702,508641
2.37637,278437
2.38570,184621
2.39503,139508
2.40438,109749
2.41372,101624
2.42305,101640
2.43240,102805
2.44173,90865
2.45108,73873
2.46042,64074
2.46975,62552
2.47910,63186
2.48843,58302
2.49777,50779
2.50712,47459
2.51645,45552
2.52578,42887
2.53513,41041
2.54447,45449
2.55380,59308
2.56315,158111
2.57248,272384
2.58182,247097
2.59117,172592
2.60050,120908
2.60983,99638
2.61918,101554
2.62852,100447
2.63787,92701
2.64720,89753
2.65653,83653
2.66588,66796
2.67522,52592
2.68455,44137
2.69390,40498
2.70323,38950
2.71257,47257
2.72192,65168
2.73125,88546
2.74058,105152
2.74993,122804
2.75927,121495
2.76860,108003
2.77795,133950
2.78728,156153
2.79662,137721
2.80597,105363
2.81530,82963
2.82465,71363
2.83398,61065
2.84332,54108
2.85267,60306
2.86200,80131
2.87133,90681
2.88068,79161
2.89002,60051
2.89935,49477
2.90870,45837
2.91803,43885
2.92737,41943
2.93672,39887
2.94605,36728
2.95538,35698
2.96473,36150
2.97407,38332
2.98340,47965
2.99275,59745
3.00208,77483
3.01143,85667
3.02077,71840
3.03010,59310
3.03945,54850
3.04878,50989
3.05812,54936
3.06747,67124
3.07680,73127
3.08613,62401
3.09548,48597
3.10482,37066
3.11415,33615
3.12350,33720
3.13283,33809
3.14217,33115
3.15152,35859
3.16085,40634
3.17018,39964
3.17953,37247
3.18887,34499
3.19822,34100
3.20755,33609
3.21688,32028
3.22623,31144
3.23557,29073
3.24490,31381
3.25425,31485
3.26358,30091
3.27292,31122
3.28227,31045
3.29160,30448
3.30093,32363
3.31028,32981
3.31962,32323
3.32895,30026
3.33830,29046
3.34763,30962
3.35698,29893
3.36632,29478
3.37565,29179
3.38500,28960
3.39433,28398
3.40367,27821
3.41302,32294
3.42235,35919
3.43168,38309
3.44103,36306
3.45037,34792
3.45970,32994
3.46905,30856
3.47838,31588
3.48772,31753
3.49707,31884
3.50640,30095
3.51573,29798
3.52508,29175
3.53442,29844
3.54377,37695
3.55310,74086
3.56243,157011
3.57178,230268
3.58112,206677
3.59045,135478
3.59980,89080
3.60913,66577
3.61847,54110
3.62782,41587
3.63715,37942
3.64648,35367
3.65583,34176
3.66517,33604
3.67450,36096
3.68385,34145
3.69318,33206
3.70252,30586
3.71187,31293
3.72120,34797
3.73055,38901
3.73988,35421
3.74922,33325
3.75857,30220
3.76790,28742
3.77723,27052
3.78658,30478
3.79592,31231
3.80525,33891
3.81460,39909
3.82393,41724
3.83327,40565
3.84262,38657
3.85195,39654
3.86128,36405
3.87063,34858
3.87997,32725
3.88930,34192
3.89865,38774
3.90798,41284
3.91733,45270
3.92667,65043
3.93600,88545
3.94535,80183
3.95468,64613
3.96402,54227
3.97337,43309
3.98270,36915
3.99203,32690
4.00138,30304
4.01072,31482
4.02005,32911
4.02940,44647
4.03873,75801
4.04807,105267
4.05742,98250
4.06675,72014
4.07610,54635
4.08543,52112
4.09477,55648
4.10412,51598
4.11345,42217
4.12278,34416
4.13213,32438
4.14147,30978
4.15080,31238
4.16015,31135
4.16948,29940
4.17882,29496
4.18817,27650
4.19750,31916
4.20683,35301
4.21618,39609
4.22552,34962
4.23485,31856
4.24420,30704
4.25353,30716
4.26288,31488
4.27222,28668
4.28155,31629
4.29090,30541
4.30023,28798
4.30957,30287
4.31892,32649
4.32825,37149
4.33758,37536
4.34693,34436
4.35627,32051
4.36560,30280
4.37495,28877
4.38428,28632
4.39362,29152
4.40297,26443
4.41230,24844
4.42163,27132
4.43098,26609
4.44032,27040
4.44967,26370
4.45900,28557
4.46833,34396
4.47768,39706
4.48702,43075
4.49635,39456
4.50570,32886
4.51503,30728
4.52437,28226
4.53372,28232
4.54305,29303
4.55238,27691
4.56173,28303
4.57107,28639
4.58040,28979
4.58975,25634
4.59908,26990
4.60842,26908
4.61777,26705
4.62710,27261
4.63645,29718
4.64578,32077
4.65512,34590
4.66447,36086
4.67380,36489
4.68313,35061
4.69248,40029
4.70182,45770
4.71115,46489
4.72050,42301
4.72983,35152
4.73917,30859
4.74852,29693
4.75785,28269
4.76718,28832
4.77653,29141
4.78587,30070
4.79520,27579
4.80455,28015
4.81388,29953
4.82323,29959
4.83257,30051
4.84190,28365
4.85125,27313
4.86058,29431
4.86992,32310
4.87927,35538
4.88860,36132
4.89793,34872
4.90728,33902
4.91662,32484
4.92595,31407
4.93530,30599
4.94463,29639
4.95397,28102
4.96332,27823
4.97265,27238
4.98200,27916
4.99133,28617
5.00067,28574
5.01002,28770
5.01935,29366
5.02868,29027
5.03803,27715
5.04737,28571
5.05670,28531
5.06605,27156
5.07538,27520
5.08472,29483
5.09407,28336
5.10340,28073
5.11273,28419
5.12208,26243
5.13142,26050
5.14075,28446
5.15010,32056
5.15943,29290
5.16878,28197
5.17812,29092
5.18745,28949
5.19680,28366
5.20613,26149
5.21547,25664
5.22482,25413
5.23415,27283
5.24348,28504
5.25283,30086
5.26217,30465
5.27150,44030
5.28085,85434
5.29018,131450
5.29952,130754
5.30887,93275
5.31820,60267
5.32753,48863
5.33688,42337
5.34622,34738
5.35557,31091
5.36490,28940
5.37423,29927
5.38358,32503
5.39292,38615
5.40225,41399
5.41160,37375
5.42093,35245
5.43027,32608
5.43962,27648
5.44895,26976
5.45828,28524
5.46763,28876
5.47697,28131
5.48630,29100
5.49565,28721
5.50498,29340
5.51432,33754
5.52367,42754
5.53300,52903
5.54235,50614
5.55168,40563
5.56102,31821
5.57037,29425
5.57970,28381
5.58903,27205
5.59838,26776
5.60772,26103
5.61705,25723
5.62640,25903
5.63573,26282
5.64507,27126
5.65442,27084
5.66375,29302
5.67308,30001
5.68243,30434
5.69177,28961
5.70112,29034
5.71045,31293
5.71978,31321
5.72913,30946
5.73847,32975
5.74780,36157
5.75715,42574
5.76648,39715
5.77582,35086
5.78517,30029
5.79450,26494
5.80383,26209
5.81318,29771
5.82252,35582
5.83185,36266
5.84120,29982
5.85053,21585
5.85987,19704
5.86922,18705
5.87855,18797
5.88790,18793
5.89723,20862
5.90657,30644
5.91592,60169
5.92525,98103
5.93458,105649
5.94393,84199
5.95327,60494
5.96260,43818
5.97195,31523
5.98128,22793
5.99062,19173
5.99997,16987
6.00930,14891
6.01863,14338
6.02798,14294
6.03732,16521
6.04665,15146
6.05600,15479
6.06533,16202
6.07468,15465
6.08402,12300
6.09335,12950
6.10270,11898
6.11203,13494
6.12137,15806
6.13072,20071
6.14005,22977
6.14938,20247
6.15873,15795
6.16807,12041
6.17740,12832
6.18675,11842
6.19608,12094
6.20542,10963
6.21477,11024
6.22410,12325
6.23343,13628
6.24278,13225
6.25212,12815
6.26147,13355
6.27080,13626
6.28013,12982
6.28948,11018
6.29882,10474
6.30815,9399
6.31750,9178
6.32683,9414
6.33617,9754
6.34552,9538
6.35485,9383
6.36418,9627
6.37353,12529
6.38287,18060
6.39220,40463
6.40155,129289
6.41088,294041
6.42022,369104
6.42957,248672
6.43890,101089
6.44825,32017
6.45758,17323
6.46692,15503
6.47627,15295
6.48560,13361
6.49493,11996
6.50428,13174
6.51362,12678
6.52295,12350
6.53230,10984
6.54163,11075
6.55097,11865
6.56032,10153
6.56965,9841
6.57898,11080
6.58833,12033
6.59767,12006
6.60702,12885
6.61635,12698
6.62568,12349
6.63503,12864
6.64437,12811
6.65370,13056
6.66305,13321
6.67238,13758
6.68172,14673
6.69107,14747
6.70040,12437
6.70973,12831
6.71908,11491
6.72842,10928
6.73775,9803
6.74710,9901
6.75643,10204
6.76577,9960
6.77512,10352
6.78445,13170
6.79380,15410
6.80313,17619
6.81247,17266
6.82182,13655
6.83115,10992
6.84048,11088
6.84983,11613
6.85917,10730
6.86850,11467
6.87785,11944
6.88718,11557
6.89652,12648
6.90587,13101
6.91520,15073
6.92453,13678
6.93388,12082
6.94322,11613
6.95255,11946
6.96190,11896
6.97123,11835
6.98058,11749
6.98992,10416
6.99925,12740
7.00860,12608
7.01793,12342
7.02727,11853
7.03662,9669
7.04595,8767
7.05528,8724
7.06463,9614
7.07397,8714
7.08330,8941
7.09265,9545
7.10198,11612
7.11132,12909
7.12067,12966
7.13000,12203
7.13933,11513
7.14868,10664
7.15802,10507
7.16737,9351
7.17670,9330
7.18603,10009
7.19538,10914
7.20472,11404
7.21405,10818
7.22340,14484
7.23273,24605
7.24207,36678
7.25142,37281
7.26075,25743
7.27008,18044
7.27943,14844
7.28877,14919
7.29810,13661
7.30745,12291
7.31678,10229
7.32613,9558
7.33547,9950
7.34480,9423
7.35415,10349
7.36348,9386
7.37282,9395
7.38217,12998
7.39150,23980
7.40083,47952
7.41018,72659
7.41952,71491
7.42885,50556
7.43820,28994
7.44753,17541
7.45687,13349
7.46622,11646
7.47555,11868
7.48488,12325
7.49423,11848
7.50357,10212
7.51292,11047
7.52225,10477
7.53158,10962
7.54093,9860
7.55027,11430
7.55960,13475
7.56895,14318
7.57828,16158
7.58762,15104
7.59697,13504
7.60630,13407
7.61563,14351
7.62498,14529
7.63432,14567
7.64365,13494
7.65300,12124
7.66233,11447
7.67167,12170
7.68102,12345
7.69035,12172
7.69970,11999
7.70903,11739
7.71837,11972
7.72772,11862
7.73705,11673
7.74638,12155
7.75573,12624
7.76507,11600
7.77440,12502
7.78375,13101
7.79308,12400
7.80242,11047
7.81177,9904
7.82110,9515
7.83043,9376
7.83978,10917
7.84912,13673
7.85845,24637
7.86780,36389
7.87713,39089
7.88648,27974
7.89582,19620
7.90515,21612
7.91450,33413
7.92383,43509
7.93317,41642
7.94252,37644
7.95185,32139
7.96118,27622
7.97053,29783
7.97987,35588
7.98920,33537
7.99855,24171
8.00788,19025
8.01722,18228
8.02657,17955
8.03590,20182
8.04523,25390
8.05458,24226
8.06392,17959
8.07327,13815
8.08260,16666
8.09193,19441
8.10128,21155
8.11062,17070
8.11995,12846
8.12930,11148
8.13863,10997
8.14797,11451
8.15732,10836
8.16665,10995
8.17598,10995
8.18533,11580
8.19467,12177
8.20400,12737
8.21335,12860
8.22268,13399
8.23203,13722
8.24137,13153
8.25070,13163
8.26005,12110
8.26938,12547
8.27872,11455
8.28807,11281
8.29740,12614
8.30673,12407
8.31608,11588
8.32542,12305
8.33475,12303
8.34410,11822
8.35343,11748
8.36277,11533
8.37212,12769
8.38145,14154
8.39078,14440
8.40013,14839
8.40947,14614
8.41882,14737
8.42815,15280
8.43748,14906
8.44683,14838
8.45617,14519
8.46550,15142
8.47485,14920
8.48418,14312
8.49352,13769
8.50287,14375
8.51220,18328
8.52153,19147
8.53088,18229
8.54022,18207
8.54955,18255
8.55890,18587
8.56823,17527
8.57757,15935
8.58692,16124
8.59625,14960
8.60560,15890
8.61493,16484
8.62427,15052
8.63362,14915
8.64295,17998
8.65228,23905
8.66163,31156
8.67097,27791
8.68030,20658
8.68965,17567
8.69898,16440
8.70832,16430
8.71767,15872
8.72700,15299
8.73633,17740
8.74568,22497
8.75502,28555
8.76435,27455
8.77370,21704
8.78303,18503
8.79238,27157
8.80172,55625
8.81105,87827
8.82040,84249
8.82973,52912
8.83907,26762
8.84842,17499
8.85775,15641
8.86708,16055
8.87643,16637
8.88577,17836
8.89510,17139
8.90445,16428
8.91378,16145
8.92312,17107
8.93247,17092
8.94180,16600
8.95115,14983
8.96048,15101
8.96982,15703
8.97917,15252
8.98850,15407
8.99783,15596
9.00718,17484
9.01652,16822
9.02585,15089
9.03520,15466
9.04453,15140
9.05387,16912
9.06322,18605
9.07255,21234
9.08188,25338
9.09123,27840
9.10057,26385
9.10990,21056
9.11925,21004
9.12858,27122
9.13793,33558
9.14727,31280
9.15660,23069
9.16595,17866
9.17528,16721
9.18462,17647
9.19397,17009
9.20330,18106
9.21263,21183
9.22198,30267
9.23132,40523
9.24065,46347
9.25000,38960
9.25933,23980
9.26867,17327
9.27802,15406
9.28735,13024
9.29668,12924
9.30603,14836
9.31537,18785
9.32472,30577
9.33405,41107
9.34338,38001
9.35273,36482
9.36207,60003
9.37140,95506
9.38075,93077
9.39008,64740
9.39942,42191
9.40877,30805
9.41810,27484
9.42743,26593
9.43678,23106
9.44612,18626
9.45545,16045
9.46480,13558
9.47413,15105
9.48347,17221
9.49282,20117
9.50215,22201
9.51150,18260
9.52083,16085
9.53017,16755
9.53952,19295
9.54885,23863
9.55818,37379
9.56753,49099
9.57687,40117
9.58620,28243
9.59555,26758
9.60488,31581
9.61422,27452
9.62357,21510
9.63290,18726
9.64223,17069
9.65158,18460
9.66092,18034
9.67025,18201
9.67960,17074
9.68893,15101
9.69828,13503
9.70762,16008
9.71695,39213
9.72630,171096
9.73563,575699
9.74497,1051346
9.75432,1055181
9.76365,643813
9.77298,297265
9.78233,148744
9.79167,98559
9.80100,71241
9.81035,61089
9.81968,56142
9.82902,59053
9.83837,66037
9.84770,70448
9.85703,63918
9.86638,52034
9.87572,47792
9.88507,53619
9.89440,60266
9.90373,70605
9.91308,87630
9.92242,81301
9.93175,59941
9.94110,39075
9.95043,28176
9.95977,27348
9.96912,31666
9.97845,56111
9.98778,96824
9.99713,109028
10.00647,79700
10.01580,47378
10.02515,30473
10.03448,25924
10.04383,24639
10.05317,26390
10.06250,29489
10.07185,36445
10.08118,36383
10.09052,31567
10.09987,25983
10.10920,36471
10.11853,91641
10.12788,174416
10.13722,217978
10.14655,399185
10.15590,1244863
10.16523,2498559
10.17457,2474332
10.18392,1147956
10.19325,279826
10.20258,58748
10.21193,30205
10.22127,28061
10.23062,31581
10.23995,39452
10.24928,36635
10.25863,29494
10.26797,22239
10.27730,22921
10.28665,23279
10.29598,24206
10.30532,21466
10.31467,20439
10.32400,18732
10.33333,18685
10.34268,16646
10.35202,17592
10.36135,18153
10.37070,17062
10.38003,15430
10.38937,15470
10.39872,15920
10.40805,17642
10.41740,16918
10.42673,17210
10.43607,18622
10.44542,20444
10.45475,21906
10.46408,23495
10.47343,23119
10.48277,17694
10.49210,15942
10.50145,15813
10.51078,16535
10.52012,16490
10.52947,17180
10.53880,16469
10.54813,18619
10.55748,19746
10.56682,18695
10.57615,18817
10.58550,19680
10.59483,18827
10.60418,16384
10.61352,15891
10.62285,17310
10.63220,19533
10.64153,20349
10.65087,17661
10.66022,16691
10.66955,18457
10.67888,21182
10.68823,22828
10.69757,28044
10.70690,47651
10.71625,77577
10.72558,80921
10.73492,54558
10.74427,38215
10.75360,45829
10.76295,55310
10.77228,56008
10.78162,110083
10.79097,375090
10.80030,908380
10.80963,1161641
10.81898,787468
10.82832,294193
10.83765,76558
10.84700,31857
10.85633,25709
10.86567,27799
10.87502,31835
10.88435,31317
10.89368,28111
10.90303,21931
10.91237,21541
10.92170,24610
10.93105,26453
10.94038,24183
10.94973,20843
10.95907,19087
10.96840,18429
10.97775,17933
10.98708,16420
10.99642,15180
11.00577,15686
11.01510,15650
11.02443,15440
11.03378,14461
11.04312,15960
11.05245,14802
11.06180,14106
11.07113,14925
11.08047,13195
11.08982,15983
11.09915,16465
11.10848,17569
11.11783,19094
11.12717,18024
11.13652,16928
11.14585,16483
11.15518,16859
11.16453,16849
11.17387,17190
11.18320,15785
11.19255,15975
11.20188,15243
11.21122,15559
11.22057,16004
11.22990,16175
11.23923,16021
11.24858,15940
11.25792,16697
11.26725,17972
11.27660,17380
11.28593,16526
11.29527,17179
11.30462,16945
11.31395,19128
11.32330,18050
11.33263,19806
11.34197,23912
11.35132,29269
11.36065,30442
11.36998,25737
11.37933,19574
11.38867,21565
11.39800,36332
11.40735,74706
11.41668,110800
11.42602,98132
11.43537,54036
11.44470,24926
11.45403,20457
11.46338,25299
11.47272,30557
11.48205,28323
11.49140,20106
11.50073,15630
11.51008,16226
11.51942,14253
11.52875,14781
11.53810,14911
11.54743,16699
11.55677,23148
11.56612,38246
11.57545,49377
11.58478,47812
11.59413,39426
11.60347,30483
11.61280,27950
11.62215,24202
11.63148,23767
11.64082,26699
11.65017,34566
11.65950,41362
11.66885,39244
11.67818,33117
11.68752,26964
11.69687,23021
11.70620,21119
11.71553,21455
11.72488,22279
11.73422,21114
11.74355,18652
11.75290,18250
11.76223,18772
11.77157,19893
11.78092,20584
11.79025,22162
11.79958,21163
11.80893,18555
11.81827,17765
11.82760,17403
11.83695,17955
11.84628,19001
11.85563,17461
11.86497,17589
11.87430,19768
11.88365,19504
11.89298,17931
11.90232,18473
11.91167,17091
11.92100,15908
11.93033,18080
11.93968,21653
11.94902,24472
11.95835,22272
11.96770,18740
11.97703,16123
11.98637,16411
11.99572,18913
12.00505,25890
12.01438,36397
12.02373,38531
12.03307,28848
12.04242,22795
12.05175,18664
12.06108,15937
12.07043,16298
12.07977,15580
12.08910,16261
12.09845,15598
12.10778,16273
12.11712,16269
12.12647,15504
12.13580,15168
12.14513,15895
12.15448,22666
12.16382,54675
12.17315,132980
12.18250,178848
12.19183,127639
12.20117,56621
12.21052,24279
12.21985,21316
12.22920,23613
12.23853,24179
12.24787,21070
12.25722,23499
12.26655,43209
12.27588,80237
12.28523,94433
12.29457,67401
12.30390,36628
12.31325,25881
12.32258,21592
12.33192,21292
12.34127,22214
12.35060,21927
12.35993,19219
12.36928,17201
12.37862,17704
12.38797,17733
12.39730,18246
12.40663,19587
12.41598,18438
12.42532,19381
12.43465,17669
12.44400,16993
12.45333,17452
12.46267,18127
12.47202,19247
12.48135,20363
12.49068,21296
12.50003,21612
12.50937,19009
12.51870,20215
12.52805,22441
12.53738,24483
12.54672,23569
12.55607,23023
12.56540,26306
12.57475,27943
12.58408,24278
12.59342,20925
12.60277,18100
12.61210,17307
12.62143,17864
12.63078,20186
12.64012,21215
12.64945,24833
12.65880,23517
12.66813,22686
12.67747,19248
12.68682,15763
12.69615,15852
12.70548,15063
12.71483,17309
12.72417,17450
12.73350,17471
12.74285,19350
12.75218,22180
12.76153,21178
12.77087,18948
12.78020,17362
12.78955,16513
12.79888,17187
12.80822,16333
12.81757,16831
12.82690,15922
12.83623,17037
12.84558,16828
12.85492,15599
12.86425,16862
12.87360,15988
12.88293,15653
12.89227,18173
12.90162,19361
12.91095,17811
12.92028,17795
12.92963,16788
12.93897,17507
12.94832,17132
12.95765,17769
12.96698,17282
12.97633,16455
12.98567,15154
12.99500,14834
13.00435,14116
13.01368,16166
13.02302,20011
13.03237,24587
13.04170,26178
13.05103,21603
13.06038,18796
13.06972,18959
13.07905,21309
13.08840,20847
13.09773,19843
13.10707,19298
13.11642,17029
13.12575,19611
13.13510,22855
13.14443,22556
13.15377,20738
13.16312,19939
13.17245,19979
13.18178,21582
13.19113,36800
13.20047,94548
13.20980,184276
13.21915,203975
13.22848,137484
13.23782,73021
13.24717,60615
13.25650,55920
13.26583,40125
13.27518,29705
13.28452,25632
13.29387,24005
13.30320,23084
13.31253,24666
13.32188,25818
13.33122,24661
13.34055,21696
13.34990,22307
13.35923,21422
13.36857,19697
13.37792,19162
13.38725,19400
13.39658,23407
13.40593,22869
13.41527,21555
13.42460,19357
13.43395,22590
13.44328,26282
13.45262,26423
13.46197,23693
13.47130,23321
13.48065,25109
13.48998,22714
13.49932,21104
13.50867,27673
13.51800,50963
13.52733,82772
13.53668,79887
13.54602,47053
13.55535,25888
13.56470,18719
13.57403,17724
13.58337,16516
13.59272,16966
13.60205,17105
13.61138,16894
13.62073,16887
13.63007,21141
13.63940,25189
13.64875,30281
13.65808,28283
13.66743,23111
13.67677,17566
13.68610,16837
13.69545,15242
13.70478,14710
13.71412,14763
13.72347,14601
13.73280,14800
13.74213,15663
13.75148,15923
13.76082,17493
13.77015,16324
13.77950,17296
13.78883,18960
13.79817,24380
13.80752,28120
13.81685,27174
13.82618,21094
13.83553,17414
13.84487,15898
13.85422,17727
13.86355,17836
13.87288,20096
13.88223,22277
13.89157,33791
13.90090,66496
13.91025,138540
13.91958,209416
13.92892,181377
13.93827,91623
13.94760,39165
13.95693,26954
13.96628,25031
13.97562,20743
13.98495,19876
13.99430,19393
14.00363,20932
14.01298,20002
14.02232,19484
14.03165,23474
14.04100,85700
14.05033,551676
14.05967,2320361
14.06902,5234173
14.07835,6055211
14.08768,3309676
14.09703,856696
14.10637,125871
14.11570,38892
14.12505,29132
14.13438,27390
14.14372,26964
14.15307,29016
14.16240,31865
14.17173,30956
14.18108,33785
14.19042,42850
14.19977,46823
14.20910,38160
14.21843,25974
14.22778,20572
14.23712,19353
14.24645,17031
14.25580,19103
14.26513,20499
14.27447,20541
14.28382,19915
14.29315,18665
14.30248,18879
14.31183,22308
14.32117,26805
14.33050,32424
14.33985,33875
14.34918,27357
14.35852,24326
14.36787,18051
14.37720,16593
14.38655,16022
14.39588,17699
14.40522,18131
14.41457,16101
14.42390,14874
14.43323,17045
14.44258,19688
14.45192,25103
14.46125,31235
14.47060,32653
14.47993,29305
14.48927,23347
14.49862,20245
14.50795,17390
14.51728,17206
14.52663,18459
14.53597,17448
14.54530,17100
14.55465,18275
14.56398,18468
14.57333,18501
14.58267,17792
14.59200,17653
14.60135,16582
14.61068,17555
14.62002,17475
14.62937,19459
14.63870,22606
14.64803,29700
14.65738,30768
14.66672,27152
14.67605,24021
14.68540,20007
14.69473,19081
14.70407,19471
14.71342,18247
14.72275,18645
14.73208,17104
14.74143,18170
14.75077,18093
14.76012,17378
14.76945,17487
14.77878,18412
14.78813,17089
14.79747,16470
14.80680,17615
14.81615,18798
14.82548,18785
14.83482,18480
14.84417,16732
14.85350,18747
14.86283,23917
14.87218,31528
14.88152,31768
14.89085,24408
14.90020,19722
14.90953,18178
14.91887,17244
14.92822,18189
14.93755,18466
14.94690,17357
14.95623,18381
14.96557,19558
14.97492,20949
14.98425,20002
14.99358,20310
15.00293,23683
15.01227,25429
15.02160,23774
15.03095,21605
15.04028,21010
15.04962,24226
15.05897,24662
15.06830,23451
15.07763,22202
15.08698,18037
15.09632,17773
15.10567,17334
15.11500,19650
15.12433,24494
15.13368,27349
15.14302,25662
15.15235,22683
15.16170,18814
15.17103,17957
15.18037,16332
15.18972,18348
15.19905,25789
15.20838,38896
15.21773,48093
15.22707,46894
15.23640,37822
15.24575,28729
15.25508,23226
15.26442,21571
15.27377,21297
15.28310,20104
15.29245,19457
15.30178,19909
15.31112,19804
15.32047,20892
15.32980,21748
15.33913,22980
15.34848,21646
15.35782,20370
15.36715,22381
15.37650,24484
15.38583,21665
15.39517,18216
15.40452,16889
15.41385,19764
15.42318,20030
15.43253,20239
15.44187,20177
15.45120,18537
15.46055,16859
15.46988,17062
15.47923,17273
15.48857,19390
15.49790,21985
15.50725,32716
15.51658,44501
15.52592,46795
15.53527,38130
15.54460,26148
15.55393,21540
15.56328,18816
15.57262,18784
15.58195,18820
15.59130,20427
15.60063,20841
15.60997,20411
15.61932,20806
15.62865,22061
15.63798,22005
15.64733,24885
15.65667,25805
15.66602,27865
15.67535,25539
15.68468,23977
15.69403,28242
15.70337,34248
15.71270,34675
15.72205,28986
15.73138,24094
15.74072,24470
15.75007,28013
15.75940,28590
15.76873,28416
15.77808,26990
15.78742,23556
15.79675,24018
15.80610,41938
15.81543,104589
15.82478,221911
15.83412,326022
15.84345,349963
15.85280,254937
15.86213,130125
15.87147,66027
15.88082,48848
15.89015,47808
15.89948,47903
15.90883,43791
15.91817,36263
15.92750,30492
15.93685,26377
15.94618,25354
15.95552,24545
15.96487,26203
15.97420,31145
15.98353,37244
15.99288,42901
16.00222,40060
16.01157,32467
16.02090,26754
16.03023,23749
16.03958,24968
16.04892,23961
16.05825,24857
16.06760,26350
16.07693,24856
16.08627,23679
16.09562,23728
16.10495,24011
16.11428,26445
16.12363,29987
16.13297,28142
16.14230,26866
16.15165,25036
16.16098,24752
16.17032,23010
16.17967,22249
16.18900,22514
16.19835,24773
16.20768,30008
16.21702,33697
16.22637,38417
16.23570,38749
16.24503,35952
16.25438,31685
16.26372,31929
16.27305,39959
16.28240,79267
16.29173,157966
16.30107,211508
16.31042,171054
16.31975,91610
16.32908,46810
16.33843,29781
16.34777,22390
16.35710,20057
16.36645,19614
16.37578,17769
16.38513,19430
16.39447,20168
16.40380,21485
16.41315,22683
16.42248,23907
16.43182,23331
16.44117,23202
16.45050,28452
16.45983,31631
16.46918,30194
16.47852,27844
16.48785,25455
16.49720,25698
16.50653,24622
16.51587,26253
16.52522,26307
16.53455,24790
16.54388,21765
16.55323,19923
16.56257,20692
16.57192,20837
16.58125,22319
16.59058,23064
16.59993,21837
16.60927,22587
16.61860,23838
16.62795,27273
16.63728,30063
16.64662,31474
16.65597,29171
16.66530,24841
16.67463,23033
16.68398,26453
16.69332,28657
16.70265,29880
16.71200,27054
16.72133,23778
16.73068,24190
16.74002,41560
16.74935,64396
16.75870,71848
16.76803,48860
16.77737,28304
16.78672,20750
16.79605,19550
16.80538,19811
16.81473,20487
16.82407,25492
16.83340,28106
16.84275,30814
16.85208,24826
16.86142,21455
16.87077,19806
16.88010,19519
16.88943,20843
16.89878,21685
16.90812,28546
16.91747,33152
16.92680,33065
16.93613,27983
16.94548,30131
16.95482,34296
16.96415,33809
16.97350,32232
16.98283,25064
16.99217,22441
17.00152,20670
17.01085,23805
17.02018,34669
17.02953,53738
17.03887,64881
17.04820,52808
17.05755,33883
17.06688,28083
17.07622,25494
17.08557,22524
17.09490,23261
17.10425,23228
17.11358,22607
17.12292,23837
17.13227,28085
17.14160,31916
17.15093,27692
17.16028,23421
17.16962,21210
17.17895,21282
17.18830,19955
17.19763,19123
17.20697,19562
17.21632,18875
17.22565,19613
17.23498,18648
17.24433,19842
17.25367,19262
17.26300,22151
17.27235,23328
17.28168,26290
17.29103,26907
17.30037,25271
17.30970,25349
17.31905,25569
17.32838,28292
17.33772,25664
17.34707,23186
17.35640,21488
17.36573,28717
17.37508,57499
17.38442,110718
17.39375,124057
17.40310,83209
17.41243,42763
17.42177,28727
17.43112,27521
17.44045,31066
17.44980,35961
17.45913,34224
17.46847,26210
17.47782,30073
17.48715,87287
17.49648,417114
17.50583,1351243
17.51517,2215885
17.52450,1836741
17.53385,728348
17.54318,163818
17.55252,42184
17.56187,28994
17.57120,29919
17.58053,32171
17.58988,32327
17.59922,29894
17.60855,26096
17.61790,26102
17.62723,24711
17.63658,24914
17.64592,24567
17.65525,26189
17.66460,29668
17.67393,30991
17.68327,32996
17.69262,34580
17.70195,35416
17.71128,32138
17.72063,27493
17.72997,25059
17.73930,25434
17.74865,27107
17.75798,29966
17.76732,34342
17.77667,34249
17.78600,28834
17.79533,26300
17.80468,26258
17.81402,24598
17.82337,24503
17.83270,23186
17.84203,24910
17.85138,27382
17.86072,32970
17.87005,33880
17.87940,29779
17.88873,28317
17.89807,27246
17.90742,24112
17.91675,22484
17.92608,23178
17.93543,22591
17.94477,21276
17.95410,19785
17.96345,21595
17.97278,21021
17.98212,20204
17.99147,20839
18.00080,20762
18.01015,19578
18.01948,19684
18.02882,19252
18.03817,21428
18.04750,24391
18.05683,28678
18.06618,27004
18.07552,23387
18.08485,19574
18.09420,22401
18.10353,21859
18.11287,23005
18.12222,23396
18.13155,24465
18.14088,23836
18.15023,24257
18.15957,23926
18.16890,24839
18.17825,22669
18.18758,20770
18.19693,20600
18.20627,22362
18.21560,22065
18.22495,22670
18.23428,22132
18.24362,22177
18.25297,22905
18.26230,23969
18.27163,25701
18.28098,29787
18.29032,30804
18.29965,30439
18.30900,27951
18.31833,28732
18.32767,30598
18.33702,32629
18.34635,36828
18.35568,38356
18.36503,35118
18.37437,28505
18.38372,27181
18.39305,26564
18.40238,26915
18.41173,27947
18.42107,26841
18.43040,27242
18.43975,27650
18.44908,32938
18.45842,31332
18.46777,28091
18.47710,24346
18.48643,27762
18.49578,34381
18.50512,46590
18.51445,50577
18.52380,45127
18.53313,36409
18.54248,27858
18.55182,28301
18.56115,27817
18.57050,23929
18.57983,23901
18.58917,22393
18.59852,24445
18.60785,27890
18.61718,30158
18.62653,28473
18.63587,27690
18.64520,26812
18.65455,26731
18.66388,25962
18.67322,27799
18.68257,32554
18.69190,31068
18.70123,29973
18.71058,29030
18.71992,31945
18.72927,32154
18.73860,31961
18.74793,29339
18.75728,27190
18.76662,21140
18.77595,19999
18.78530,21305
18.79463,22240
18.80397,22523
18.81332,22980
18.82265,22903
18.83198,22090
18.84133,21996
18.85067,20610
18.86000,20945
18.86935,20192
18.87868,20225
18.88802,20110
18.89737,21101
18.90670,27270
18.91605,31457
18.92538,30379
18.93472,27857
18.94407,27285
18.95340,29686
18.96273,33429
18.97208,31608
18.98142,28179
18.99075,25213
19.00010,25540
19.00943,23312
19.01877,22538
19.02812,23987
19.03745,30164
19.04678,44938
19.05613,61395
19.06547,70321
19.07480,80671
19.08415,96311
19.09348,87857
19.10283,63768
19.11217,42784
19.12150,33689
19.13085,27967
19.14018,24088
19.14952,20520
19.15887,18774
19.16820,19449
19.17753,20049
19.18688,23315
19.19622,26237
19.20555,27651
19.21490,27808
19.22423,26229
19.23357,26824
19.24292,25740
19.25225,27010
19.26160,26261
19.27093,27355
19.28027,29935
19.28962,32016
19.29895,32924
19.30828,37436
19.31763,42420
19.32697,38178
19.33630,30021
19.34565,24920
19.35498,21890
19.36432,21887
19.37367,20119
19.38300,21097
19.39233,21536
19.40168,22158
19.41102,21483
19.42035,22253
19.42970,19311
19.43903,20815
19.44838,17908
19.45772,19287
19.46705,20008
19.47640,22176
19.48573,26472
19.49507,24694
19.50442,23786
19.51375,21319
19.52308,21613
19.53243,23180
19.54177,22550
19.55110,20941
19.56045,21606
19.56978,23187
19.57912,25285
19.58847,24276
19.59780,23394
19.60713,22156
19.61648,21653
19.62582,23615
19.63517,27647
19.64450,27647
19.65383,24795
19.66318,21260
19.67252,22151
19.68185,21486
19.69120,21861
19.70053,21991
19.70987,25759
19.71922,32317
19.72855,41196
19.73788,44427
19.74723,38013
19.75657,29256
19.76590,26127
19.77525,25773
19.78458,27334
19.79392,25342
19.80327,23724
19.81260,22258
19.82195,21176
19.83128,21448
19.84062,21351
19.84997,20934
19.85930,22903
19.86863,31915
19.87798,40423
19.88732,40725
19.89665,31371
19.90600,25519
19.91533,24331
19.92467,23769
19.93402,22993
19.94335,22040
19.95268,22066
19.96203,24421
19.97137,23274
19.98070,22151
19.99005,21061
19.99938,20897
20.00873,21810
20.01807,24929
20.02740,24047
20.03675,24986
20.04608,25802
20.05542,25192
20.06477,25112
20.07410,25117
20.08343,25707
20.09278,24506
20.10212,23406
20.11145,20252
20.12080,20548
20.13013,20803
20.13947,22724
20.14882,26814
20.15815,31613
20.16750,27990
20.17683,23138
20.18617,22706
20.19552,20760
20.20485,20777
20.21418,20075
20.22353,21019
20.23287,20144
20.24220,19300
20.25155,18777
20.26088,20743
20.27022,19876
20.27957,20573
20.28890,18800
20.29823,19655
20.30758,19292
20.31692,18927
20.32625,18587
20.33560,18741
20.34493,18300
20.35428,20142
20.36362,21468
20.37295,19961
20.38230,19127
20.39163,18814
20.40097,19010
20.41032,18785
20.41965,19063
20.42898,19427
20.43833,20065
20.44767,19901
20.45700,21883
20.46635,25644
20.47568,29536
20.48502,28108
20.49437,24728
20.50370,21284
20.51303,21154
20.52238,20674
20.53172,20371
20.54107,21688
20.55040,25264
20.55973,44170
20.56908,107488
20.57842,194977
20.58775,181576
20.59710,105441
20.60643,44067
20.61577,27238
20.62512,25067
20.63445,25068
20.64378,28854
20.65313,27692
20.66247,27665
20.67180,23933
20.68115,24022
20.69048,25052
20.69982,23249
20.70917,23329
20.71850,23379
20.72785,22634
20.73718,21958
20.74652,22497
20.75587,21521
20.76520,20014
20.77453,21547
20.78388,22930
20.79322,23399
20.80255,23082
20.81190,23397
20.82123,22346
20.83057,20747
20.83992,20512
20.84925,19676
20.85858,19368
20.86793,18513
20.87727,18687
20.88662,20498
20.89595,21426
20.90528,20914
20.91463,20688
20.92397,19350
20.93330,17629
20.94265,18265
20.95198,18579
20.96132,18586
20.97067,18103
20.98000,17458
20.98933,17939
20.99868,18291
21.00802,19534
21.01735,19244
21.02670,17536
21.03603,19476
21.04537,18692
21.05472,18443
21.06405,19641
21.07340,18744
21.08273,18978
21.09207,19960
21.10142,19983
21.11075,22059
21.12008,22151
21.12943,21998
21.13877,20874
21.14810,19677
21.15745,20055
21.16678,21699
21.17612,23799
21.18547,29489
21.19480,29758
21.20413,26660
21.21348,25119
21.22282,22795
21.23215,22314
21.24150,21112
21.25083,23551
21.26018,25257
21.26952,27455
21.27885,29250
21.28820,30745
21.29753,28204
21.30687,25948
21.31622,23476
21.32555,21652
21.33488,20098
21.34423,20650
21.35357,21954
21.36290,22520
21.37225,25428
21.38158,27500
21.39092,28909
21.40027,25247
21.40960,24916
21.41893,23589
21.42828,23237
21.43762,22347
21.44697,21394
21.45630,20775
21.46563,20749
21.47498,21168
21.48432,23163
21.49365,24241
21.50300,23204
21.51233,22907
21.52167,21645
21.53102,21778
21.54035,22473
21.54968,30319
21.55903,39159
21.56837,45592
21.57770,45247
21.58705,36263
21.59638,29353
21.60572,25787
21.61507,23968
21.62440,23820
21.63375,22742
21.64308,21227
21.65242,20562
21.66177,21892
21.67110,22120
21.68043,24610
21.68978,25083
21.69912,23715
21.70845,22325
21.71780,22789
21.72713,24397
21.73647,27794
21.74582,40303
21.75515,60533
21.76448,77860
21.77383,71719
21.78317,48324
21.79252,30292
21.80185,23041
21.81118,24026
21.82053,24974
21.82987,23721
21.83920,22709
21.84855,21458
21.85788,22398
21.86722,21598
21.87657,24294
21.88590,25315
21.89523,27854
21.90458,28652
21.91392,27700
21.92325,26442
21.93260,24195
21.94193,22247
21.95127,21684
21.96062,23399
21.96995,25624
21.97930,29019
21.98863,31658
21.99797,32366
22.00732,28149
22.01665,23811
22.02598,22393
22.03533,21795
22.04467,23361
22.05400,24885
22.06335,24477
22.07268,24998
22.08202,24487
22.09137,24252
22.10070,23099
22.11003,23292
22.11938,22719
22.12872,20923
22.13805,21020
22.14740,23734
22.15673,25153
22.16608,28762
22.17542,30402
22.18475,27694
22.19410,24214
22.20343,22560
22.21277,23247
22.22212,23474
22.23145,24774
22.24078,23658
22.25013,24139
22.25947,21945
22.26880,23658
22.27815,24881
22.28748,27455
22.29682,27125
22.30617,26442
22.31550,23556
22.32483,21450
22.33418,21414
22.34352,20995
22.35287,22072
22.36220,24220
22.37153,24646
22.38088,22859
22.39022,22288
22.39955,21115
22.40890,19937
22.41823,20392
22.42757,20908
22.43692,22056
22.44625,22271
22.45558,22138
22.46493,21201
22.47427,21966
22.48360,21657
22.49295,21313
22.50228,19524
22.51163,20186
22.52097,19921
22.53030,20574
22.53965,21641
22.54898,20248
22.55832,21574
22.56767,21268
22.57700,22301
22.58633,23475
22.59568,23548
22.60502,22837
22.61435,24468
22.62370,23924
22.63303,22508
22.64237,21041
22.65172,21536
22.66105,20280
22.67038,20673
22.67973,22301
22.68907,23338
22.69842,25287
22.70775,23224
22.71708,21572
22.72643,21693
22.73577,25443
22.74510,25810
22.75445,27802
22.76378,27078
22.77312,26142
22.78247,25250
22.79180,23947
22.80113,22668
22.81048,22707
22.81982,23124
22.82915,23758
22.83850,22451
22.84783,23637
22.85717,22661
22.86652,23116
22.87585,22612
22.88520,21705
22.89453,23227
22.90387,21931
22.91322,22975
22.92255,22495
22.93188,22764
22.94123,21762
22.95057,21460
22.95990,21933
22.96925,20230
22.97858,20531
22.98792,20345
22.99727,19294
23.00660,20148
23.01593,20161
23.02528,19753
23.03462,20574
23.04395,20010
23.05330,19113
23.06263,20858
23.07198,22583
23.08132,21026
23.09065,20067
23.10000,19548
23.10933,19738
23.11867,19525
23.12802,19746
23.13735,19043
23.14668,20567
23.15603,19585
23.16537,18902
23.17470,20723
23.18405,19779
23.19338,19220
23.20272,21100
23.21207,18797
23.22140,20220
23.23073,18876
23.24008,21750
23.24942,22013
23.25877,23143
23.26810,24343
23.27743,24226
23.28678,22912
23.29612,23006
23.30545,22071
23.31480,23489
23.32413,23530
23.33347,28959
23.34282,31768
23.35215,27025
23.36148,23566
23.37083,21260
23.38017,21654
23.38950,20221
23.39885,21317
23.40818,20764
23.41752,20934
23.42687,20886
23.43620,21367
23.44555,22289
23.45488,21296
23.46422,21026
23.47357,22118
23.48290,21151
23.49223,19823
23.50158,20060
23.51092,19747
23.52025,21015
23.52960,21622
23.53893,21490
23.54827,21834
23.55762,21254
23.56695,21272
23.57628,20793
23.58563,20735
23.59497,21108
23.60432,20386
23.61365,20638
23.62298,19749
23.63233,19361
23.64167,19398
23.65100,18998
23.66035,20161
23.66968,20398
23.67902,21931
23.68837,21274
23.69770,21117
23.70703,21982
23.71638,22881
23.72572,22880
23.73505,22168
23.74440,22064
23.75373,20677
23.76307,20138
23.77242,20090
23.78175,20345
23.79110,19966
23.80043,20516
23.80977,21624
23.81912,20777
23.82845,21137
23.83778,20623
23.84713,20334
23.85647,20054
23.86580,20552
23.87515,20590
23.88448,21845
23.89382,20472
23.90317,20262
23.91250,21520
23.92183,21298
23.93118,20281
23.94052,21041
23.94985,20245
23.95920,21245
23.96853,19250
23.97788,20377
23.98722,20216
23.99655,19237
24.00590,19514
24.01523,20715
24.02457,19800
24.03392,19329
24.04325,18990
24.05258,20362
24.06193,19481
24.07127,19756
24.08060,20651
24.08995,20750
24.09928,19164
24.10862,19547
24.11797,19709
24.12730,19225
24.13663,20262
24.14598,20860
24.15532,20453
24.16467,21075
24.17400,20318
24.18333,20818
24.19268,20621
24.20202,20188
24.21135,20964
24.22070,20467
24.23003,20929
24.23937,21276
24.24872,20683
24.25805,20554
24.26738,19826
24.27673,20556
24.28607,20297
24.29540,20541
24.30475,19673
24.31408,21884
24.32343,23046
24.33277,22957
24.34210,21997
24.35145,21277
24.36078,21427
24.37012,21637
24.37947,20765
24.38880,21996
24.39813,21265
24.40748,20846
24.41682,21596
24.42615,21470
24.43550,21866
24.44483,20422
24.45417,21945
24.46352,20402
24.47285,21278
24.48218,20294
24.49153,21180
24.50087,20907
24.51022,20186
24.51955,19358
24.52888,20929
24.53823,19633
24.54757,20077
24.55690,21214
24.56625,20450
24.57558,20432
24.58492,20796
24.59427,19938
24.60360,20879
24.61293,20783
24.62228,22280
24.63162,21061
24.64095,20866
24.65030,21489
24.65963,20840
24.66897,22112
24.67832,22688
24.68765,21306
24.69700,20635
24.70633,20820
24.71567,21377
24.72502,21061
24.73435,21770
24.74368,21856
24.75303,21016
24.76237,21326
24.77170,21921
24.78105,21719
24.79038,21408
24.79972,21928
24.80907,21105
24.81840,21249
24.82773,21277
24.83708,22252
24.84642,21837
24.85575,22935
24.86510,22909
24.87443,23588
24.88378,21886
24.89312,23878
24.90245,23887
24.91180,23244
24.92113,22265
24.93047,22489
24.93982,22168
24.94915,21964
24.95848,22050
24.96783,23349
24.97717,22199
24.98650,22429
24.99585,21774
25.00518,22075
25.01452,20736
25.02387,22038
25.03320,20781
25.04253,20548
25.05188,21663
25.06122,20123
25.07057,20552
25.07990,20659
25.08923,21686
25.09858,19770
25.10792,19571
25.11725,20205
25.12660,20849
25.13593,21608
25.14527,21810
25.15462,22289
25.16395,22462
25.17328,22762
25.18263,22763
25.19197,23302
25.20130,20971
25.21065,21384
25.21998,21941
25.22933,21080
25.23867,22219
25.24800,21355
25.25735,21195
25.26668,21230
25.27602,21486
25.28537,21846
25.29470,22459
25.30403,25941
25.31338,40380
25.32272,67122
25.33205,96658
25.34140,92964
25.35073,63763
25.36007,41475
25.36942,31534
25.37875,30355
25.38808,27958
25.39743,26865
25.40677,25982
25.41612,26064
25.42545,24553
25.43478,25296
25.44413,26497
25.45347,25271
25.46280,25402
25.47215,26080
25.48148,27274
25.49082,28523
25.50017,28642
25.50950,26550
25.51883,27447
25.52818,27304
25.53752,24834
25.54685,26503
25.55620,26120
25.56553,25918
25.57487,25357
25.58422,25010
25.59355,24695
25.60290,24116
25.61223,23351
25.62157,25535
25.63092,24549
25.64025,26710
25.64958,25629
25.65893,25010
25.66827,25952
25.67760,25059
25.68695,25768
25.69628,26432
25.70562,25318
25.71497,26428
25.72430,26080
25.73363,26600
25.74298,26155
25.75232,26607
25.76165,27429
25.77100,25144
25.78033,24849
25.78968,25945
25.79902,26484
25.80835,26766
25.81770,27792
25.82703,26751
25.83637,26744
25.84572,26059
25.85505,26363
25.86438,24649
25.87373,24263
25.88307,24046
25.89240,24154
25.90175,23839
25.91108,24317
25.92042,26281
25.92977,25102
25.93910,24240
25.94845,25406
25.95778,25132
25.96712,25622
25.97647,24502
25.98580,23437
25.99513,23524
26.00448,24116
26.01382,22798
26.02315,22937
26.03250,23887
26.04183,23965
26.05117,24433
26.06052,23440
26.06985,24016
26.07918,23396
26.08853,24037
26.09787,24342
26.10720,24790
26.11655,23891
26.12588,25803
26.13523,24105
26.14457,27547
26.15390,25456
26.16325,24890
26.17258,24548
26.18192,24381
26.19127,23533
26.20060,22290
26.20993,24474
26.21928,23765
26.22862,24182
26.23795,23262
26.24730,23877
26.25663,21752
26.26597,22979
26.27532,23590
26.28465,22189
26.29398,23488
26.30333,24025
26.31267,22588
26.32202,24360
26.33135,23360
26.34068,22874
26.35003,22468
26.35937,23842
26.36870,22539
26.37805,22593
26.38738,22307
26.39672,23983
26.40607,23011
26.41540,23681
26.42473,22846
26.43408,23367
26.44342,23604
26.45275,25036
26.46210,25396
26.47143,24989
26.48077,25506
26.49012,25790
26.49945,26288
26.50880,25514
26.51813,24333
26.52747,24501
26.53682,25821
26.54615,25849
26.55548,26426
26.56483,24683
26.57417,25136
26.58350,24910
26.59285,24979
26.60218,23584
26.61152,24299
26.62087,25608
26.63020,24064
26.63953,24177
26.64888,24313
26.65822,23344
26.66755,22822
26.67690,24190
26.68623,22925
26.69558,23684
26.70492,23517
26.71425,25313
26.72360,24424
26.73293,25329
26.74227,23529
26.75162,24928
26.76095,25729
26.77028,24741
26.77963,24885
26.78897,25384
26.79830,24870
26.80765,26181
26.81698,25805
26.82632,26000
26.83567,26466
26.84500,26348
26.85433,25221
26.86368,25697
26.87302,25144
26.88237,24244
26.89170,25322
26.90103,24886
26.91038,23450
26.91972,25341
26.92905,25182
26.93840,25051
26.94773,23032
26.95707,24658
26.96642,24345
26.97575,24641
26.98508,24317
26.99443,23555
27.00377,23726
27.01310,25234
27.02245,25804
27.03178,24420
27.04113,23428
27.05047,26075
27.05980,24784
27.06915,26069
27.07848,26927
27.08782,25143
27.09717,24450
27.10650,25177
27.11583,23977
27.12518,24010
27.13452,24373
27.14385,24147
27.15320,25505
27.16253,24948
27.17187,24633
27.18122,25324
27.19055,26454
27.19988,25054
27.20923,24436
27.21857,24381
27.22792,26020
27.23725,25616
27.24658,27442
27.25593,28565
27.26527,29100
27.27460,27771
27.28395,26410
27.29328,26487
27.30262,27127
27.31197,26283
27.32130,27273
27.33063,27266
27.33998,26367
27.34932,26639
27.35865,26830
27.36800,26299
27.37733,24324
27.38667,25359
27.39602,26195
27.40535,26049
27.41470,26638
27.42403,28125
27.43337,27868
27.44272,27455
27.45205,27153
27.46138,26288
27.47073,25383
27.48007,25546
27.48940,26319
27.49875,25284
27.50808,25989
27.51742,27063
27.52677,26571
27.53610,25808
27.54543,26803
27.55478,26021
27.56412,25995
27.57345,26830
27.58280,26604
27.59213,26850
27.60148,25707
27.61082,25855
27.62015,26230
27.62950,24860
27.63883,24467
27.64817,27473
27.65752,30386
27.66685,40619
27.67618,56307
27.68553,65490
27.69487,57198
27.70420,46502
27.71355,41355
27.72288,34765
27.73222,34016
27.74157,30857
27.75090,31304
27.76025,30068
27.76958,31565
27.77892,29548
27.78827,31176
27.79760,31238
27.80693,29833
27.81628,31073
27.82562,30460
27.83495,30651
27.84430,29906
27.85363,29054
27.86297,29885
27.87232,28664
27.88165,28984
27.89098,28787
27.90033,27492
27.90967,28977
27.91900,28259
27.92835,29397
27.93768,29673
27.94703,27730
27.95637,29304
27.96570,28949
27.97505,28349
27.98438,29558
27.99372,29506
28.00307,27434
28.01240,29901
28.02173,28314
28.03108,28420
28.04042,29074
28.04975,30470
28.05910,27378
28.06843,29249
28.07777,29378
28.08712,28857
28.09645,28722
28.10578,29943
28.11513,30527
28.12447,30114
28.13382,30670
28.14315,31246
28.15248,30499
28.16183,29858
28.17117,30002
28.18050,30417
28.18985,30740
28.19918,30943
28.20852,30138
28.21787,28444
28.22720,29739
28.23653,28716
28.24588,30352
28.25522,29500
28.26455,29485
28.27390,29453
28.28323,30111
28.29257,28133
28.30192,30544
28.31125,28243
28.32060,29448
28.32993,29868
28.33927,29508
28.34862,30320
28.35795,30039
28.36728,29967
28.37663,28843
28.38597,30630
28.39530,31042
28.40465,29671
28.41398,31019
28.42332,31606
28.43267,31366
28.44200,30327
28.45133,31153
28.46068,30945
28.47002,31976
28.47935,31426
28.48870,30218
28.49803,32568
28.50738,31688
28.51672,30638
28.52605,30225
28.53540,31883
28.54473,31392
28.55407,30825
28.56342,29575
28.57275,30678
28.58208,32209
28.59143,31981
28.60077,30615
28.61010,31883
28.61945,31883
28.62878,31601
28.63812,32357
28.64747,31687
28.65680,36414
28.66615,48476
28.67548,63643
28.68482,72027
28.69417,67265
28.70350,54685
28.71283,44186
28.72218,40617
28.73152,40741
28.74085,38001
28.75020,37287
28.75953,37937
28.76887,35821
28.77822,37223
28.78755,35672
28.79688,36363
28.80623,35496
28.81557,36005
28.82490,36801
28.83425,35615
28.84358,34855
28.85293,35634
28.86227,35589
28.87160,34615
28.88095,34887
28.89028,33763
28.89962,34917
28.90897,35082
28.91830,35489
28.92763,34881
28.93698,35374
28.94632,35103
28.95565,36594
28.96500,34725
28.97433,35834
28.98367,35582
28.99302,34666
29.00235,36839
29.01168,35557
29.02103,34741
29.03037,36023
29.03972,37058
29.04905,36237
29.05838,35810
29.06773,35792
29.07707,36542
29.08640,35853
29.09575,35431
29.10508,36000
29.11442,35488
29.12377,37458
29.13310,37865
29.14243,36665
29.15178,38217
29.16112,37603
29.17045,38977
29.17980,38504
29.18913,38563
29.19847,38223
29.20782,40300
29.21715,39055
29.22650,39452
29.23583,38426
29.24517,36807
29.25452,38926
29.26385,36391
29.27318,37361
29.28253,39640
29.29187,37183
29.30120,37932
29.31055,38342
29.31988,37499
29.32922,36723
29.33857,38209
29.34790,38860
29.35723,36800
29.36658,37979
29.37592,38474
29.38527,38070
29.39460,39060
29.40393,39484
29.41328,38306
29.42262,38847
29.43195,39713
29.44130,39123
29.45063,39274
29.45997,42296
29.46932,43758
29.47865,42536
29.48798,41922
29.49733,41478
29.50667,40726
29.51600,39108
29.52535,38129
29.53468,40176
29.54402,38751
29.55337,40273
29.56270,39169
29.57205,38188
29.58138,38576
29.59072,38692
29.60007,38070
29.60940,40285
29.61873,39376
29.62808,40362
29.63742,41025
29.64675,39738
29.65610,40965
29.66543,39177
29.67477,40783
29.68412,38555
29.69345,39986
29.70278,39276
29.71213,39405
29.72147,40654
29.73080,40858
29.74015,41427
29.74948,38846
29.75883,38848
29.76817,39377
29.77750,41146
29.78685,40027
29.79618,40734
29.80552,40205
29.81487,39764
29.82420,40703
29.83353,40507
29.84288,40527
29.85222,38883
29.86155,40301
29.87090,41353
29.88023,40787
29.88957,40129
29.89892,41421
29.90825,40331
29.91758,40254
29.92693,39257
29.93627,38837
29.94562,38159
29.95495,39783
29.96428,41211
29.97363,39567
29.98297,40028
29.99230,39447
30.00165,40789
30.01098,40498
30.02032,40555
30.02967,42243
30.03900,41378
30.04833,42023
30.05768,41794
30.06702,41785
30.07635,42142
30.08570,41011
30.09503,42623
30.10437,39746
30.11372,42495
30.12305,42521
30.13240,41654
30.14173,42211
30.15107,41567
30.16042,41300
30.16975,41582
30.17908,42751
30.18843,41036
30.19777,40437
30.20710,40261
30.21645,40230
30.22578,41985
30.23512,41770
30.24447,40857
30.25380,40225
30.26313,41383
30.27248,42898
30.28182,39943
30.29115,41320
30.30050,40567
30.30983,40188
30.31918,42159
30.32852,42207
30.33785,42177
30.34720,42286
30.35653,42054
30.36587,42809
30.37522,42777
30.38455,43690
30.39388,45368
30.40323,44158
30.41257,42399
30.42190,42707
30.43125,43334
30.44058,43770
30.44992,42347
30.45927,43942
30.46860,43534
30.47795,42354
30.48728,42178
30.49662,42951
30.50597,42341
30.51530,43660
30.52463,42970
30.53398,43827
30.54332,45038
30.55265,43635
30.56200,42832
30.57133,43725
30.58067,46953
30.59002,48471
30.59935,49455
30.60868,52343
30.61803,52934
30.62737,54423
30.63670,55362
30.64605,57131
30.65538,59496
30.66473,59881
30.67407,61048
30.68340,58619
30.69275,56739
30.70208,55549
30.71142,53411
30.72077,52484
30.73010,50953
30.73943,51777
30.74878,50579
30.75812,49980
30.76745,48813
30.77680,49417
30.78613,49242
30.79547,49514
30.80482,50345
30.81415,49952
30.82348,52320
30.83283,52186
30.84217,53451
30.85152,55160
30.86085,53939
30.87018,55079
30.87953,54691
30.88887,58308
30.89820,58789
30.90755,57858
30.91688,59554
30.92622,57139
30.93557,57866
30.94490,56647
30.95423,54939
30.96358,57388
30.97292,56834
30.98225,55008
30.99160,55659
31.00093,53764
31.01028,53665
31.01962,50233
31.02895,53041
31.03830,52948
31.04763,50844
31.05697,50349
31.06632,50052
31.07565,51459
31.08498,50295
31.09433,53112
31.10367,50735
31.11300,51118
31.12235,51855
31.13168,51769
31.14102,52653
31.15037,53402
31.15970,53502
31.16903,52200
31.17838,54388
31.18772,53890
31.19707,52734
31.20640,53175
31.21573,54768
31.22508,55117
31.23442,56976
31.24375,56371
31.25310,55765
31.26243,54667
31.27177,56238
31.28112,55796
31.29045,55284
31.29978,55122
31.30913,54157
31.31847,57224
31.32780,55489
31.33715,56417
31.34648,57773
31.35582,58885
31.36517,57433
