D:\数据\20220119\ZS1E-Z-000335.D Wed Jan 19 18:53:33 2022
Start of data points
0.09743,51179
0.10677,60036
0.11612,69498
0.12545,77494
0.13478,77053
0.14413,72530
0.15347,65711
0.16280,63204
0.17215,57551
0.18148,55381
0.19082,49167
0.20017,47128
0.20950,44148
0.21883,42771
0.22818,40572
0.23752,39054
0.24687,36523
0.25620,36402
0.26553,33425
0.27488,34047
0.28422,32380
0.29355,32046
0.30290,31360
0.31223,32184
0.32157,28545
0.33092,29628
0.34025,29289
0.34958,28143
0.35893,28835
0.36827,28170
0.37760,28050
0.38695,28307
0.39628,28723
0.40562,27078
0.41497,25875
0.42430,25458
0.43365,21853
0.44298,18056
0.45232,13486
0.46167,10925
0.47100,10713
0.48033,10137
0.48968,9381
0.49902,10218
0.50835,9181
0.51770,9920
0.52703,9735
0.53637,9105
0.54572,8998
0.55505,8909
0.56438,8992
0.57373,8510
0.58307,8856
0.59242,8636
0.60175,8180
0.61108,8637
0.62043,8412
0.62977,8883
0.63910,8361
0.64845,8025
0.65778,8014
0.66712,8086
0.67647,8705
0.68580,8069
0.69513,8370
0.70448,8140
0.71382,7951
0.72315,7568
0.73250,7694
0.74183,8050
0.75117,8171
0.76052,7617
0.76985,8071
0.77920,7941
0.78853,7889
0.79787,8148
0.80722,7962
0.81655,8109
0.82588,7484
0.83523,7497
0.84457,7858
0.85390,7681
0.86325,7324
0.87258,7387
0.88192,7510
0.89127,7488
0.90060,7605
0.90993,7778
0.91928,7574
0.92862,7651
0.93795,7442
0.94730,7639
0.95663,7186
0.96598,7618
0.97532,7201
0.98465,7745
0.99400,7440
1.00333,7785
1.01267,7451
1.02202,7899
1.03135,7746
1.04068,7719
1.05003,7634
1.05937,7556
1.06870,7583
1.07805,7061
1.08738,7416
1.09672,7537
1.10607,7878
1.11540,7207
1.12475,7138
1.13408,7365
1.14342,7219
1.15277,7190
1.16210,7187
1.17143,7421
1.18078,7690
1.19012,7579
1.19945,6403
1.20880,7280
1.21813,6708
1.22747,7902
1.23682,7155
1.24615,6840
1.25548,7257
1.26483,6900
1.27417,7732
1.28350,7121
1.29285,6791
1.30218,8080
1.31153,7126
1.32087,7650
1.33020,7240
1.33955,6637
1.34888,6398
1.35822,7256
1.36757,7154
1.37690,6925
1.38623,6507
1.39558,7101
1.40492,7384
1.41425,6814
1.42360,7029
1.43293,7232
1.44227,6415
1.45162,6830
1.46095,6636
1.47028,6518
1.47963,6681
1.48897,7063
1.49832,6668
1.50765,6659
1.51698,6502
1.52633,6465
1.53567,6349
1.54500,7014
1.55435,6794
1.56368,6450
1.57302,6954
1.58237,7627
1.59170,12028
1.60103,18002
1.61038,22517
1.61972,30820
1.62905,59508
1.63840,103674
1.64773,134223
1.65707,138224
1.66642,116061
1.67575,83348
1.68510,57109
1.69443,39003
1.70377,25419
1.71312,21886
1.72245,22509
1.73178,23863
1.74113,26201
1.75047,27515
1.75980,28347
1.76915,29428
1.77848,30830
1.78782,29611
1.79717,29290
1.80650,30115
1.81583,28761
1.82518,31486
1.83452,30745
1.84385,30619
1.85320,31283
1.86253,31502
1.87188,36541
1.88122,50689
1.89055,89083
1.89990,166241
1.90923,261250
1.91857,321147
1.92792,364465
1.93725,430014
1.94658,512875
1.95593,553644
1.96527,538446
1.97460,469566
1.98395,367792
1.99328,266076
2.00262,200997
2.01197,179177
2.02130,212559
2.03063,247073
2.03998,222769
2.04932,180466
2.05867,148554
2.06800,130436
2.07733,202307
2.08668,1246712
2.09602,4174943
2.10535,5106520
2.11470,3500458
2.12403,1816688
2.13337,863450
2.14272,472234
2.15205,288018
2.16138,189282
2.17073,139091
2.18007,116503
2.18940,148104
2.19875,188683
2.20808,152335
2.21743,106887
2.22677,102797
2.23610,138577
2.24545,229181
2.25478,1051050
2.26412,1907071
2.27347,1658901
2.28280,1083385
2.29213,651138
2.30148,755393
2.31082,3982055
2.32015,1.145449E+07
2.32950,1.276699E+07
2.33883,7776954
2.34817,3454114
2.35752,1449168
2.36685,674280
2.37618,415754
2.38553,389557
2.39487,369235
2.40422,288335
2.41355,210771
2.42288,160134
2.43223,138417
2.44157,117186
2.45090,99599
2.46025,89095
2.46958,93650
2.47892,99470
2.48827,95096
2.49760,87733
2.50693,85450
2.51628,86568
2.52562,85963
2.53495,81994
2.54430,80318
2.55363,90423
2.56297,99951
2.57232,119942
2.58165,164727
2.59100,156054
2.60033,137368
2.60967,144145
2.61902,184867
2.62835,213035
2.63768,186776
2.64703,153548
2.65637,142460
2.66570,123080
2.67505,103726
2.68438,85505
2.69372,73387
2.70307,76154
2.71240,107335
2.72173,150723
2.73108,175354
2.74042,183080
2.74977,200841
2.75910,221273
2.76843,266255
2.77778,352954
2.78712,466971
2.79645,510522
2.80580,508664
2.81513,527270
2.82447,561732
2.83382,594571
2.84315,623905
2.85248,682271
2.86183,770209
2.87117,853440
2.88050,891598
2.88985,501362
2.89918,228095
2.90852,165694
2.91787,139577
2.92720,121607
2.93655,106622
2.94588,94891
2.95522,86156
2.96457,80017
2.97390,78263
2.98323,80987
2.99258,95137
3.00192,135995
3.01125,155681
3.02060,139247
3.02993,130938
3.03927,185466
3.04862,217637
3.05795,252211
3.06728,352024
3.07663,504900
3.08597,620939
3.09530,564003
3.10465,373356
3.11398,206777
3.12333,119654
3.13267,87029
3.14200,75784
3.15135,76250
3.16068,78439
3.17002,80703
3.17937,82151
3.18870,76510
3.19803,74668
3.20738,72962
3.21672,71126
3.22605,64847
3.23540,63630
3.24473,61391
3.25407,71148
3.26342,79743
3.27275,90810
3.28208,88813
3.29143,81608
3.30077,74285
3.31012,70651
3.31945,64471
3.32878,64396
3.33813,64979
3.34747,61869
3.35680,57137
3.36615,53032
3.37548,48916
3.38482,46763
3.39417,47063
3.40350,50109
3.41283,59660
3.42218,69192
3.43152,69437
3.44085,67503
3.45020,70826
3.45953,66403
3.46887,61990
3.47822,57433
3.48755,58977
3.49690,59277
3.50623,57812
3.51557,57904
3.52492,54233
3.53425,57424
3.54358,69278
3.55293,148964
3.56227,314729
3.57160,476152
3.58095,485086
3.59028,375778
3.59962,241712
3.60897,147096
3.61830,109030
3.62763,94895
3.63698,80315
3.64632,67613
3.65565,64477
3.66500,67421
3.67433,78805
3.68368,92797
3.69302,92880
3.70235,81257
3.71170,66873
3.72103,59945
3.73037,59877
3.73972,58146
3.74905,58675
3.75838,54974
3.76773,49889
3.77707,48203
3.78640,47258
3.79575,52859
3.80508,81885
3.81442,133181
3.82377,157505
3.83310,127688
3.84245,89097
3.85178,69586
3.86112,61194
3.87047,54977
3.87980,54767
3.88913,64297
3.89848,91816
3.90782,127634
3.91715,133195
3.92650,103254
3.93583,86504
3.94517,114337
3.95452,127936
3.96385,113273
3.97318,89533
3.98253,76177
3.99187,63977
4.00120,62483
4.01055,60532
4.01988,64420
4.02923,77101
4.03857,108205
4.04790,141695
4.05725,133722
4.06658,99094
4.07592,87457
4.08527,98644
4.09460,104652
4.10393,97083
4.11328,77573
4.12262,58523
4.13195,50366
4.14130,50622
4.15063,49900
4.15997,51737
4.16932,47114
4.17865,44283
4.18798,48806
4.19733,63141
4.20667,77331
4.21602,75187
4.22535,65243
4.23468,54233
4.24403,47582
4.25337,51741
4.26270,59919
4.27205,60063
4.28138,61029
4.29072,55118
4.30007,49627
4.30940,48868
4.31873,51583
4.32808,57886
4.33742,61010
4.34675,63983
4.35610,59899
4.36543,57430
4.37477,64326
4.38412,75361
4.39345,72485
4.40280,59607
4.41213,48340
4.42147,42584
4.43082,40769
4.44015,41086
4.44948,40131
4.45883,43740
4.46817,54548
4.47750,63782
4.48685,67626
4.49618,60473
4.50552,51019
4.51487,45649
4.52420,46617
4.53353,49718
4.54288,52728
4.55222,50719
4.56157,44229
4.57090,43733
4.58023,40487
4.58958,41135
4.59892,41288
4.60825,41662
4.61760,40002
4.62693,41213
4.63627,47122
4.64562,57012
4.65495,63172
4.66428,63784
4.67363,55440
4.68297,49781
4.69230,51962
4.70165,54232
4.71098,52839
4.72032,45947
4.72967,50293
4.73900,57021
4.74835,55091
4.75768,51419
4.76702,47802
4.77637,45177
4.78570,45781
4.79503,43912
4.80438,44637
4.81372,46694
4.82305,49557
4.83240,52715
4.84173,51275
4.85107,47632
4.86042,47146
4.86975,47901
4.87908,51603
4.88843,48360
4.89777,43333
4.90710,41014
4.91645,41886
4.92578,40906
4.93513,42756
4.94447,44216
4.95380,43390
4.96315,41802
4.97248,40455
4.98182,39130
4.99117,41598
5.00050,44238
5.00983,43788
5.01918,45393
5.02852,48036
5.03785,48021
5.04720,47848
5.05653,48077
5.06587,45620
5.07522,48993
5.08455,51775
5.09388,53248
5.10323,52502
5.11257,49380
5.12192,46417
5.13125,44545
5.14058,45066
5.14993,46069
5.15927,46298
5.16860,42703
5.17795,45420
5.18728,48541
5.19662,50937
5.20597,48805
5.21530,45617
5.22463,43137
5.23398,44716
5.24332,47769
5.25265,46794
5.26200,51788
5.27133,92028
5.28067,196510
5.29002,318192
5.29935,314499
5.30870,214825
5.31803,120384
5.32737,68401
5.33672,53430
5.34605,50617
5.35538,47843
5.36473,46059
5.37407,45408
5.38340,47189
5.39275,46996
5.40208,47845
5.41142,44848
5.42077,43450
5.43010,42575
5.43943,41950
5.44878,42473
5.45812,40873
5.46747,45697
5.47680,49340
5.48613,50940
5.49548,49826
5.50482,50849
5.51415,53897
5.52350,65670
5.53283,77385
5.54217,73271
5.55152,60120
5.56085,50291
5.57018,47610
5.57953,47318
5.58887,47730
5.59820,44974
5.60755,42321
5.61688,41639
5.62622,41423
5.63557,42614
5.64490,41279
5.65425,41585
5.66358,40091
5.67292,41173
5.68227,43613
5.69160,46131
5.70093,46706
5.71028,50391
5.71962,48526
5.72895,45885
5.73830,51253
5.74763,58918
5.75697,63157
5.76632,57891
5.77565,54263
5.78498,48414
5.79433,46497
5.80367,44634
5.81300,42464
5.82235,45527
5.83168,55368
5.84103,56004
5.85037,50518
5.85970,43599
5.86905,41598
5.87838,39295
5.88772,34827
5.89707,34035
5.90640,38499
5.91573,48995
5.92508,59082
5.93442,62647
5.94375,63667
5.95310,72005
5.96243,67945
5.97177,57793
5.98112,47200
5.99045,45131
5.99978,44089
6.00913,47561
6.01847,44694
6.02782,37757
6.03715,30290
6.04648,25347
6.05583,26909
6.06517,31212
6.07450,31759
6.08385,28599
6.09318,23084
6.10252,24879
6.11187,30486
6.12120,42309
6.13053,54362
6.13988,55344
6.14922,42697
6.15855,29835
6.16790,23552
6.17723,23993
6.18658,23505
6.19592,22068
6.20525,21498
6.21460,23869
6.22393,29515
6.23327,39069
6.24262,57050
6.25195,60920
6.26128,47408
6.27063,38999
6.27997,37293
6.28930,34660
6.29865,29511
6.30798,28716
6.31732,29174
6.32667,29002
6.33600,33437
6.34533,34395
6.35468,34511
6.36402,36475
6.37337,41976
6.38270,54593
6.39203,85552
6.40138,180574
6.41072,350194
6.42005,402220
6.42940,272661
6.43873,136899
6.44807,75992
6.45742,57567
6.46675,49666
6.47608,47104
6.48543,47946
6.49477,49923
6.50410,50923
6.51345,48892
6.52278,45550
6.53212,46128
6.54147,43232
6.55080,42254
6.56015,40161
6.56948,41390
6.57882,42905
6.58817,41879
6.59750,42386
6.60683,42486
6.61618,43485
6.62552,42089
6.63485,42845
6.64420,45009
6.65353,45748
6.66287,46492
6.67222,44416
6.68155,43009
6.69088,44697
6.70023,46218
6.70957,49856
6.71890,45026
6.72825,42889
6.73758,40430
6.74693,37134
6.75627,35916
6.76560,37867
6.77495,36598
6.78428,38279
6.79362,45060
6.80297,48778
6.81230,45097
6.82163,39778
6.83098,34388
6.84032,33073
6.84965,33321
6.85900,33249
6.86833,33611
6.87767,33641
6.88702,42339
6.89635,70834
6.90568,118303
6.91503,138593
6.92437,108312
6.93372,62883
6.94305,39177
6.95238,34330
6.96173,33106
6.97107,33598
6.98040,31022
6.98975,32706
6.99908,33384
7.00842,36313
7.01777,35549
7.02710,34960
7.03643,31714
7.04578,29037
7.05512,26408
7.06445,25924
7.07380,27453
7.08313,27662
7.09247,28854
7.10182,31424
7.11115,32743
7.12050,33612
7.12983,31763
7.13917,29590
7.14852,27694
7.15785,26727
7.16718,25280
7.17653,24636
7.18587,24672
7.19520,25635
7.20455,25360
7.21388,26633
7.22322,34256
7.23257,51261
7.24190,70724
7.25123,64685
7.26058,46063
7.26992,36945
7.27927,32916
7.28860,29366
7.29793,25703
7.30728,24438
7.31662,23355
7.32595,23258
7.33530,21777
7.34463,21842
7.35397,22305
7.36332,21419
7.37265,23109
7.38198,28270
7.39133,43247
7.40067,74252
7.41000,100776
7.41935,95646
7.42868,70731
7.43802,44847
7.44737,31463
7.45670,24063
7.46605,23372
7.47538,25722
7.48472,29356
7.49407,30720
7.50340,29386
7.51273,23304
7.52208,22225
7.53142,23894
7.54075,25141
7.55010,24932
7.55943,27773
7.56877,28282
7.57812,31711
7.58745,33687
7.59678,33542
7.60613,31672
7.61547,32044
7.62480,32675
7.63415,30149
7.64348,27157
7.65283,25136
7.66217,27869
7.67150,41780
7.68085,59943
7.69018,60353
7.69952,47315
7.70887,35251
7.71820,30695
7.72753,36448
7.73688,40232
7.74622,39947
7.75555,36881
7.76490,34464
7.77423,30112
7.78357,31314
7.79292,31212
7.80225,30453
7.81158,24505
7.82093,23898
7.83027,24313
7.83962,25433
7.84895,34957
7.85828,51956
7.86763,75457
7.87697,76703
7.88630,54626
7.89565,37543
7.90498,38333
7.91432,53714
7.92367,64705
7.93300,52816
7.94233,45262
7.95168,60432
7.96102,61855
7.97035,53875
7.97970,42248
7.98903,35836
7.99838,30782
8.00772,32614
8.01705,42980
8.02640,63279
8.03573,63639
8.04507,55055
8.05442,40386
8.06375,28074
8.07308,24674
8.08243,24216
8.09177,31577
8.10110,36078
8.11045,33878
8.11978,25849
8.12912,23117
8.13847,22465
8.14780,22509
8.15713,21276
8.16648,19462
8.17582,21414
8.18517,20845
8.19450,22234
8.20383,23266
8.21318,23383
8.22252,24078
8.23185,26818
8.24120,27156
8.25053,26397
8.25987,24325
8.26922,23671
8.27855,23479
8.28788,24107
8.29723,24143
8.30657,22786
8.31590,20497
8.32525,21218
8.33458,21937
8.34392,21389
8.35327,23802
8.36260,23437
8.37195,26969
8.38128,34726
8.39062,34759
8.39997,34822
8.40930,32995
8.41863,31719
8.42798,31331
8.43732,29331
8.44665,28514
8.45600,27127
8.46533,28636
8.47467,28634
8.48402,27859
8.49335,28406
8.50268,25645
8.51203,27093
8.52137,27571
8.53070,30597
8.54005,28677
8.54938,28884
8.55873,32462
8.56807,31119
8.57740,29733
8.58675,28886
8.59608,29284
8.60542,29234
8.61477,26408
8.62410,23407
8.63343,22641
8.64278,21998
8.65212,23696
8.66145,23363
8.67080,24605
8.68013,22453
8.68947,23148
8.69882,23212
8.70815,22316
8.71748,22427
8.72683,23544
8.73617,25179
8.74552,25449
8.75485,25156
8.76418,26524
8.77353,27038
8.78287,30882
8.79220,37818
8.80155,48015
8.81088,59029
8.82022,57015
8.82957,37441
8.83890,27476
8.84823,24417
8.85758,23212
8.86692,22871
8.87625,22913
8.88560,23231
8.89493,26472
8.90428,26351
8.91362,26199
8.92295,24231
8.93230,22638
8.94163,23513
8.95097,23041
8.96032,24406
8.96965,22557
8.97898,21659
8.98833,22489
8.99767,22771
9.00700,24325
9.01635,25426
9.02568,25926
9.03502,25206
9.04437,25069
9.05370,25434
9.06303,26849
9.07238,26808
9.08172,26901
9.09107,26961
9.10040,25737
9.10973,27280
9.11908,41718
9.12842,80038
9.13775,119246
9.14710,110803
9.15643,66256
9.16577,35064
9.17512,26668
9.18445,25074
9.19378,24782
9.20313,26668
9.21247,31812
9.22180,42655
9.23115,56445
9.24048,54697
9.24982,46799
9.25917,40495
9.26850,35980
9.27785,30862
9.28718,26713
9.29652,25609
9.30587,25869
9.31520,25455
9.32453,29692
9.33388,32846
9.34322,32818
9.35255,43970
9.36190,88866
9.37123,151574
9.38057,162918
9.38992,120996
9.39925,71831
9.40858,51973
9.41793,46043
9.42727,48298
9.43660,42969
9.44595,32118
9.45528,25428
9.46463,23530
9.47397,24511
9.48330,22780
9.49265,23233
9.50198,24610
9.51132,23482
9.52067,25060
9.53000,26871
9.53933,30601
9.54868,34134
9.55802,35971
9.56735,36541
9.57670,32922
9.58603,26785
9.59537,27028
9.60472,27255
9.61405,26862
9.62340,26998
9.63273,26367
9.64207,26683
9.65142,28314
9.66075,26067
9.67008,26853
9.67943,25205
9.68877,23769
9.69810,24289
9.70745,25247
9.71678,46620
9.72612,174028
9.73547,535183
9.74480,932798
9.75413,861228
9.76348,492841
9.77282,228710
9.78215,124430
9.79150,90504
9.80083,71348
9.81018,59050
9.81952,55075
9.82885,57724
9.83820,59206
9.84753,58270
9.85687,51277
9.86622,47496
9.87555,53238
9.88488,69860
9.89423,78544
9.90357,65889
9.91290,58102
9.92225,56546
9.93158,50591
9.94092,41690
9.95027,37330
9.95960,36185
9.96893,47607
9.97828,73512
9.98762,104616
9.99697,106992
10.00630,77165
10.01563,54832
10.02498,41738
10.03432,33718
10.04365,32958
10.05300,32858
10.06233,42642
10.07167,50534
10.08102,53239
10.09035,47133
10.09968,41472
10.10903,59244
10.11837,120512
10.12770,206658
10.13705,226936
10.14638,301304
10.15572,743955
10.16507,1304365
10.17440,1128688
10.18375,489383
10.19308,129464
10.20242,45700
10.21177,36266
10.22110,34992
10.23043,40444
10.23978,52429
10.24912,55482
10.25845,44913
10.26780,34955
10.27713,29711
10.28647,32130
10.29582,36758
10.30515,39699
10.31448,39673
10.32383,35395
10.33317,29897
10.34250,27981
10.35185,30159
10.36118,29854
10.37053,30287
10.37987,27856
10.38920,25397
10.39855,27551
10.40788,32654
10.41722,36889
10.42657,38768
10.43590,35827
10.44523,40530
10.45458,47234
10.46392,47388
10.47325,41738
10.48260,31811
10.49193,26932
10.50127,26623
10.51062,32034
10.51995,37235
10.52928,41942
10.53863,40042
10.54797,35125
10.55732,32622
10.56665,30685
10.57598,31929
10.58533,32215
10.59467,31852
10.60400,31289
10.61335,29942
10.62268,33383
10.63202,37310
10.64137,38982
10.65070,34043
10.66003,29094
10.66938,31445
10.67872,32258
10.68805,33295
10.69740,31706
10.70673,34388
10.71608,41508
10.72542,42494
10.73475,36474
10.74410,45054
10.75343,81536
10.76277,120011
10.77212,117698
10.78145,103808
10.79078,184288
10.80013,353474
10.80947,407739
10.81880,273642
10.82815,119366
10.83748,54355
10.84682,39814
10.85617,45397
10.86550,68076
10.87483,99189
10.88418,95117
10.89352,73928
10.90287,53249
10.91220,39047
10.92153,36591
10.93088,36041
10.94022,35921
10.94955,35243
10.95890,34772
10.96823,36439
10.97757,34568
10.98692,30482
10.99625,29435
11.00558,29062
11.01493,31096
11.02427,29241
11.03360,29290
11.04295,27683
11.05228,26900
11.06162,26077
11.07097,27544
11.08030,25922
11.08965,27311
11.09898,30757
11.10832,35713
11.11767,35596
11.12700,32718
11.13633,30571
11.14568,28299
11.15502,28733
11.16435,39028
11.17370,63871
11.18303,98064
11.19237,95729
11.20172,60894
11.21105,32627
11.22038,28154
11.22973,28524
11.23907,29488
11.24840,28468
11.25775,29048
11.26708,32343
11.27643,31150
11.28577,29106
11.29510,28708
11.30445,30106
11.31378,32014
11.32312,34212
11.33247,38057
11.34180,48902
11.35113,57394
11.36048,59636
11.36982,46819
11.37915,37747
11.38850,33504
11.39783,37618
11.40717,40976
11.41652,37535
11.42585,34245
11.43520,32767
11.44453,36290
11.45387,39750
11.46322,46113
11.47255,48867
11.48188,41640
11.49123,33360
11.50057,27973
11.50990,27315
11.51925,25905
11.52858,25120
11.53792,25403
11.54727,29049
11.55660,37627
11.56593,55040
11.57528,72475
11.58462,82468
11.59395,76067
11.60330,67615
11.61263,53801
11.62198,45465
11.63132,38415
11.64065,37547
11.65000,43148
11.65933,44918
11.66867,41206
11.67802,39590
11.68735,45201
11.69668,69561
11.70603,98480
11.71537,91141
11.72470,64447
11.73405,45893
11.74338,37281
11.75272,37576
11.76207,34266
11.77140,34424
11.78073,39726
11.79008,41224
11.79942,40022
11.80877,35759
11.81810,31713
11.82743,33383
11.83678,34498
11.84612,32567
11.85545,33056
11.86480,32770
11.87413,34597
11.88347,34640
11.89282,33357
11.90215,30638
11.91148,29018
11.92083,28859
11.93017,29659
11.93950,34645
11.94885,39818
11.95818,38100
11.96752,32136
11.97687,29110
11.98620,29483
11.99555,31685
12.00488,41018
12.01422,49065
12.02357,48830
12.03290,42308
12.04223,33942
12.05158,31661
12.06092,29489
12.07025,26125
12.07960,27414
12.08893,27204
12.09827,28765
12.10762,28890
12.11695,28120
12.12628,25779
12.13563,27315
12.14497,29092
12.15430,32062
12.16365,48257
12.17298,74675
12.18233,88805
12.19167,69277
12.20100,46569
12.21035,40426
12.21968,41579
12.22902,46214
12.23837,44646
12.24770,35535
12.25703,33698
12.26638,51739
12.27572,87056
12.28505,104121
12.29440,81954
12.30373,51191
12.31307,37403
12.32242,35598
12.33175,35115
12.34110,35731
12.35043,33857
12.35977,32211
12.36912,35920
12.37845,38364
12.38778,36706
12.39713,36275
12.40647,31057
12.41580,32092
12.42515,32674
12.43448,31012
12.44382,28207
12.45317,28963
12.46250,33748
12.47183,36280
12.48118,39267
12.49052,39127
12.49985,40155
12.50920,39103
12.51853,37204
12.52788,36864
12.53722,33783
12.54655,33160
12.55590,35142
12.56523,37359
12.57457,37126
12.58392,32729
12.59325,29662
12.60258,28929
12.61193,28462
12.62127,31609
12.63060,36933
12.63995,42071
12.64928,44050
12.65862,42691
12.66797,39388
12.67730,33962
12.68663,31795
12.69598,30057
12.70532,31331
12.71467,33460
12.72400,30971
12.73333,31987
12.74268,32393
12.75202,32528
12.76135,32533
12.77070,31387
12.78003,32067
12.78937,34358
12.79872,36125
12.80805,35641
12.81738,35289
12.82673,36540
12.83607,34809
12.84540,31688
12.85475,28480
12.86408,28994
12.87342,30108
12.88277,30543
12.89210,33011
12.90145,31152
12.91078,28613
12.92012,27245
12.92947,26564
12.93880,27172
12.94813,27938
12.95748,29591
12.96682,30306
12.97615,26553
12.98550,25003
12.99483,25470
13.00417,29687
13.01352,30900
13.02285,37165
13.03218,42659
13.04153,46022
13.05087,46943
13.06022,47535
13.06955,42043
13.07888,38301
13.08823,33144
13.09757,32683
13.10690,31732
13.11625,33961
13.12558,36660
13.13492,41672
13.14427,41063
13.15360,39829
13.16293,43943
13.17228,45123
13.18162,43599
13.19095,69841
13.20030,158487
13.20963,310980
13.21897,335255
13.22832,212372
13.23765,116816
13.24700,107670
13.25633,112302
13.26567,89163
13.27502,62844
13.28435,45460
13.29368,41206
13.30303,43388
13.31237,49064
13.32170,51610
13.33105,48130
13.34038,41588
13.34972,39222
13.35907,34700
13.36840,31896
13.37773,30962
13.38708,33679
13.39642,41566
13.40575,42605
13.41510,37241
13.42443,32992
13.43378,36550
13.44312,38744
13.45245,37250
13.46180,35290
13.47113,34977
13.48047,38110
13.48982,37511
13.49915,35667
13.50848,41738
13.51783,66314
13.52717,96661
13.53650,96159
13.54585,64496
13.55518,40464
13.56452,32941
13.57387,29392
13.58320,28784
13.59253,27696
13.60188,30328
13.61122,30670
13.62057,33106
13.62990,39984
13.63923,54227
13.64858,66343
13.65792,61944
13.66725,47797
13.67660,36235
13.68593,33360
13.69527,30721
13.70462,29743
13.71395,27471
13.72328,26110
13.73263,25681
13.74197,26962
13.75130,29273
13.76065,30454
13.76998,29550
13.77932,28193
13.78867,31467
13.79800,35204
13.80735,38055
13.81668,35411
13.82602,32573
13.83537,30601
13.84470,30068
13.85403,30569
13.86338,31400
13.87272,33826
13.88205,39462
13.89140,56202
13.90073,92377
13.91007,172913
13.91942,252679
13.92875,212860
13.93808,111873
13.94743,54897
13.95677,42140
13.96610,40228
13.97545,39799
13.98478,45653
13.99413,48765
14.00347,50367
14.01280,43279
14.02215,37820
14.03148,37941
14.04082,106866
14.05017,654460
14.05950,2653636
14.06883,6139954
14.07818,7235252
14.08752,4041998
14.09685,1018626
14.10620,173218
14.11553,63174
14.12487,51097
14.13422,47503
14.14355,47383
14.15290,47189
14.16223,46764
14.17157,49054
14.18092,49577
14.19025,60251
14.19958,68119
14.20893,56735
14.21827,41108
14.22760,33651
14.23695,30568
14.24628,29756
14.25562,29163
14.26497,32830
14.27430,33463
14.28363,31568
14.29298,29998
14.30232,31042
14.31165,34250
14.32100,45338
14.33033,56857
14.33968,60653
14.34902,56061
14.35835,48229
14.36770,37428
14.37703,31718
14.38637,30097
14.39572,30212
14.40505,29706
14.41438,28533
14.42373,27740
14.43307,27182
14.44240,32178
14.45175,37787
14.46108,48037
14.47042,48705
14.47977,45554
14.48910,38910
14.49843,32355
14.50778,31943
14.51712,29635
14.52647,27350
14.53580,28166
14.54513,29967
14.55448,31376
14.56382,33601
14.57315,32753
14.58250,31826
14.59183,28207
14.60117,28896
14.61052,27433
14.61985,29558
14.62918,30313
14.63853,37653
14.64787,49861
14.65720,59100
14.66655,56990
14.67588,46824
14.68522,36599
14.69457,32823
14.70390,31430
14.71325,30144
14.72258,33392
14.73192,34633
14.74127,38561
14.75060,41743
14.75993,43721
14.76928,40035
14.77862,37016
14.78795,34772
14.79730,33587
14.80663,31881
14.81597,33656
14.82532,33683
14.83465,31301
14.84398,31139
14.85333,33013
14.86267,38162
14.87202,46888
14.88135,48433
14.89068,45118
14.90003,37892
14.90937,33704
14.91870,32371
14.92805,33159
14.93738,29561
14.94672,29364
14.95607,30816
14.96540,33179
14.97473,36090
14.98408,35492
14.99342,36954
15.00275,40035
15.01210,43951
15.02143,43327
15.03077,38906
15.04012,36354
15.04945,38436
15.05880,39165
15.06813,37571
15.07747,35007
15.08682,31636
15.09615,30629
15.10548,31721
15.11483,35419
15.12417,41199
15.13350,43933
15.14285,42441
15.15218,38873
15.16152,40572
15.17087,39607
15.18020,39780
15.18953,39887
15.19888,48102
15.20822,66086
15.21755,80301
15.22690,72079
15.23623,56451
15.24558,41747
15.25492,35666
15.26425,33802
15.27360,33912
15.28293,34903
15.29227,33358
15.30162,34551
15.31095,32941
15.32028,37082
15.32963,39467
15.33897,43406
15.34830,39267
15.35765,38205
15.36698,44131
15.37632,47804
15.38567,45934
15.39500,34797
15.40433,31968
15.41368,33681
15.42302,37384
15.43237,36069
15.44170,34244
15.45103,32858
15.46038,32029
15.46972,30442
15.47905,30911
15.48840,34203
15.49773,37809
15.50707,53169
15.51642,75949
15.52575,84037
15.53508,63560
15.54443,43936
15.55377,36463
15.56310,32348
15.57245,33723
15.58178,35768
15.59112,36185
15.60047,35323
15.60980,34191
15.61915,34722
15.62848,35768
15.63782,37383
15.64717,39244
15.65650,43408
15.66583,45920
15.67518,46003
15.68452,43549
15.69385,46032
15.70320,54563
15.71253,55892
15.72187,50348
15.73122,46278
15.74055,46038
15.74988,47822
15.75923,48516
15.76857,49971
15.77792,45011
15.78725,40495
15.79658,40627
15.80593,67733
15.81527,145184
15.82460,273020
15.83395,376421
15.84328,362414
15.85262,250440
15.86197,136502
15.87130,71962
15.88063,59295
15.88998,64357
15.89932,71431
15.90865,68834
15.91800,55741
15.92733,45946
15.93667,40458
15.94602,38529
15.95535,40417
15.96470,49351
15.97403,68461
15.98337,80291
15.99272,78468
16.00205,66847
16.01138,54127
16.02073,43902
16.03007,38813
16.03940,39140
16.04875,39868
16.05808,41277
16.06742,39945
16.07677,41405
16.08610,38231
16.09543,39350
16.10478,45828
16.11412,63003
16.12345,73338
16.13280,71794
16.14213,57591
16.15148,49808
16.16082,45809
16.17015,44906
16.17950,42341
16.18883,41275
16.19817,40819
16.20752,47021
16.21685,50381
16.22618,51053
16.23553,50191
16.24487,48483
16.25420,48356
16.26355,61602
16.27288,84559
16.28222,145533
16.29157,288112
16.30090,388933
16.31023,311197
16.31958,164758
16.32892,78125
16.33827,47850
16.34760,39930
16.35693,35287
16.36628,31536
16.37562,31758
16.38495,31856
16.39430,34642
16.40363,34823
16.41297,37806
16.42232,38066
16.43165,37766
16.44098,37337
16.45033,43420
16.45967,52793
16.46900,50732
16.47835,47841
16.48768,46152
16.49703,47303
16.50637,43386
16.51570,43750
16.52505,43055
16.53438,39427
16.54372,37227
16.55307,34419
16.56240,34280
16.57173,36796
16.58108,45659
16.59042,48336
16.59975,40097
16.60910,39652
16.61843,41784
16.62777,50403
16.63712,53270
16.64645,51056
16.65578,44723
16.66513,41813
16.67447,40390
16.68382,43525
16.69315,52147
16.70248,53983
16.71183,47941
16.72117,41002
16.73050,41699
16.73985,62396
16.74918,101677
16.75852,117285
16.76787,81622
16.77720,48949
16.78653,37274
16.79588,36124
16.80522,40399
16.81455,45226
16.82390,53122
16.83323,61573
16.84257,60327
16.85192,51997
16.86125,41157
16.87060,36623
16.87993,35019
16.88927,36065
16.89862,39514
16.90795,48172
16.91728,59467
16.92663,55783
16.93597,50967
16.94530,47502
16.95465,51225
16.96398,55676
16.97332,52748
16.98267,45848
16.99200,37670
17.00133,35982
17.01068,36194
17.02002,47609
17.02935,75093
17.03870,91040
17.04803,75577
17.05738,53328
17.06672,45760
17.07605,43187
17.08540,38998
17.09473,38381
17.10407,36621
17.11342,37091
17.12275,44135
17.13208,56707
17.14143,65953
17.15077,59517
17.16010,42630
17.16945,35343
17.17878,35851
17.18812,36914
17.19747,36612
17.20680,35229
17.21613,34288
17.22548,33151
17.23482,33029
17.24417,32445
17.25350,34478
17.26283,33977
17.27218,37332
17.28152,41532
17.29085,42390
17.30020,40887
17.30953,40660
17.31887,45315
17.32822,48969
17.33755,44350
17.34688,40366
17.35623,36624
17.36557,43399
17.37490,79833
17.38425,147136
17.39358,181629
17.40292,131955
17.41227,75136
17.42160,55186
17.43095,47404
17.44028,44223
17.44962,46898
17.45897,46714
17.46830,45830
17.47763,48535
17.48698,104680
17.49632,466507
17.50565,1554202
17.51500,2794524
17.52433,2536959
17.53367,1138298
17.54302,288419
17.55235,79944
17.56168,53225
17.57103,50214
17.58037,52002
17.58972,51831
17.59905,49116
17.60838,43530
17.61773,40925
17.62707,39210
17.63640,39818
17.64575,42302
17.65508,44044
17.66442,50835
17.67377,52217
17.68310,55333
17.69243,60250
17.70178,61170
17.71112,58196
17.72045,54180
17.72980,50110
17.73913,45508
17.74847,45772
17.75782,48582
17.76715,54510
17.77650,50909
17.78583,48651
17.79517,42509
17.80452,39751
17.81385,39628
17.82318,38660
17.83253,38494
17.84187,40710
17.85120,44249
17.86055,52639
17.86988,57444
17.87922,53318
17.88857,47165
17.89790,43881
17.90723,39950
17.91658,37726
17.92592,38494
17.93525,38956
17.94460,39422
17.95393,37378
17.96328,39998
17.97262,40414
17.98195,40075
17.99130,39261
18.00063,39140
18.00997,40366
18.01932,41213
18.02865,42803
18.03798,42194
18.04733,43283
18.05667,46922
18.06600,47856
18.07535,42829
18.08468,40981
18.09402,40982
18.10337,42270
18.11270,44271
18.12203,44051
18.13138,41486
18.14072,43542
18.15007,45527
18.15940,42546
18.16873,42618
18.17808,41519
18.18742,37838
18.19675,37683
18.20610,37459
18.21543,39474
18.22477,40646
18.23412,40918
18.24345,39693
18.25278,37549
18.26213,39580
18.27147,42665
18.28080,45954
18.29015,49231
18.29948,52472
18.30883,53803
18.31817,52615
18.32750,51146
18.33685,55625
18.34618,58259
18.35552,63097
18.36487,62724
18.37420,60509
18.38353,59854
18.39288,56742
18.40222,51827
18.41155,46467
18.42090,44585
18.43023,45301
18.43957,49357
18.44892,54096
18.45825,52409
18.46758,47766
18.47693,41877
18.48627,45905
18.49562,61601
18.50495,78798
18.51428,86886
18.52363,82154
18.53297,72387
18.54230,57930
18.55165,54766
18.56098,50415
18.57032,48600
18.57967,45312
18.58900,41144
18.59833,44495
18.60768,45957
18.61702,49913
18.62635,51417
18.63570,51206
18.64503,51991
18.65437,52472
18.66372,49890
18.67305,49363
18.68240,48099
18.69173,45935
18.70107,44904
18.71042,47141
18.71975,46206
18.72908,47076
18.73843,42789
18.74777,41986
18.75710,39811
18.76645,36335
18.77578,35735
18.78512,34795
18.79447,37569
18.80380,38831
18.81313,44360
18.82248,46618
18.83182,42576
18.84115,40578
18.85050,36769
18.85983,35116
18.86918,35525
18.87852,34226
18.88785,33313
18.89720,36087
18.90653,40559
18.91587,46526
18.92522,47592
18.93455,44566
18.94388,44700
18.95323,47040
18.96257,51359
18.97190,53166
18.98125,49421
18.99058,43999
18.99992,40593
19.00927,39783
19.01860,38556
19.02793,35347
19.03728,43563
19.04662,57903
19.05597,81489
19.06530,98144
19.07463,130345
19.08398,167819
19.09332,160936
19.10265,108189
19.11200,61801
19.12133,45228
19.13067,36911
19.14002,34969
19.14935,33780
19.15868,32627
19.16803,31891
19.17737,33514
19.18670,38262
19.19605,41169
19.20538,47069
19.21472,47345
19.22407,45686
19.23340,43440
19.24275,38639
19.25208,34049
19.26142,32730
19.27077,34932
19.28010,40384
19.28943,42885
19.29878,46938
19.30812,50539
19.31745,56119
19.32680,51936
19.33613,46092
19.34547,40552
19.35482,34599
19.36415,33840
19.37348,31959
19.38283,32457
19.39217,33269
19.40152,35307
19.41085,36235
19.42018,33700
19.42953,32835
19.43887,31495
19.44820,30019
19.45755,30994
19.46688,31748
19.47622,33773
19.48557,36425
19.49490,41266
19.50423,39251
19.51358,35514
19.52292,34661
19.53225,35321
19.54160,34759
19.55093,32419
19.56027,31058
19.56962,35131
19.57895,36815
19.58830,36762
19.59763,38061
19.60697,34990
19.61632,35369
19.62565,38661
19.63498,43129
19.64433,45376
19.65367,40550
19.66300,35199
19.67235,33624
19.68168,34894
19.69102,33650
19.70037,34642
19.70970,35453
19.71903,41664
19.72838,54420
19.73772,64333
19.74705,57868
19.75640,43245
19.76573,40357
19.77508,40740
19.78442,40398
19.79375,40508
19.80310,37301
19.81243,34778
19.82177,34999
19.83112,33893
19.84045,33517
19.84978,32719
19.85913,34543
19.86847,44916
19.87780,59110
19.88715,63795
19.89648,50859
19.90582,43632
19.91517,40736
19.92450,39150
19.93385,38588
19.94318,43348
19.95252,58858
19.96187,85266
19.97120,99812
19.98053,90284
19.98988,59146
19.99922,45107
20.00855,43391
20.01790,41872
20.02723,43996
20.03657,42403
20.04592,43700
20.05525,43659
20.06458,41411
20.07393,40930
20.08327,42183
20.09260,43008
20.10195,37123
20.11128,35091
20.12063,33643
20.12997,32074
20.13930,35036
20.14865,41333
20.15798,48197
20.16732,45371
20.17667,41175
20.18600,36863
20.19533,33857
20.20468,35018
20.21402,35629
20.22335,35617
20.23270,34823
20.24203,37844
20.25137,38944
20.26072,36612
20.27005,35049
20.27938,34779
20.28873,32466
20.29807,33013
20.30742,31885
20.31675,30295
20.32608,30381
20.33543,29957
20.34477,31079
20.35410,31052
20.36345,31751
20.37278,32895
20.38212,31190
20.39147,31143
20.40080,31591
20.41013,29629
20.41948,31053
20.42882,30936
20.43815,33574
20.44750,34061
20.45683,34699
20.46617,40897
20.47552,44714
20.48485,46057
20.49420,38642
20.50353,35173
20.51287,31696
20.52222,32091
20.53155,33704
20.54088,33473
20.55023,38090
20.55957,57675
20.56890,135368
20.57825,253917
20.58758,271870
20.59692,160404
20.60627,74226
20.61560,45473
20.62493,41237
20.63428,41064
20.64362,40325
20.65295,41835
20.66230,39883
20.67163,36980
20.68098,37340
20.69032,38887
20.69965,37264
20.70900,38400
20.71833,38421
20.72767,38494
20.73702,36666
20.74635,35494
20.75568,35379
20.76503,33603
20.77437,34190
20.78370,36766
20.79305,41272
20.80238,43507
20.81172,39742
20.82107,37359
20.83040,33771
20.83973,33193
20.84908,31345
20.85842,30886
20.86777,30167
20.87710,30423
20.88643,31342
20.89578,33061
20.90512,34350
20.91445,33803
20.92380,32352
20.93313,31653
20.94247,30510
20.95182,31204
20.96115,30398
20.97048,31245
20.97983,29077
20.98917,28341
20.99850,29182
21.00785,30877
21.01718,29702
21.02653,29613
21.03587,29365
21.04520,30302
21.05455,30304
21.06388,30209
21.07322,32033
21.08257,30616
21.09190,30848
21.10123,30128
21.11058,32878
21.11992,32299
21.12925,32633
21.13860,31747
21.14793,30838
21.15727,31734
21.16662,36836
21.17595,44153
21.18528,55928
21.19463,57829
21.20397,47994
21.21332,38669
21.22265,35224
21.23198,34167
21.24133,34163
21.25067,31300
21.26000,33887
21.26935,34758
21.27868,37134
21.28802,38872
21.29737,38966
21.30670,34631
21.31603,32652
21.32538,32035
21.33472,31559
21.34405,31663
21.35340,33776
21.36273,33008
21.37207,30431
21.38142,31496
21.39075,30429
21.40010,31899
21.40943,31426
21.41877,34649
21.42812,32546
21.43745,32987
21.44678,33535
21.45613,30498
21.46547,31768
21.47480,34052
21.48415,35878
21.49348,35875
21.50282,34376
21.51217,34211
21.52150,32518
21.53083,32278
21.54018,32915
21.54952,34984
21.55885,36431
21.56820,46618
21.57753,49565
21.58688,46957
21.59622,38958
21.60555,35941
21.61490,34686
21.62423,33878
21.63357,33888
21.64292,33242
21.65225,33503
21.66158,33279
21.67093,34598
21.68027,38008
21.68960,36926
21.69895,36156
21.70828,34945
21.71762,36081
21.72697,36260
21.73630,38509
21.74565,34179
21.75498,33000
21.76432,32546
21.77367,32191
21.78300,33071
21.79233,35290
21.80168,37285
21.81102,39216
21.82035,39202
21.82970,38773
21.83903,35782
21.84837,34809
21.85772,34571
21.86705,34555
21.87638,36108
21.88573,37771
21.89507,40280
21.90440,39892
21.91375,37883
21.92308,35616
21.93243,33408
21.94177,33722
21.95110,33800
21.96045,36200
21.96978,38909
21.97912,42148
21.98847,48479
21.99780,50261
22.00713,46694
22.01648,38428
22.02582,37849
22.03515,36047
22.04450,38007
22.05383,38285
22.06317,36433
22.07252,37276
22.08185,38934
22.09118,39243
22.10053,37147
22.10987,38756
22.11922,37341
22.12855,36483
22.13788,35612
22.14723,37946
22.15657,41506
22.16590,45666
22.17525,46253
22.18458,42426
22.19392,40658
22.20327,39150
22.21260,38530
22.22193,41584
22.23128,44176
22.24062,43221
22.24995,38400
22.25930,36119
22.26863,36748
22.27797,37913
22.28732,39364
22.29665,41856
22.30600,40748
22.31533,38309
22.32467,36864
22.33402,36313
22.34335,35742
22.35268,37299
22.36203,38405
22.37137,37615
22.38070,35670
22.39005,32946
22.39938,32767
22.40872,29796
22.41807,31052
22.42740,31875
22.43673,30837
22.44608,33298
22.45542,33528
22.46475,33783
22.47410,33797
22.48343,32524
22.49278,34424
22.50212,33723
22.51145,34322
22.52080,33211
22.53013,33499
22.53947,32659
22.54882,32905
22.55815,32444
22.56748,36626
22.57683,36973
22.58617,38638
22.59550,37453
22.60485,38284
22.61418,37653
22.62352,37936
22.63287,36274
22.64220,33660
22.65153,34134
22.66088,32944
22.67022,32738
22.67957,34440
22.68890,36287
22.69823,36502
22.70758,36868
22.71692,37539
22.72625,34166
22.73560,39103
22.74493,39464
22.75427,44327
22.76362,48023
22.77295,44325
22.78228,40450
22.79163,35757
22.80097,33217
22.81030,34086
22.81965,32776
22.82898,33144
22.83833,33451
22.84767,34275
22.85700,33636
22.86635,34433
22.87568,33590
22.88502,33677
22.89437,36079
22.90370,37271
22.91303,35582
22.92238,34234
22.93172,34989
22.94105,33107
22.95040,35606
22.95973,34770
22.96907,36601
22.97842,33063
22.98775,34802
22.99708,33826
23.00643,32252
23.01577,30834
23.02512,29644
23.03445,31136
23.04378,32025
23.05313,30544
23.06247,30750
23.07180,31357
23.08115,31282
23.09048,31623
23.09982,28782
23.10917,29045
23.11850,28775
23.12783,29124
23.13718,30115
23.14652,30812
23.15585,33158
23.16520,34050
23.17453,33560
23.18387,31125
23.19322,31106
23.20255,30394
23.21190,30404
23.22123,31078
23.23057,32070
23.23992,33652
23.24925,36774
23.25858,38579
23.26793,39432
23.27727,38492
23.28660,36280
23.29595,35539
23.30528,33376
23.31462,33999
23.32397,38414
23.33330,44700
23.34263,47153
23.35198,42776
23.36132,36740
23.37067,32398
23.38000,32305
23.38933,33842
23.39868,36155
23.40802,36406
23.41735,35412
23.42670,34621
23.43603,31229
23.44537,33698
23.45472,31634
23.46405,34423
23.47338,34586
23.48273,33550
23.49207,31428
23.50140,29994
23.51075,32023
23.52008,34170
23.52942,37380
23.53877,37994
23.54810,37921
23.55745,33485
23.56678,32095
23.57612,31976
23.58547,33319
23.59480,32129
23.60413,30198
23.61348,28010
23.62282,29200
23.63215,28869
23.64150,30318
23.65083,30381
23.66017,31018
23.66952,30546
23.67885,30844
23.68818,31508
23.69753,31261
23.70687,31173
23.71620,32229
23.72555,31809
23.73488,32588
23.74423,31078
23.75357,28402
23.76290,29678
23.77225,30076
23.78158,31393
23.79092,28459
23.80027,29864
23.80960,28285
23.81893,28642
23.82828,27692
23.83762,29493
23.84695,27902
23.85630,28901
23.86563,29606
23.87497,28528
23.88432,28965
23.89365,28940
23.90298,29014
23.91233,28055
23.92167,30092
23.93102,28123
23.94035,27973
23.94968,28756
23.95903,29341
23.96837,27879
23.97770,28363
23.98705,28369
23.99638,28711
24.00572,28005
24.01507,29117
24.02440,29353
24.03373,29624
24.04308,28217
24.05242,28078
24.06175,28638
24.07110,30084
24.08043,30483
24.08977,29026
24.09912,29723
24.10845,28394
24.11780,29826
24.12713,28151
24.13647,29943
24.14582,29387
24.15515,29101
24.16448,30151
24.17383,29786
24.18317,28707
24.19250,28472
24.20185,28732
24.21118,28247
24.22052,28205
24.22987,29707
24.23920,30156
24.24853,28946
24.25788,28759
24.26722,28714
24.27655,28710
24.28590,29472
24.29523,29287
24.30458,29821
24.31392,30821
24.32325,32129
24.33260,30774
24.34193,30867
24.35127,31916
24.36062,28807
24.36995,31135
24.37928,29754
24.38863,32601
24.39797,31559
24.40730,30229
24.41665,28625
24.42598,28603
24.43532,29405
24.44467,28866
24.45400,28820
24.46335,30661
24.47268,30587
24.48202,29362
24.49137,29504
24.50070,29018
24.51003,29898
24.51938,28851
24.52872,28980
24.53805,30138
24.54740,30716
24.55673,27778
24.56607,29825
24.57542,29439
24.58475,30592
24.59408,30828
24.60343,32661
24.61277,35384
24.62210,34086
24.63145,33578
24.64078,31805
24.65013,32541
24.65947,32352
24.66880,33410
24.67815,33561
24.68748,31625
24.69682,32512
24.70617,31561
24.71550,32016
24.72483,30980
24.73418,29697
24.74352,30501
24.75285,31211
24.76220,30601
24.77153,30975
24.78087,30065
24.79022,31077
24.79955,31442
24.80888,30749
24.81823,30843
24.82757,29310
24.83692,29379
24.84625,29837
24.85558,29580
24.86493,29527
24.87427,30880
24.88360,31176
24.89295,31521
24.90228,30253
24.91162,30006
24.92097,31033
24.93030,30613
24.93963,32404
24.94898,32827
24.95832,33839
24.96765,32938
24.97700,31952
24.98633,32880
24.99567,31056
25.00502,29628
25.01435,31396
25.02370,31147
25.03303,30218
25.04237,30007
25.05172,32888
25.06105,30665
25.07038,31567
25.07973,30561
25.08907,32096
25.09840,33544
25.10775,35158
25.11708,39176
25.12642,41347
25.13577,45836
25.14510,48000
25.15443,49445
25.16378,46633
25.17312,44384
25.18247,42554
25.19180,40470
25.20113,38615
25.21048,36458
25.21982,36712
25.22915,36508
25.23850,37043
25.24783,35801
25.25717,34579
25.26652,35942
25.27585,35376
25.28518,33416
25.29453,34417
25.30387,35326
25.31320,47549
25.32255,74624
25.33188,112321
25.34122,112753
25.35057,81774
25.35990,55591
25.36925,43485
25.37858,42085
25.38792,39933
25.39727,40217
25.40660,39639
25.41593,39104
25.42528,39648
25.43462,39369
25.44395,38890
25.45330,39966
25.46263,38920
25.47197,39668
25.48132,41817
25.49065,44189
25.49998,45649
25.50933,43287
25.51867,43950
25.52800,42253
25.53735,43396
25.54668,44047
25.55603,40840
25.56537,40737
25.57470,40527
25.58405,38981
25.59338,38521
25.60272,38432
25.61207,40701
25.62140,41154
25.63073,41136
25.64008,43963
25.64942,44579
25.65875,44552
25.66810,43579
25.67743,39853
25.68677,40253
25.69612,40469
25.70545,40393
25.71478,38125
25.72413,39651
25.73347,39895
25.74282,39724
25.75215,40920
25.76148,39022
25.77083,40764
25.78017,39402
25.78950,39566
25.79885,42620
25.80818,43332
25.81752,46241
25.82687,50184
25.83620,51397
25.84553,52834
25.85488,49354
25.86422,46098
25.87355,44323
25.88290,43494
25.89223,41724
25.90157,41360
25.91092,42521
25.92025,41359
25.92960,41215
25.93893,42778
25.94827,43379
25.95762,44404
25.96695,42437
25.97628,42596
25.98563,40485
25.99497,39481
26.00430,39970
26.01365,39569
26.02298,39427
26.03232,39511
26.04167,40514
26.05100,42229
26.06033,41493
26.06968,42081
26.07902,41142
26.08837,39419
26.09770,41162
26.10703,44144
26.11638,54372
26.12572,91302
26.13505,160951
26.14440,216583
26.15373,201676
26.16307,151583
26.17242,111968
26.18175,89952
26.19108,77549
26.20043,69229
26.20977,63437
26.21910,57846
26.22845,56050
26.23778,56053
26.24712,55153
26.25647,50639
26.26580,50320
26.27515,51547
26.28448,50135
26.29382,51406
26.30317,52812
26.31250,52290
26.32183,51936
26.33118,50135
26.34052,49864
26.34985,49093
26.35920,47521
26.36853,45417
26.37787,46667
26.38722,47697
26.39655,45733
26.40588,46405
26.41523,45351
26.42457,45786
26.43390,45114
26.44325,47408
26.45258,47600
26.46193,47122
26.47127,47970
26.48060,47335
26.48995,45976
26.49928,45301
26.50862,47893
26.51797,48713
26.52730,50743
26.53663,50213
26.54598,50721
26.55532,48619
26.56465,51042
26.57400,51426
26.58333,55369
26.59267,52363
26.60202,54092
26.61135,52148
26.62068,48575
26.63003,47484
26.63937,48433
26.64872,47517
26.65805,45919
26.66738,46620
26.67673,47558
26.68607,48787
26.69540,48367
26.70475,48505
26.71408,48230
26.72342,49596
26.73277,48854
26.74210,49195
26.75143,50031
26.76078,50877
26.77012,48921
26.77945,50462
26.78880,49236
26.79813,50994
26.80747,50218
26.81682,49526
26.82615,51023
26.83550,52535
26.84483,52585
26.85417,52655
26.86352,54554
26.87285,53117
26.88218,51469
26.89153,54288
26.90087,51329
26.91020,51312
26.91955,49041
26.92888,48089
26.93822,49767
26.94757,48183
26.95690,49135
26.96623,48728
26.97558,49761
26.98492,52515
26.99427,57089
27.00360,67792
27.01293,70124
27.02228,67361
27.03162,59870
27.04095,57462
27.05030,52601
27.05963,52913
27.06897,52047
27.07832,51809
27.08765,52651
27.09698,49586
27.10633,51849
27.11567,52301
27.12500,53813
27.13435,51982
27.14368,55638
27.15302,54923
27.16237,54212
27.17170,52370
27.18105,51897
27.19038,50776
27.19972,50191
27.20907,50937
27.21840,50694
27.22773,51545
27.23708,52766
27.24642,53110
27.25575,51806
27.26510,52182
27.27443,53234
27.28377,50152
27.29312,51276
27.30245,51010
27.31178,51351
27.32113,50986
27.33047,51816
27.33980,49503
27.34915,51330
27.35848,51911
27.36783,52314
27.37717,56749
27.38650,55342
27.39585,57120
27.40518,55476
27.41452,54719
27.42387,57320
27.43320,55122
27.44253,57278
27.45188,56317
27.46122,56626
27.47055,55663
27.47990,54999
27.48923,55940
27.49857,54749
27.50792,56133
27.51725,54913
27.52658,56617
27.53593,55232
27.54527,54101
27.55462,53706
27.56395,52428
27.57328,51846
27.58263,52764
27.59197,53155
27.60130,51430
27.61065,52041
27.61998,53352
27.62932,52122
27.63867,53217
27.64800,54265
27.65733,58936
27.66668,75878
27.67602,102077
27.68535,116269
27.69470,97728
27.70403,77514
27.71337,69862
27.72272,62119
27.73205,57913
27.74140,57132
27.75073,56540
27.76007,58110
27.76942,55449
27.77875,57614
27.78808,54546
27.79743,54302
27.80677,56225
27.81610,56107
27.82545,56306
27.83478,56560
27.84412,56349
27.85347,54848
27.86280,54507
27.87213,54671
27.88148,55145
27.89082,55981
27.90017,54736
27.90950,52684
27.91883,56278
27.92818,57883
27.93752,58251
27.94685,58809
27.95620,57027
27.96553,58112
27.97487,55778
27.98422,57400
27.99355,54244
28.00288,51857
28.01223,54168
28.02157,55040
28.03090,53709
28.04025,52596
28.04958,53689
28.05892,53639
28.06827,56873
28.07760,54160
28.08695,56454
28.09628,57059
28.10562,65987
28.11497,91279
28.12430,133839
28.13363,146604
28.14298,119969
28.15232,91492
28.16165,75189
28.17100,71263
28.18033,63938
28.18967,62346
28.19902,59726
28.20835,60473
28.21768,62219
28.22703,63280
28.23637,61813
28.24570,59689
28.25505,60696
28.26438,58810
28.27373,58299
28.28307,57624
28.29240,57268
28.30175,55289
28.31108,57397
28.32042,56999
28.32977,58696
28.33910,58524
28.34843,57035
28.35778,57000
28.36712,56524
28.37645,54684
28.38580,54691
28.39513,57749
28.40447,56291
28.41382,56632
28.42315,56541
28.43248,56623
28.44183,57393
28.45117,57466
28.46052,56685
28.46985,59708
28.47918,56093
28.48853,58022
28.49787,56793
28.50720,60287
28.51655,62451
28.52588,66082
28.53522,65175
28.54457,65028
28.55390,64295
28.56323,63336
28.57258,65351
28.58192,63648
28.59125,65503
28.60060,65495
28.60993,63055
28.61928,64024
28.62862,65588
28.63795,62804
28.64730,62012
28.65663,63316
28.66597,67607
28.67532,76714
28.68465,81829
28.69398,81230
28.70333,72994
28.71267,68623
28.72200,67344
28.73135,65335
28.74068,66649
28.75002,67040
28.75937,66935
28.76870,66360
28.77803,63187
28.78738,66244
28.79672,64496
28.80607,63482
28.81540,62813
28.82473,64630
28.83408,63898
28.84342,63119
28.85275,66251
28.86210,64107
28.87143,65439
28.88077,65684
28.89012,65518
28.89945,67372
28.90878,66807
28.91813,67736
28.92747,68544
28.93680,67483
28.94615,67535
28.95548,68056
28.96482,66031
28.97417,67350
28.98350,67497
28.99285,67471
29.00218,66873
29.01152,68599
29.02087,69656
29.03020,68061
29.03953,69376
29.04888,68414
29.05822,70461
29.06755,69752
29.07690,68487
29.08623,65667
29.09557,68331
29.10492,68323
29.11425,69583
29.12358,69924
29.13293,69871
29.14227,68570
29.15160,70817
29.16095,71438
29.17028,69562
29.17963,77436
29.18897,98729
29.19830,156429
29.20765,221603
29.21698,228839
29.22632,182949
29.23567,132077
29.24500,105087
29.25433,94335
29.26368,90161
29.27302,83642
29.28235,79170
29.29170,80490
29.30103,82241
29.31037,80932
29.31972,77889
29.32905,79650
29.33838,77559
29.34773,75494
29.35707,72015
29.36642,74772
29.37575,74673
29.38508,74486
29.39443,74342
29.40377,75013
29.41310,73340
29.42245,76525
29.43178,76173
29.44112,74702
29.45047,75123
29.45980,80031
29.46913,84500
29.47848,83649
29.48782,81657
29.49715,80266
29.50650,77299
29.51583,75189
29.52517,76884
29.53452,71677
29.54385,73757
29.55320,73423
29.56253,71692
29.57187,71758
29.58122,69108
29.59055,73141
29.59988,72910
29.60923,73189
29.61857,76230
29.62790,75744
29.63725,75533
29.64658,74614
29.65592,73900
29.66527,75569
29.67460,72139
29.68393,73152
29.69328,73623
29.70262,72631
29.71197,73572
29.72130,73127
29.73063,74669
29.73998,72358
29.74932,74211
29.75865,70712
29.76800,70534
29.77733,69936
29.78667,72145
29.79602,70106
29.80535,72301
29.81468,67494
29.82403,69308
29.83337,69772
29.84270,69399
29.85205,69864
29.86138,69482
29.87072,69454
29.88007,67300
29.88940,68770
29.89875,68574
29.90808,71414
29.91742,69379
29.92677,69695
29.93610,71356
29.94543,72620
29.95478,74194
29.96412,73935
29.97345,70313
29.98280,72534
29.99213,73666
30.00147,76098
30.01082,76724
30.02015,72731
30.02948,73086
30.03883,72176
30.04817,72288
30.05750,68880
30.06685,70030
30.07618,69011
30.08553,68775
30.09487,69972
30.10420,68986
30.11355,70211
30.12288,71183
30.13222,71528
30.14157,72231
30.15090,71845
30.16023,70025
30.16958,68797
30.17892,71508
30.18825,69538
30.19760,67215
30.20693,66923
30.21627,69212
30.22562,68738
30.23495,67041
30.24430,67414
30.25363,68272
30.26297,66844
30.27232,67332
30.28165,67277
30.29098,68158
30.30033,70953
30.30967,69221
30.31900,69131
30.32835,70686
30.33768,68003
30.34702,70470
30.35637,71527
30.36570,76527
30.37503,81815
30.38438,91890
30.39372,110354
30.40305,134194
30.41240,144295
30.42173,136048
30.43108,115047
30.44042,99924
30.44975,88385
30.45910,85221
30.46843,79806
30.47777,76227
30.48712,72411
30.49645,74964
30.50578,73009
30.51513,70963
30.52447,70525
30.53380,71330
30.54315,72275
30.55248,70602
30.56182,70471
30.57117,69959
30.58050,69784
30.58983,70651
30.59918,72570
30.60852,72614
30.61787,72322
30.62720,76714
30.63653,75859
30.64588,76765
30.65522,77758
30.66455,80157
30.67390,78341
30.68323,80814
30.69257,81652
30.70192,81140
30.71125,80564
30.72058,77669
30.72993,77954
30.73927,75901
30.74860,75461
30.75795,73562
30.76728,74212
30.77662,73465
30.78597,73324
30.79530,74711
30.80465,72041
30.81398,70354
30.82332,72442
30.83267,72640
30.84200,73275
30.85133,72391
30.86068,72179
30.87002,74699
30.87935,71410
30.88870,72079
30.89803,72050
30.90737,72872
30.91672,72125
30.92605,71979
30.93538,72189
30.94473,71490
30.95407,71488
30.96340,74370
30.97275,72458
30.98208,70173
30.99143,70848
31.00077,69576
31.01010,70411
31.01945,72032
31.02878,69694
31.03812,68286
31.04747,69894
31.05680,67830
31.06613,72068
31.07548,68577
31.08482,69993
31.09415,67159
31.10350,68474
31.11283,68693
31.12217,67774
31.13152,68410
31.14085,68951
31.15018,69139
31.15953,70079
31.16887,71730
31.17822,67986
31.18755,67420
31.19688,67538
31.20623,69614
31.21557,68500
31.22490,71408
31.23425,68771
31.24358,69094
31.25292,71011
31.26227,70639
31.27160,71447
31.28093,70245
31.29028,69335
31.29962,71329
31.30895,69652
31.31830,68888
31.32763,69042
31.33698,69923
31.34632,71771
31.35565,68226
31.36500,68220
