D:\数据\20220109\ZS1E-Z-000242.D Sun Jan 09 16:30:30 2022
Start of data points
0.09747,49196
0.10680,54882
0.11613,60342
0.12548,65883
0.13482,65549
0.14415,65465
0.15350,62707
0.16283,59666
0.17218,56654
0.18152,53457
0.19085,50205
0.20020,47880
0.20953,44856
0.21887,41198
0.22822,43752
0.23755,39697
0.24688,39303
0.25623,37191
0.26557,36522
0.27490,35231
0.28425,35405
0.29358,34138
0.30292,33780
0.31227,32902
0.32160,33288
0.33093,31695
0.34028,30941
0.34962,30954
0.35897,32339
0.36830,31260
0.37763,30302
0.38698,30719
0.39632,30558
0.40565,30281
0.41500,29673
0.42433,29732
0.43367,28484
0.44302,28518
0.45235,26183
0.46168,22400
0.47103,19236
0.48037,13470
0.48970,11240
0.49905,11172
0.50838,10310
0.51772,10247
0.52707,10227
0.53640,9113
0.54575,9802
0.55508,10384
0.56442,9895
0.57377,10009
0.58310,9288
0.59243,9280
0.60178,9391
0.61112,9270
0.62045,8694
0.62980,9613
0.63913,9387
0.64847,8684
0.65782,8859
0.66715,8981
0.67648,8036
0.68583,9167
0.69517,8910
0.70452,8998
0.71385,8257
0.72318,8614
0.73253,8910
0.74187,9029
0.75120,8567
0.76055,8450
0.76988,7903
0.77922,7736
0.78857,8480
0.79790,7575
0.80723,7631
0.81658,8601
0.82592,7894
0.83525,8174
0.84460,8567
0.85393,7764
0.86327,8081
0.87262,7913
0.88195,8379
0.89130,7961
0.90063,8039
0.90997,7652
0.91932,8060
0.92865,8054
0.93798,8118
0.94733,8013
0.95667,7793
0.96600,7664
0.97535,7999
0.98468,7867
0.99402,8094
1.00337,7396
1.01270,7653
1.02203,8002
1.03138,7880
1.04072,7936
1.05005,8109
1.05940,7940
1.06873,8109
1.07808,7786
1.08742,7162
1.09675,7316
1.10610,7443
1.11543,7612
1.12477,7969
1.13412,7203
1.14345,7784
1.15278,7531
1.16213,7289
1.17147,7682
1.18080,7892
1.19015,8036
1.19948,8127
1.20882,7566
1.21817,7583
1.22750,7281
1.23683,8178
1.24618,7649
1.25552,7192
1.26487,8153
1.27420,7420
1.28353,7677
1.29288,7950
1.30222,7579
1.31155,7285
1.32090,6855
1.33023,7191
1.33957,7311
1.34892,7763
1.35825,7642
1.36758,7026
1.37693,6868
1.38627,6890
1.39560,7356
1.40495,7887
1.41428,7793
1.42363,7070
1.43297,6909
1.44230,7194
1.45165,7463
1.46098,7250
1.47032,7423
1.47967,7647
1.48900,7363
1.49833,7319
1.50768,7939
1.51702,7476
1.52635,7823
1.53570,7248
1.54503,7351
1.55437,7408
1.56372,7449
1.57305,7112
1.58238,6872
1.59173,7414
1.60107,8235
1.61042,12029
1.61975,19317
1.62908,25190
1.63843,34802
1.64777,69025
1.65710,119348
1.66645,151361
1.67578,150928
1.68512,125190
1.69447,87432
1.70380,56926
1.71313,34432
1.72248,25090
1.73182,23859
1.74115,25903
1.75050,28328
1.75983,30246
1.76917,32366
1.77852,31083
1.78785,33569
1.79720,33229
1.80653,32654
1.81587,33961
1.82522,33520
1.83455,32539
1.84388,32559
1.85323,32533
1.86257,34685
1.87190,36014
1.88125,45405
1.89058,76052
1.89992,148335
1.90927,253012
1.91860,336731
1.92793,387282
1.93728,426079
1.94662,443956
1.95595,450958
1.96530,424339
1.97463,384022
1.98398,312225
1.99332,236299
2.00265,166199
2.01200,132362
2.02133,138043
2.03067,183698
2.04002,262624
2.04935,268456
2.05868,208914
2.06803,149668
2.07737,120218
2.08670,183244
2.09605,463619
2.10538,834435
2.11472,892655
2.12407,585706
2.13340,354477
2.14273,297767
2.15208,250967
2.16142,190921
2.17077,142079
2.18010,130651
2.18943,167041
2.19878,184338
2.20812,132449
2.21745,94859
2.22680,94525
2.23613,131798
2.24547,176428
2.25482,532408
2.26415,1631968
2.27348,1753196
2.28283,1222120
2.29217,719973
2.30150,445006
2.31085,441046
2.32018,593671
2.32953,518873
2.33887,317604
2.34820,193264
2.35755,133560
2.36688,117788
2.37622,156215
2.38557,197601
2.39490,190173
2.40423,172870
2.41358,146724
2.42292,118124
2.43225,101450
2.44160,90193
2.45093,80709
2.46027,70833
2.46962,74161
2.47895,73623
2.48828,72113
2.49763,71967
2.50697,73585
2.51632,72372
2.52565,72506
2.53498,70371
2.54433,67902
2.55367,69723
2.56300,76498
2.57235,216920
2.58168,280563
2.59102,238467
2.60037,191825
2.60970,177967
2.61903,203539
2.62838,221517
2.63772,191439
2.64705,148354
2.65640,118598
2.66573,104565
2.67507,93111
2.68442,82029
2.69375,75348
2.70310,70775
2.71243,89811
2.72177,122670
2.73112,151268
2.74045,158201
2.74978,169401
2.75913,199101
2.76847,245606
2.77780,312189
2.78715,392183
2.79648,444707
2.80582,467757
2.81517,501249
2.82450,550314
2.83383,600636
2.84318,616829
2.85252,294674
2.86185,225560
2.87120,225652
2.88053,203734
2.88988,161024
2.89922,132889
2.90855,114860
2.91790,104415
2.92723,95398
2.93657,84311
2.94592,77172
2.95525,70738
2.96458,67994
2.97393,67489
2.98327,67716
2.99260,67656
3.00195,68401
3.01128,70959
3.02062,78174
3.02997,105547
3.03930,197348
3.04865,226419
3.05798,225265
3.06732,286728
3.07667,451938
3.08600,584846
3.09533,540338
3.10468,356115
3.11402,197914
3.12335,115348
3.13270,82799
3.14203,71738
3.15137,70992
3.16072,74860
3.17005,73075
3.17938,70957
3.18873,65208
3.19807,62303
3.20740,62452
3.21675,61251
3.22608,61582
3.23543,58788
3.24477,60346
3.25410,68531
3.26345,79770
3.27278,88750
3.28212,87024
3.29147,74232
3.30080,64956
3.31013,56785
3.31948,55848
3.32882,60382
3.33815,61467
3.34750,60099
3.35683,54085
3.36617,49180
3.37552,47533
3.38485,44774
3.39418,46808
3.40353,51603
3.41287,64074
3.42222,71999
3.43155,66723
3.44088,63088
3.45023,63688
3.45957,63725
3.46890,59486
3.47825,57780
3.48758,59126
3.49692,59531
3.50627,59854
3.51560,55000
3.52493,55526
3.53428,54957
3.54362,64572
3.55295,122959
3.56230,271352
3.57163,422569
3.58097,438756
3.59032,322815
3.59965,211317
3.60900,139875
3.61833,138029
3.62767,119269
3.63702,98565
3.64635,85008
3.65568,74283
3.66503,69435
3.67437,76094
3.68370,86401
3.69305,91894
3.70238,84165
3.71172,69746
3.72107,65258
3.73040,64775
3.73973,60605
3.74908,57811
3.75842,54855
3.76775,51534
3.77710,47895
3.78643,46999
3.79578,44898
3.80512,48108
3.81445,53663
3.82380,59063
3.83313,58298
3.84247,55103
3.85182,58792
3.86115,58266
3.87048,55729
3.87983,56260
3.88917,66683
3.89850,96453
3.90785,130005
3.91718,133408
3.92652,107804
3.93587,81955
3.94520,83083
3.95453,92405
3.96388,92803
3.97322,80657
3.98257,73633
3.99190,65134
4.00123,59683
4.01058,56049
4.01992,61528
4.02925,63034
4.03860,59710
4.04793,60922
4.05727,58280
4.06662,60859
4.07595,76276
4.08528,103264
4.09463,128526
4.10397,133837
4.11330,109245
4.12265,79745
4.13198,59592
4.14133,50439
4.15067,47680
4.16000,45387
4.16935,44325
4.17868,44017
4.18802,45883
4.19737,49769
4.20670,50439
4.21603,50212
4.22538,46848
4.23472,44177
4.24405,45204
4.25340,48780
4.26273,53195
4.27207,56474
4.28142,58521
4.29075,57163
4.30008,53122
4.30943,48764
4.31877,54313
4.32812,65740
4.33745,70642
4.34678,68951
4.35613,59660
4.36547,54794
4.37480,58702
4.38415,74489
4.39348,76659
4.40282,66598
4.41217,52807
4.42150,44723
4.43083,41720
4.44018,41164
4.44952,40860
4.45885,43375
4.46820,44648
4.47753,51562
4.48687,54905
4.49622,53318
4.50555,47643
4.51490,47103
4.52423,46311
4.53357,46784
4.54292,47072
4.55225,46119
4.56158,44509
4.57093,43669
4.58027,42948
4.58960,43036
4.59895,43147
4.60828,42832
4.61762,41882
4.62697,41845
4.63630,44496
4.64563,45946
4.65498,49471
4.66432,51655
4.67365,51106
4.68300,46968
4.69233,43302
4.70168,43808
4.71102,43934
4.72035,42968
4.72970,47250
4.73903,57602
4.74837,58841
4.75772,54366
4.76705,51045
4.77638,50209
4.78573,45080
4.79507,45050
4.80440,45957
4.81375,46392
4.82308,48265
4.83242,51460
4.84177,51545
4.85110,50078
4.86045,53400
4.86978,60841
4.87912,67873
4.88847,67299
4.89780,62320
4.90713,60736
4.91648,57253
4.92582,53352
4.93515,51090
4.94450,49144
4.95383,48034
4.96317,44696
4.97252,42694
4.98185,41730
4.99118,43826
5.00053,45774
5.00987,47680
5.01920,50989
5.02855,52616
5.03788,51544
5.04723,49897
5.05657,49774
5.06590,49438
5.07525,55327
5.08458,60393
5.09392,60638
5.10327,58895
5.11260,53725
5.12193,48818
5.13128,49059
5.14062,50678
5.14995,55337
5.15930,49588
5.16863,46255
5.17797,44497
5.18732,52958
5.19665,59404
5.20598,58122
5.21533,51734
5.22467,48384
5.23402,47833
5.24335,50858
5.25268,49234
5.26203,56524
5.27137,103092
5.28070,233269
5.29005,393544
5.29938,411070
5.30872,293072
5.31807,171704
5.32740,110460
5.33673,83818
5.34608,65878
5.35542,56013
5.36475,52980
5.37410,56517
5.38343,60544
5.39277,70669
5.40212,71210
5.41145,65463
5.42080,60312
5.43013,52964
5.43947,47571
5.44882,45690
5.45815,43537
5.46748,46193
5.47683,46115
5.48617,45319
5.49550,49602
5.50485,50032
5.51418,50150
5.52352,50648
5.53287,54166
5.54220,53964
5.55153,51953
5.56088,53825
5.57022,53393
5.57955,52602
5.58890,51419
5.59823,48945
5.60758,45853
5.61692,43540
5.62625,44511
5.63560,44615
5.64493,44100
5.65427,46459
5.66362,44158
5.67295,45838
5.68228,47037
5.69163,48052
5.70097,49116
5.71030,48662
5.71965,46957
5.72898,45717
5.73832,49397
5.74767,59466
5.75700,66460
5.76635,64878
5.77568,58911
5.78502,56778
5.79437,50543
5.80370,46753
5.81303,49412
5.82238,51361
5.83172,58530
5.84105,58754
5.85040,51588
5.85973,45936
5.86907,42085
5.87842,42549
5.88775,39727
5.89708,42834
5.90643,61608
5.91577,116106
5.92510,179952
5.93445,179546
5.94378,138889
5.95313,116382
5.96247,96991
5.97180,75644
5.98115,59329
5.99048,52220
5.99982,47931
6.00917,50443
6.01850,45148
6.02783,38407
6.03718,32161
6.04652,29326
6.05585,29488
6.06520,32467
6.07453,31174
6.08387,26354
6.09322,22924
6.10255,22993
6.11188,26279
6.12123,32398
6.13057,35722
6.13992,37598
6.14925,32325
6.15858,26421
6.16793,25933
6.17727,24991
6.18660,23651
6.19595,23087
6.20528,22353
6.21462,24707
6.22397,28291
6.23330,36405
6.24263,50730
6.25198,59579
6.26132,55678
6.27065,63361
6.28000,70785
6.28933,59199
6.29867,45496
6.30802,35713
6.31735,33428
6.32670,34587
6.33603,36471
6.34537,39860
6.35472,40131
6.36405,37689
6.37338,41418
6.38273,50770
6.39207,69479
6.40140,135142
6.41075,261576
6.42008,336897
6.42942,255390
6.43877,135521
6.44810,75877
6.45743,57026
6.46678,53598
6.47612,51551
6.48547,50499
6.49480,50112
6.50413,50910
6.51348,49203
6.52282,47202
6.53215,43259
6.54150,43458
6.55083,42419
6.56017,40339
6.56952,39758
6.57885,40596
6.58818,41324
6.59753,43270
6.60687,44399
6.61620,45337
6.62555,43926
6.63488,46224
6.64422,47337
6.65357,46374
6.66290,46061
6.67225,45694
6.68158,42530
6.69092,43607
6.70027,50240
6.70960,51838
6.71893,48688
6.72828,45391
6.73762,40864
6.74695,38656
6.75630,38113
6.76563,37356
6.77497,40510
6.78432,41726
6.79365,46534
6.80298,50398
6.81233,45087
6.82167,37250
6.83100,36146
6.84035,33974
6.84968,34489
6.85903,35527
6.86837,34055
6.87770,32869
6.88705,33460
6.89638,35857
6.90572,44424
6.91507,51329
6.92440,47365
6.93373,40270
6.94308,34626
6.95242,32799
6.96175,32818
6.97110,33059
6.98043,30868
6.98977,31181
6.99912,32991
7.00845,34503
7.01778,35525
7.02713,34350
7.03647,32261
7.04582,28231
7.05515,27723
7.06448,27758
7.07383,27566
7.08317,26809
7.09250,30771
7.10185,33836
7.11118,37280
7.12052,34865
7.12987,32701
7.13920,28625
7.14853,26660
7.15788,26889
7.16722,25690
7.17655,26009
7.18590,24832
7.19523,25765
7.20457,25703
7.21392,29669
7.22325,47519
7.23260,88358
7.24193,137843
7.25127,134553
7.26062,85083
7.26995,49799
7.27928,37198
7.28863,33459
7.29797,32811
7.30730,29382
7.31665,23612
7.32598,23695
7.33532,23643
7.34467,23141
7.35400,23287
7.36333,23766
7.37268,22973
7.38202,35014
7.39137,74777
7.40070,164221
7.41003,253578
7.41938,257094
7.42872,179043
7.43805,100349
7.44740,54708
7.45673,43150
7.46607,83595
7.47542,102413
7.48475,80801
7.49408,56359
7.50343,40322
7.51277,29426
7.52210,27176
7.53145,27285
7.54078,26666
7.55012,29610
7.55947,30608
7.56880,33032
7.57815,31385
7.58748,27931
7.59682,26845
7.60617,27809
7.61550,30711
7.62483,32625
7.63418,31780
7.64352,27187
7.65285,25001
7.66220,26763
7.67153,36492
7.68087,48807
7.69022,53216
7.69955,43949
7.70888,35413
7.71823,29404
7.72757,32333
7.73690,34420
7.74625,39015
7.75558,38171
7.76493,34962
7.77427,32171
7.78360,30846
7.79295,31668
7.80228,29382
7.81162,26560
7.82097,24402
7.83030,23212
7.83963,26510
7.84898,36487
7.85832,65236
7.86765,104653
7.87700,116772
7.88633,84545
7.89567,55985
7.90502,66107
7.91435,110597
7.92368,140167
7.93303,111391
7.94237,75842
7.95172,80678
7.96105,83105
7.97038,75388
7.97973,69989
7.98907,67564
7.99840,52334
8.00775,41747
8.01708,46253
8.02642,62083
8.03577,71426
8.04510,68014
8.05443,53092
8.06378,35386
8.07312,27338
8.08245,30466
8.09180,41973
8.10113,52296
8.11048,45466
8.11982,35462
8.12915,28126
8.13850,27079
8.14783,25518
8.15717,26228
8.16652,24045
8.17585,22656
8.18518,23282
8.19453,24335
8.20387,25138
8.21320,24869
8.22255,28027
8.23188,29980
8.24122,31742
8.25057,29357
8.25990,28634
8.26923,27205
8.27858,26263
8.28792,26182
8.29727,27510
8.30660,26479
8.31593,22809
8.32528,23668
8.33462,23331
8.34395,23832
8.35330,24047
8.36263,24569
8.37197,27228
8.38132,39448
8.39065,40558
8.39998,38481
8.40933,34922
8.41867,35117
8.42800,34614
8.43735,34075
8.44668,31598
8.45602,30636
8.46537,31279
8.47470,32347
8.48405,29519
8.49338,30489
8.50272,32134
8.51207,30510
8.52140,32071
8.53073,32168
8.54008,31803
8.54942,32997
8.55875,34760
8.56810,38069
8.57743,39386
8.58677,36449
8.59612,37910
8.60545,36750
8.61478,34728
8.62413,31051
8.63347,29804
8.64280,29184
8.65215,29076
8.66148,27635
8.67083,29389
8.68017,28348
8.68950,29137
8.69885,30252
8.70818,28798
8.71752,27587
8.72687,28202
8.73620,31565
8.74553,40005
8.75488,49652
8.76422,43772
8.77355,37117
8.78290,34286
8.79223,41043
8.80157,52941
8.81092,68763
8.82025,64253
8.82958,47410
8.83893,31714
8.84827,23549
8.85762,25192
8.86695,27616
8.87628,28985
8.88563,31136
8.89497,31939
8.90430,35506
8.91365,35251
8.92298,42534
8.93232,41447
8.94167,37985
8.95100,30688
8.96033,27845
8.96968,28947
8.97902,27640
8.98835,26844
8.99770,28951
9.00703,31495
9.01637,29747
9.02572,31526
9.03505,33137
9.04440,37964
9.05373,38803
9.06307,37184
9.07242,39196
9.08175,43922
9.09108,47256
9.10043,43962
9.10977,36322
9.11910,35003
9.12845,57263
9.13778,85234
9.14712,91019
9.15647,62832
9.16580,40059
9.17513,31040
9.18448,31150
9.19382,31271
9.20317,31341
9.21250,36754
9.22183,49108
9.23118,74408
9.24052,79799
9.24985,62812
9.25920,45407
9.26853,39237
9.27787,32786
9.28722,31642
9.29655,29901
9.30588,30631
9.31523,36018
9.32457,56373
9.33390,70084
9.34325,63844
9.35258,54465
9.36192,87226
9.37127,154695
9.38060,184646
9.38995,147850
9.39928,98335
9.40862,68024
9.41797,58494
9.42730,55343
9.43663,51706
9.44598,37405
9.45532,31195
9.46465,28772
9.47400,27347
9.48333,29874
9.49267,33191
9.50202,36278
9.51135,32597
9.52068,29692
9.53003,32590
9.53937,40186
9.54870,47082
9.55805,67595
9.56738,80633
9.57673,65713
9.58607,49180
9.59540,48075
9.60475,56161
9.61408,48172
9.62342,35862
9.63277,33281
9.64210,32232
9.65143,31971
9.66078,33680
9.67012,31658
9.67945,30290
9.68880,29724
9.69813,25503
9.70747,28345
9.71682,60766
9.72615,289639
9.73548,1072635
9.74483,2044381
9.75417,2036488
9.76352,1185207
9.77285,494637
9.78218,227186
9.79153,148413
9.80087,117150
9.81020,98061
9.81955,94352
9.82888,106578
9.83822,114801
9.84757,118846
9.85690,105376
9.86623,78407
9.87558,74137
9.88492,87353
9.89425,95551
9.90360,90853
9.91293,83629
9.92228,86335
9.93162,80400
9.94095,68834
9.95030,55924
9.95963,52023
9.96897,67267
9.97832,119790
9.98765,201297
9.99698,228140
10.00633,167866
10.01567,93826
10.02500,57576
10.03435,46171
10.04368,43451
10.05302,46091
10.06237,54627
10.07170,68135
10.08103,66116
10.09038,56445
10.09972,50018
10.10907,88790
10.11840,238217
10.12773,451699
10.13708,526028
10.14642,738042
10.15575,2075262
10.16510,4096037
10.17443,4159258
10.18377,2049424
10.19312,499829
10.20245,104806
10.21178,53114
10.22113,49455
10.23047,67785
10.23980,101023
10.24915,116430
10.25848,89647
10.26782,59021
10.27717,43586
10.28650,43270
10.29585,45491
10.30518,48640
10.31452,49638
10.32387,42179
10.33320,38109
10.34253,34047
10.35188,33840
10.36122,35305
10.37055,34886
10.37990,33137
10.38923,29735
10.39857,31371
10.40792,34651
10.41725,39211
10.42658,37442
10.43593,38775
10.44527,38720
10.45460,40475
10.46395,43132
10.47328,38580
10.48263,32840
10.49197,31597
10.50130,29674
10.51065,32221
10.51998,39083
10.52932,43019
10.53867,42729
10.54800,40122
10.55733,36565
10.56668,35688
10.57602,36315
10.58535,36699
10.59470,39123
10.60403,38474
10.61337,35724
10.62272,36655
10.63205,39897
10.64138,39844
10.65073,37250
10.66007,32930
10.66942,32926
10.67875,38706
10.68808,37934
10.69743,36978
10.70677,36667
10.71610,44346
10.72545,46007
10.73478,39622
10.74412,39170
10.75347,55709
10.76280,80673
10.77213,95592
10.78148,132002
10.79082,340228
10.80015,762443
10.80950,992504
10.81883,683049
10.82818,268797
10.83752,87033
10.84685,47175
10.85620,41756
10.86553,54078
10.87487,76101
10.88422,84115
10.89355,72029
10.90288,54065
10.91223,44212
10.92157,42751
10.93090,46150
10.94025,45713
10.94958,42108
10.95892,40397
10.96827,40569
10.97760,36353
10.98693,33997
10.99628,32240
11.00562,31910
11.01497,32777
11.02430,32891
11.03363,31237
11.04298,31847
11.05232,30202
11.06165,26857
11.07100,27781
11.08033,28198
11.08967,26479
11.09902,31742
11.10835,35652
11.11768,35435
11.12703,34979
11.13637,34278
11.14570,31671
11.15505,36023
11.16438,34562
11.17372,41570
11.18307,42094
11.19240,37534
11.20175,33255
11.21108,30352
11.22042,31521
11.22977,31191
11.23910,30580
11.24843,31302
11.25778,33477
11.26712,35467
11.27645,35631
11.28580,31524
11.29513,29736
11.30447,31489
11.31382,31006
11.32315,33748
11.33248,37964
11.34183,47831
11.35117,54051
11.36050,54108
11.36985,47436
11.37918,40637
11.38853,36489
11.39787,39954
11.40720,41766
11.41655,39443
11.42588,33057
11.43522,33241
11.44457,33441
11.45390,39880
11.46323,48658
11.47258,54750
11.48192,49719
11.49125,38320
11.50060,31593
11.50993,30760
11.51927,29372
11.52862,29460
11.53795,29417
11.54730,29987
11.55663,39155
11.56597,59510
11.57532,89780
11.58465,102941
11.59398,88227
11.60333,68627
11.61267,53591
11.62200,46410
11.63135,42974
11.64068,40655
11.65002,38925
11.65937,40102
11.66870,39501
11.67803,37696
11.68738,38157
11.69672,52601
11.70605,76706
11.71540,81724
11.72473,64288
11.73408,47869
11.74342,39750
11.75275,33717
11.76210,35336
11.77143,35461
11.78077,38522
11.79012,43625
11.79945,40241
11.80878,37260
11.81813,34242
11.82747,37102
11.83680,37857
11.84615,40040
11.85548,36488
11.86482,35406
11.87417,34605
11.88350,35681
11.89283,34103
11.90218,33755
11.91152,31313
11.92087,32671
11.93020,41845
11.93953,61146
11.94888,73211
11.95822,61945
11.96755,45245
11.97690,35608
11.98623,31845
11.99557,36684
12.00492,47451
12.01425,59916
12.02358,60476
12.03293,48663
12.04227,39483
12.05160,35112
12.06095,33106
12.07028,32278
12.07962,32308
12.08897,33028
12.09830,33276
12.10765,31885
12.11698,31485
12.12632,30332
12.13567,31759
12.14500,33549
12.15433,38641
12.16368,61306
12.17302,115573
12.18235,157023
12.19170,121568
12.20103,67578
12.21037,43694
12.21972,42241
12.22905,44843
12.23838,43606
12.24773,38941
12.25707,45921
12.26640,102684
12.27575,229593
12.28508,313089
12.29443,225746
12.30377,106982
12.31310,56974
12.32245,43973
12.33178,40643
12.34112,40622
12.35047,39060
12.35980,37972
12.36913,40671
12.37848,41625
12.38782,43199
12.39715,40223
12.40650,37122
12.41583,35793
12.42517,34538
12.43452,34159
12.44385,32063
12.45318,33218
12.46253,35246
12.47187,38815
12.48122,36863
12.49055,38458
12.49988,38724
12.50923,39548
12.51857,37836
12.52790,40002
12.53725,39106
12.54658,39550
12.55592,40728
12.56527,46851
12.57460,47637
12.58393,43283
12.59328,36662
12.60262,33646
12.61195,35277
12.62130,35015
12.63063,42053
12.63998,50575
12.64932,55095
12.65865,52302
12.66800,48472
12.67733,41040
12.68667,36015
12.69602,32630
12.70535,31847
12.71468,31389
12.72403,32993
12.73337,34204
12.74270,35583
12.75205,37402
12.76138,35698
12.77072,33552
12.78007,33692
12.78940,34366
12.79873,37296
12.80808,36620
12.81742,35928
12.82677,32290
12.83610,34226
12.84543,35022
12.85478,33368
12.86412,30730
12.87345,32426
12.88280,36793
12.89213,36915
12.90147,36833
12.91082,32937
12.92015,32685
12.92948,31817
12.93883,30525
12.94817,34076
12.95750,33572
12.96685,32815
12.97618,30296
12.98552,28679
12.99487,28268
13.00420,29454
13.01355,32881
13.02288,38829
13.03222,44381
13.04157,51838
13.05090,52677
13.06023,50593
13.06958,47585
13.07892,40171
13.08825,38511
13.09760,36844
13.10693,35702
13.11627,35395
13.12562,39151
13.13495,43659
13.14428,45543
13.15363,48916
13.16297,63200
13.17230,76324
13.18165,70684
13.19098,86351
13.20033,188291
13.20967,367512
13.21900,428730
13.22835,282775
13.23768,146137
13.24702,115030
13.25637,117923
13.26570,100998
13.27503,71199
13.28438,54713
13.29372,45989
13.30305,41498
13.31240,43446
13.32173,44317
13.33107,43005
13.34042,41293
13.34975,42802
13.35910,39711
13.36843,36562
13.37777,34791
13.38712,39520
13.39645,43018
13.40578,45369
13.41513,40093
13.42447,36204
13.43380,40004
13.44315,42234
13.45248,42974
13.46182,41404
13.47117,39354
13.48050,42266
13.48983,40819
13.49918,37647
13.50852,44055
13.51785,76492
13.52720,129358
13.53653,143217
13.54588,99707
13.55522,61944
13.56455,44929
13.57390,39218
13.58323,35748
13.59257,34162
13.60192,35332
13.61125,33293
13.62058,35193
13.62993,37460
13.63927,45831
13.64860,57297
13.65795,56589
13.66728,49564
13.67662,39498
13.68597,35550
13.69530,31795
13.70463,31039
13.71398,30275
13.72332,29535
13.73267,28256
13.74200,28156
13.75133,30282
13.76068,29124
13.77002,32418
13.77935,32820
13.78870,36313
13.79803,41480
13.80737,45295
13.81672,44188
13.82605,36436
13.83538,32955
13.84473,29554
13.85407,31916
13.86340,33769
13.87275,37614
13.88208,44915
13.89142,62408
13.90077,110583
13.91010,206762
13.91945,335064
13.92878,298152
13.93812,154878
13.94747,68690
13.95680,48028
13.96613,43281
13.97548,38882
13.98482,37899
13.99415,39667
14.00350,41428
14.01283,40023
14.02217,36935
14.03152,41188
14.04085,104370
14.05018,621183
14.05953,2740865
14.06887,6345300
14.07820,8326546
14.08755,5403910
14.09688,1473294
14.10623,236591
14.11557,66904
14.12490,50233
14.13425,46820
14.14358,45799
14.15292,50143
14.16227,54449
14.17160,59993
14.18093,80277
14.19028,144578
14.19962,195107
14.20895,160354
14.21830,86471
14.22763,45933
14.23697,37114
14.24632,34131
14.25565,31959
14.26500,36281
14.27433,37138
14.28367,34513
14.29302,31892
14.30235,31395
14.31168,35704
14.32103,42460
14.33037,53405
14.33970,61452
14.34905,62663
14.35838,52261
14.36772,42252
14.37707,35340
14.38640,32593
14.39573,31362
14.40508,30727
14.41442,31418
14.42375,28871
14.43310,31362
14.44243,32851
14.45178,38063
14.46112,46343
14.47045,48880
14.47980,48357
14.48913,39871
14.49847,36891
14.50782,32592
14.51715,29463
14.52648,28389
14.53583,29876
14.54517,30565
14.55450,30384
14.56385,31692
14.57318,33109
14.58252,29556
14.59187,29043
14.60120,29460
14.61053,29886
14.61988,29068
14.62922,29929
14.63857,33298
14.64790,42302
14.65723,49419
14.66658,49098
14.67592,43359
14.68525,36725
14.69460,35444
14.70393,32288
14.71327,33600
14.72262,34629
14.73195,34057
14.74128,35834
14.75063,39769
14.75997,42751
14.76930,40216
14.77865,34898
14.78798,32212
14.79732,32755
14.80667,33846
14.81600,31894
14.82535,32580
14.83468,31475
14.84402,28877
14.85337,30892
14.86270,36996
14.87203,44716
14.88138,47457
14.89072,41327
14.90005,36119
14.90940,33407
14.91873,33475
14.92807,32667
14.93742,32039
14.94675,31962
14.95608,33119
14.96543,34982
14.97477,36756
14.98412,37541
14.99345,35816
15.00278,35766
15.01213,40547
15.02147,36552
15.03080,35438
15.04015,35313
15.04948,37789
15.05882,37252
15.06817,36240
15.07750,35088
15.08683,34569
15.09618,31519
15.10552,30023
15.11485,33928
15.12420,39179
15.13353,41819
15.14287,39502
15.15222,34945
15.16155,35539
15.17090,36257
15.18023,39480
15.18957,40636
15.19892,44883
15.20825,57137
15.21758,73388
15.22693,68327
15.23627,54807
15.24560,42639
15.25495,35200
15.26428,34486
15.27362,33266
15.28297,33965
15.29230,32671
15.30163,32156
15.31098,31304
15.32032,33819
15.32965,36148
15.33900,38635
15.34833,37043
15.35768,37838
15.36702,40471
15.37635,42413
15.38570,40455
15.39503,35100
15.40437,32958
15.41372,34577
15.42305,34726
15.43238,35777
15.44173,35624
15.45107,32390
15.46040,32462
15.46975,33016
15.47908,34564
15.48842,37673
15.49777,41124
15.50710,47826
15.51643,54587
15.52578,58885
15.53512,53288
15.54447,43226
15.55380,35565
15.56313,33576
15.57248,33146
15.58182,35724
15.59115,34161
15.60050,36107
15.60983,34834
15.61917,37853
15.62852,41097
15.63785,40882
15.64718,41451
15.65653,39337
15.66587,41762
15.67520,42675
15.68455,38365
15.69388,40744
15.70322,52171
15.71257,53278
15.72190,48705
15.73125,44361
15.74058,42780
15.74992,44250
15.75927,43074
15.76860,43460
15.77793,42395
15.78728,36638
15.79662,36659
15.80595,46721
15.81530,80526
15.82463,141369
15.83397,205366
15.84332,240666
15.85265,201186
15.86198,114921
15.87133,65082
15.88067,53214
15.89002,53057
15.89935,58942
15.90868,56270
15.91803,51570
15.92737,43316
15.93670,38707
15.94605,36363
15.95538,35496
15.96472,37263
15.97407,43863
15.98340,53312
15.99273,61155
16.00208,62444
16.01142,52629
16.02075,39952
16.03010,37403
16.03943,34898
16.04877,35903
16.05812,37523
16.06745,37345
16.07680,36650
16.08613,34925
16.09547,36826
16.10482,36317
16.11415,41675
16.12348,42856
16.13283,42896
16.14217,38688
16.15150,39744
16.16085,41275
16.17018,38925
16.17952,37281
16.18887,36929
16.19820,38979
16.20753,41928
16.21688,47338
16.22622,50038
16.23555,52659
16.24490,48418
16.25423,43158
16.26358,42526
16.27292,51220
16.28225,88744
16.29160,165674
16.30093,237651
16.31027,204490
16.31962,114571
16.32895,59914
16.33828,42160
16.34763,36298
16.35697,34530
16.36630,31914
16.37565,32807
16.38498,31522
16.39432,33527
16.40367,34613
16.41300,34337
16.42233,35588
16.43168,33138
16.44102,33452
16.45037,39074
16.45970,42267
16.46903,41841
16.47838,39865
16.48772,41401
16.49705,40275
16.50640,38541
16.51573,40833
16.52507,40605
16.53442,38190
16.54375,36808
16.55308,34469
16.56243,33047
16.57177,35156
16.58110,36908
16.59045,39441
16.59978,39260
16.60913,39090
16.61847,39887
16.62780,41096
16.63715,48923
16.64648,46347
16.65582,42838
16.66517,39569
16.67450,39079
16.68383,41403
16.69318,48118
16.70252,50638
16.71185,48406
16.72120,40935
16.73053,40924
16.73987,55937
16.74922,87138
16.75855,100004
16.76788,73450
16.77723,47073
16.78657,36664
16.79592,36672
16.80525,40105
16.81458,44566
16.82393,48772
16.83327,55935
16.84260,54157
16.85195,48386
16.86128,41185
16.87062,38345
16.87997,38259
16.88930,34857
16.89863,37909
16.90798,43549
16.91732,50883
16.92665,50510
16.93600,44142
16.94533,46065
16.95467,49928
16.96402,50891
16.97335,50980
16.98270,44660
16.99203,40302
17.00137,35972
17.01072,35595
17.02005,42739
17.02938,63374
17.03873,82602
17.04807,72627
17.05740,50381
17.06675,42094
17.07608,38683
17.08542,39106
17.09477,37643
17.10410,37468
17.11343,35715
17.12278,36007
17.13212,41323
17.14145,44906
17.15080,43265
17.16013,35151
17.16948,35673
17.17882,35775
17.18815,34553
17.19750,35260
17.20683,33513
17.21617,33249
17.22552,30805
17.23485,32334
17.24418,32620
17.25353,33660
17.26287,34381
17.27220,38403
17.28155,40556
17.29088,44993
17.30022,42937
17.30957,42127
17.31890,44783
17.32823,46060
17.33758,42835
17.34692,38206
17.35627,36010
17.36560,40936
17.37493,64055
17.38428,121906
17.39362,157817
17.40295,120605
17.41230,72689
17.42163,50639
17.43097,44447
17.44032,41439
17.44965,41670
17.45898,42427
17.46833,43041
17.47767,43292
17.48700,79828
17.49635,334355
17.50568,1130427
17.51502,2119717
17.52437,2069350
17.53370,960309
17.54305,248227
17.55238,69776
17.56172,45653
17.57107,44852
17.58040,47718
17.58973,48810
17.59908,46369
17.60842,39218
17.61775,37127
17.62710,39443
17.63643,38111
17.64577,40477
17.65512,39280
17.66445,45339
17.67378,51425
17.68313,54441
17.69247,60060
17.70182,58399
17.71115,51171
17.72048,46679
17.72983,43754
17.73917,43420
17.74850,43611
17.75785,46769
17.76718,49328
17.77652,51855
17.78587,46314
17.79520,43881
17.80453,41395
17.81388,41124
17.82322,40480
17.83255,40962
17.84190,40306
17.85123,44618
17.86057,52300
17.86992,55525
17.87925,54785
17.88860,50067
17.89793,43944
17.90727,40424
17.91662,39157
17.92595,40797
17.93528,39150
17.94463,40789
17.95397,40970
17.96330,41534
17.97265,42260
17.98198,39850
17.99132,39235
18.00067,40350
18.01000,41116
18.01933,41866
18.02868,42667
18.03802,43528
18.04735,47512
18.05670,50113
18.06603,48982
18.07538,44380
18.08472,43193
18.09405,41814
18.10340,42272
18.11273,45147
18.12207,45915
18.13142,44422
18.14075,43025
18.15008,44887
18.15943,45027
18.16877,43950
18.17810,44152
18.18745,42668
18.19678,42221
18.20612,40847
18.21547,40315
18.22480,42555
18.23413,40540
18.24348,41882
18.25282,41515
18.26217,41204
18.27150,42682
18.28083,46748
18.29018,50037
18.29952,51890
18.30885,54290
18.31820,52526
18.32753,50801
18.33687,53891
18.34622,56687
18.35555,60666
18.36488,61915
18.37423,57020
18.38357,58848
18.39290,59596
18.40225,59247
18.41158,61545
18.42093,58263
18.43027,52344
18.43960,53762
18.44895,54684
18.45828,53173
18.46762,50722
18.47697,47424
18.48630,47300
18.49563,56873
18.50498,63504
18.51432,72819
18.52365,65317
18.53300,58244
18.54233,49350
18.55167,48920
18.56102,52479
18.57035,50659
18.57968,47913
18.58903,42974
18.59837,43788
18.60772,47672
18.61705,52395
18.62638,52312
18.63573,48569
18.64507,47057
18.65440,45973
18.66375,46261
18.67308,47256
18.68242,47152
18.69177,49246
18.70110,52357
18.71043,52470
18.71978,54372
18.72912,54491
18.73845,50498
18.74780,47505
18.75713,43604
18.76647,41756
18.77582,40605
18.78515,39708
18.79450,39812
18.80383,40470
18.81317,40275
18.82252,39038
18.83185,37053
18.84118,39459
18.85053,38751
18.85987,38558
18.86920,35488
18.87855,35109
18.88788,35123
18.89722,39356
18.90657,42198
18.91590,46959
18.92523,49048
18.93458,46047
18.94392,42508
18.95325,47012
18.96260,50779
18.97193,48443
18.98128,48259
18.99062,45338
18.99995,42356
19.00930,41127
19.01863,37474
19.02797,41714
19.03732,45501
19.04665,53972
19.05598,67488
19.06533,79473
19.07467,91850
19.08400,112026
19.09335,114901
19.10268,86812
19.11202,59613
19.12137,45189
19.13070,39297
19.14003,36125
19.14938,37523
19.15872,33854
19.16807,34587
19.17740,35241
19.18673,40412
19.19608,42028
19.20542,48601
19.21475,47735
19.22410,46916
19.23343,44049
19.24277,41266
19.25212,39611
19.26145,39331
19.27078,42614
19.28013,42987
19.28947,45592
19.29880,46816
19.30815,51765
19.31748,58103
19.32682,58053
19.33617,50364
19.34550,44356
19.35485,38657
19.36418,36083
19.37352,34695
19.38287,35617
19.39220,34680
19.40153,36086
19.41088,36210
19.42022,37551
19.42955,35242
19.43890,33491
19.44823,34092
19.45757,34607
19.46692,35516
19.47625,36874
19.48558,37816
19.49493,39836
19.50427,38803
19.51362,35691
19.52295,35467
19.53228,36435
19.54163,37297
19.55097,36075
19.56030,33283
19.56965,35667
19.57898,37816
19.58832,41047
19.59767,39462
19.60700,37709
19.61633,36541
19.62568,38606
19.63502,39588
19.64435,42171
19.65370,39049
19.66303,37472
19.67237,33620
19.68172,36634
19.69105,34272
19.70040,34210
19.70973,37241
19.71907,42500
19.72842,50917
19.73775,53870
19.74708,50494
19.75643,43450
19.76577,40303
19.77510,37998
19.78445,41445
19.79378,40459
19.80312,38064
19.81247,35731
19.82180,38984
19.83113,37614
19.84048,34266
19.84982,33336
19.85915,34519
19.86850,39691
19.87783,52040
19.88718,55837
19.89652,49889
19.90585,40866
19.91520,36934
19.92453,37524
19.93387,38592
19.94322,38584
19.95255,37106
19.96188,37066
19.97123,35255
19.98057,33332
19.98990,32609
19.99925,34163
20.00858,33784
20.01792,34250
20.02727,34396
20.03660,36505
20.04593,38636
20.05528,38225
20.06462,36449
20.07397,38795
20.08330,37129
20.09263,37768
20.10198,34911
20.11132,32897
20.12065,31291
20.13000,32942
20.13933,34057
20.14867,39546
20.15802,43114
20.16735,44999
20.17668,41322
20.18603,36558
20.19537,34839
20.20470,34870
20.21405,33271
20.22338,34418
20.23273,37062
20.24207,40365
20.25140,41954
20.26075,42473
20.27008,37528
20.27942,36859
20.28877,35380
20.29810,36154
20.30743,35385
20.31678,35591
20.32612,32265
20.33545,32268
20.34480,32687
20.35413,35515
20.36347,35880
20.37282,35075
20.38215,34389
20.39148,33912
20.40083,33536
20.41017,33350
20.41952,32586
20.42885,34222
20.43818,34724
20.44753,35663
20.45687,35514
20.46620,40542
20.47555,45201
20.48488,78106
20.49422,217068
20.50357,559081
20.51290,826695
20.52223,630591
20.53158,267050
20.54092,85502
20.55025,49360
20.55960,54535
20.56893,97516
20.57827,170348
20.58762,200986
20.59695,139665
20.60630,74576
20.61563,47203
20.62497,43916
20.63432,43466
20.64365,47072
20.65298,50647
20.66233,48674
20.67167,46486
20.68100,47913
20.69035,44249
20.69968,43396
20.70902,43156
20.71837,43278
20.72770,42760
20.73703,41340
20.74638,41038
20.75572,40409
20.76505,41631
20.77440,38145
20.78373,41951
20.79308,44631
20.80242,46625
20.81175,44317
20.82110,44424
20.83043,40252
20.83977,39371
20.84912,37823
20.85845,37770
20.86778,41378
20.87713,38165
20.88647,38505
20.89580,39980
20.90515,42634
20.91448,43283
20.92382,41208
20.93317,38012
20.94250,37035
20.95183,37416
20.96118,37093
20.97052,36254
20.97987,36307
20.98920,37523
20.99853,39474
21.00788,41846
21.01722,40583
21.02655,38781
21.03590,36788
21.04523,38850
21.05457,38371
21.06392,39113
21.07325,37479
21.08258,38032
21.09193,37208
21.10127,37313
21.11060,37431
21.11995,39075
21.12928,38300
21.13863,37145
21.14797,38031
21.15730,38598
21.16665,40166
21.17598,45166
21.18532,50411
21.19467,50242
21.20400,46953
21.21333,41693
21.22268,40787
21.23202,41659
21.24135,39466
21.25070,39384
21.26003,40076
21.26937,40355
21.27872,43607
21.28805,44952
21.29738,43132
21.30673,43242
21.31607,40157
21.32542,39598
21.33475,39093
21.34408,39271
21.35343,40029
21.36277,39427
21.37210,37103
21.38145,39133
21.39078,38674
21.40012,40186
21.40947,40705
21.41880,42432
21.42813,40671
21.43748,41478
21.44682,40150
21.45615,40674
21.46550,39016
21.47483,39680
21.48417,43895
21.49352,43612
21.50285,44139
21.51220,43016
21.52153,43102
21.53087,41401
21.54022,42469
21.54955,40825
21.55888,44328
21.56823,50225
21.57757,50723
21.58690,50316
21.59625,48486
21.60558,47209
21.61492,43977
21.62427,44199
21.63360,45821
21.64293,41855
21.65228,41145
21.66162,41386
21.67095,44091
21.68030,47172
21.68963,48732
21.69898,47689
21.70832,48457
21.71765,53051
21.72700,65586
21.73633,70803
21.74567,63565
21.75502,54528
21.76435,49661
21.77368,47549
21.78303,45828
21.79237,41345
21.80170,46815
21.81105,48673
21.82038,54692
21.82972,55647
21.83907,60205
21.84840,71517
21.85775,80438
21.86708,78033
21.87642,63442
21.88577,55811
21.89510,53429
21.90443,54277
21.91378,50880
21.92312,47661
21.93245,43955
21.94180,43151
21.95113,43184
21.96047,45485
21.96982,48669
21.97915,54082
21.98848,58531
21.99783,63280
22.00717,57257
22.01650,49237
22.02585,47629
22.03518,52227
22.04453,55795
22.05387,56831
22.06320,52974
22.07255,55253
22.08188,63598
22.09122,65800
22.10057,62806
22.10990,57030
22.11923,53244
22.12858,47640
22.13792,49803
22.14725,52454
22.15660,61556
22.16593,69934
22.17527,72831
22.18462,67784
22.19395,60803
22.20328,51647
22.21263,53452
22.22197,54629
22.23132,56359
22.24065,53236
22.24998,50898
22.25933,47960
22.26867,49045
22.27800,50173
22.28735,49752
22.29668,52531
22.30602,51359
22.31537,50196
22.32470,47846
22.33403,47418
22.34338,46196
22.35272,49758
22.36205,49665
22.37140,51535
22.38073,49064
22.39007,48699
22.39942,45915
22.40875,44741
22.41810,43630
22.42743,43318
22.43677,44908
22.44612,46743
22.45545,47899
22.46478,49794
22.47413,48353
22.48347,49355
22.49280,48991
22.50215,61581
22.51148,72844
22.52082,77901
22.53017,67967
22.53950,53088
22.54883,47041
22.55818,44816
22.56752,46518
22.57685,50331
22.58620,51965
22.59553,54317
22.60488,53162
22.61422,53790
22.62355,50243
22.63290,49558
22.64223,48954
22.65157,47109
22.66092,44705
22.67025,45277
22.67958,45180
22.68893,49279
22.69827,50491
22.70760,51746
22.71695,48339
22.72628,44876
22.73562,46850
22.74497,50250
22.75430,54700
22.76363,59791
22.77298,57558
22.78232,52963
22.79167,49084
22.80100,44854
22.81033,43621
22.81968,43259
22.82902,43427
22.83835,44860
22.84770,45594
22.85703,47075
22.86637,45235
22.87572,42920
22.88505,43664
22.89438,44012
22.90373,43696
22.91307,44859
22.92240,45834
22.93175,43496
22.94108,41999
22.95043,45380
22.95977,46581
22.96910,45857
22.97845,44465
22.98778,42749
22.99712,41102
23.00647,42913
23.01580,41391
23.02513,40558
23.03448,39698
23.04382,41499
23.05315,41781
23.06250,40002
23.07183,41112
23.08117,40084
23.09052,39682
23.09985,40407
23.10918,40996
23.11853,40717
23.12787,41342
23.13722,40667
23.14655,40609
23.15588,39299
23.16523,38603
23.17457,38783
23.18390,38435
23.19325,40382
23.20258,41991
23.21192,41616
23.22127,46180
23.23060,46251
23.23993,47655
23.24928,46494
23.25862,49900
23.26795,50307
23.27730,48189
23.28663,44367
23.29597,44363
23.30532,44631
23.31465,44293
23.32400,47971
23.33333,53228
23.34267,54532
23.35202,50319
23.36135,46893
23.37068,43650
23.38003,41678
23.38937,40794
23.39870,42075
23.40805,45775
23.41738,43302
23.42672,43884
23.43607,42637
23.44540,43904
23.45473,44989
23.46408,46084
23.47342,45837
23.48275,45390
23.49210,45028
23.50143,42844
23.51078,41295
23.52012,43014
23.52945,43466
23.53880,42635
23.54813,42915
23.55747,41268
23.56682,40459
23.57615,41465
23.58548,43988
23.59483,44436
23.60417,41921
23.61350,41479
23.62285,41052
23.63218,37810
23.64152,40608
23.65087,40245
23.66020,42253
23.66955,45545
23.67888,43662
23.68822,43406
23.69757,43624
23.70690,41510
23.71623,46765
23.72558,46024
23.73492,47114
23.74425,45305
23.75360,42992
23.76293,40818
23.77227,40680
23.78162,40551
23.79095,42664
23.80028,40442
23.80963,40175
23.81897,40117
23.82830,40682
23.83765,39680
23.84698,40049
23.85633,38505
23.86567,39622
23.87500,38249
23.88435,39580
23.89368,38735
23.90302,40686
23.91237,41396
23.92170,38963
23.93103,39379
23.94038,40505
23.94972,38754
23.95905,40400
23.96840,38163
23.97773,38922
23.98707,39613
23.99642,37227
24.00575,39632
24.01508,40652
24.02443,41022
24.03377,38185
24.04312,37383
24.05245,36628
24.06178,36458
24.07113,38091
24.08047,38835
24.08980,41031
24.09915,41599
24.10848,38918
24.11782,38592
24.12717,38990
24.13650,38252
24.14583,39179
24.15518,38916
24.16452,40106
24.17385,39115
24.18320,37946
24.19253,38887
24.20187,38404
24.21122,39661
24.22055,41837
24.22990,47207
24.23923,49947
24.24857,52578
24.25792,50657
24.26725,49940
24.27658,45029
24.28593,41110
24.29527,39564
24.30460,40811
24.31395,44389
24.32328,42708
24.33262,43082
24.34197,42108
24.35130,41824
24.36063,41072
24.36998,41388
24.37932,43249
24.38865,45462
24.39800,45689
24.40733,43657
24.41668,41156
24.42602,41646
24.43535,42795
24.44470,41817
24.45403,41916
24.46337,43706
24.47272,41999
24.48205,41769
24.49138,41067
24.50073,40843
24.51007,41091
24.51940,42113
24.52875,41106
24.53808,41656
24.54742,46648
24.55677,50307
24.56610,52115
24.57545,50341
24.58478,45241
24.59412,44358
24.60347,45961
24.61280,49772
24.62213,49866
24.63148,46834
24.64082,46291
24.65015,44389
24.65950,44501
24.66883,45129
24.67817,45093
24.68752,43872
24.69685,43460
24.70618,41942
24.71553,45260
24.72487,43426
24.73420,43897
24.74355,43055
24.75288,44435
24.76223,44133
24.77157,41822
24.78090,44131
24.79025,41872
24.79958,41074
24.80892,41545
24.81827,42945
24.82760,42433
24.83693,41686
24.84628,43282
24.85562,44431
24.86495,44746
24.87430,43164
24.88363,44525
24.89297,42970
24.90232,42708
24.91165,42165
24.92098,42666
24.93033,42423
24.93967,42137
24.94902,45853
24.95835,45766
24.96768,47541
24.97703,49154
24.98637,46106
24.99570,45417
25.00505,46663
25.01438,43840
25.02372,41580
25.03307,46002
25.04240,44439
25.05173,44114
25.06108,46433
25.07042,46874
25.07975,46435
25.08910,45480
25.09843,45104
25.10777,47885
25.11712,50112
25.12645,53992
25.13580,60713
25.14513,66561
25.15447,69162
25.16382,66144
25.17315,63888
25.18248,59574
25.19183,55245
25.20117,55192
25.21050,52071
25.21985,49359
25.22918,50320
25.23852,49495
25.24787,49394
25.25720,49998
25.26653,51227
25.27588,48695
25.28522,48469
25.29457,47819
25.30390,50034
25.31323,60368
25.32258,86773
25.33192,126241
25.34125,135434
25.35060,106346
25.35993,75719
25.36927,62266
25.37862,56981
25.38795,54273
25.39728,54122
25.40663,54113
25.41597,54311
25.42530,55225
25.43465,54658
25.44398,53347
25.45332,52392
25.46267,55127
25.47200,53344
25.48135,56018
25.49068,56703
25.50002,58516
25.50937,59432
25.51870,60857
25.52803,59224
25.53738,57355
25.54672,58075
25.55605,56842
25.56540,56204
25.57473,55333
25.58407,55296
25.59342,51484
25.60275,50558
25.61208,52186
25.62143,53035
25.63077,55882
25.64010,61539
25.64945,62882
25.65878,62887
25.66813,60181
25.67747,54264
25.68680,53884
25.69615,53042
25.70548,54429
25.71482,53608
25.72417,53233
25.73350,53055
25.74283,53451
25.75218,56870
25.76152,55031
25.77085,52768
25.78020,55197
25.78953,52631
25.79887,55915
25.80822,59851
25.81755,61604
25.82688,63262
25.83623,70719
25.84557,71264
25.85492,65697
25.86425,62758
25.87358,60747
25.88293,57847
25.89227,58460
25.90160,56432
25.91095,53642
25.92028,55286
25.92962,54925
25.93897,57297
25.94830,55747
25.95763,59405
25.96698,59268
25.97632,59363
25.98565,56082
25.99500,55693
26.00433,54275
26.01367,56717
26.02302,55600
26.03235,54101
26.04170,56071
26.05103,54274
26.06037,57356
26.06972,56842
26.07905,55785
26.08838,55685
26.09773,58208
26.10707,59716
26.11640,70373
26.12575,112576
26.13508,203491
26.14442,312333
26.15377,316257
26.16310,248831
26.17243,182850
26.18178,150126
26.19112,120744
26.20045,107246
26.20980,94979
26.21913,91368
26.22848,88101
26.23782,83353
26.24715,79081
26.25650,75283
26.26583,72637
26.27517,70621
26.28452,73973
26.29385,77551
26.30318,77242
26.31253,77574
26.32187,74980
26.33120,71608
26.34055,71176
26.34988,67696
26.35922,66275
26.36857,64107
26.37790,62861
26.38725,61839
26.39658,62666
26.40592,60468
26.41527,58786
26.42460,62922
26.43393,65843
26.44328,65023
26.45262,62956
26.46195,63220
26.47130,61907
26.48063,62716
26.48997,61393
26.49932,62612
26.50865,64392
26.51798,65561
26.52733,67331
26.53667,64234
26.54600,64164
26.55535,63617
26.56468,67431
26.57403,65465
26.58337,64354
26.59270,68639
26.60205,69170
26.61138,68078
26.62072,65073
26.63007,64798
26.63940,64696
26.64873,60019
26.65808,63074
26.66742,63427
26.67675,63289
26.68610,63729
26.69543,65116
26.70477,63767
26.71412,65124
26.72345,64253
26.73278,67695
26.74213,67212
26.75147,67032
26.76082,67887
26.77015,65825
26.77948,66615
26.78883,67988
26.79817,67298
26.80750,65882
26.81685,66488
26.82618,68165
26.83552,72401
26.84487,71246
26.85420,70208
26.86353,72568
26.87288,67499
26.88222,69813
26.89155,68719
26.90090,68410
26.91023,64826
26.91957,66474
26.92892,65951
26.93825,64513
26.94760,64913
26.95693,61526
26.96627,64717
26.97562,66416
26.98495,67739
26.99428,74813
27.00363,91736
27.01297,98927
27.02230,94902
27.03165,82943
27.04098,76099
27.05032,74842
27.05967,72349
27.06900,68999
27.07833,66596
27.08768,66174
27.09702,67765
27.10637,69395
27.11570,72084
27.12503,73728
27.13438,72611
27.14372,74830
27.15305,75801
27.16240,75189
27.17173,73621
27.18107,74572
27.19042,75262
27.19975,74951
27.20908,74912
27.21843,73073
27.22777,75284
27.23710,76432
27.24645,79080
27.25578,78245
27.26512,76925
27.27447,79109
27.28380,78322
27.29315,79134
27.30248,75848
27.31182,78491
27.32117,76187
27.33050,74903
27.33983,75486
27.34918,72936
27.35852,72798
27.36785,74394
27.37720,73569
27.38653,73488
27.39587,71363
27.40522,72891
27.41455,75275
27.42388,74700
27.43323,78184
27.44257,79378
27.45190,80346
27.46125,83692
27.47058,85386
27.47993,86317
27.48927,89621
27.49860,100367
27.50795,103934
27.51728,107220
27.52662,109842
27.53597,114110
27.54530,107605
27.55463,101697
27.56398,97006
27.57332,94726
27.58265,88834
27.59200,87608
27.60133,81565
27.61067,81794
27.62002,80416
27.62935,77338
27.63868,77025
27.64803,77767
27.65737,83752
27.66672,94350
27.67605,121318
27.68538,138226
27.69473,122684
27.70407,103386
27.71340,87590
27.72275,84146
27.73208,81225
27.74142,78015
27.75077,75440
27.76010,73239
27.76943,75375
27.77878,74523
27.78812,75108
27.79745,74587
27.80680,75510
27.81613,78252
27.82547,77743
27.83482,78417
27.84415,74891
27.85350,73547
27.86283,76142
27.87217,76516
27.88152,73669
27.89085,75331
27.90018,77830
27.90953,77374
27.91887,77418
27.92820,79134
27.93755,77929
27.94688,80662
27.95622,77455
27.96557,77666
27.97490,76779
27.98423,77502
27.99358,76556
28.00292,75567
28.01227,74090
28.02160,72575
28.03093,74626
28.04028,73977
28.04962,72002
28.05895,73509
28.06830,76619
28.07763,77319
28.08697,73741
28.09632,79019
28.10565,91255
28.11498,141586
28.12433,235017
28.13367,275442
28.14300,219045
28.15235,150327
28.16168,115830
28.17102,100582
28.18037,89149
28.18970,87423
28.19905,86119
28.20838,86240
28.21772,84113
28.22707,85471
28.23640,85470
28.24573,81832
28.25508,83838
28.26442,81416
28.27375,81256
28.28310,80875
28.29243,81715
28.30177,81922
28.31112,79535
28.32045,78818
28.32978,80565
28.33913,83120
28.34847,80987
28.35780,79452
28.36715,79811
28.37648,78138
28.38583,80806
28.39517,79777
28.40450,77560
28.41385,78816
28.42318,79211
28.43252,79755
28.44187,78689
28.45120,78941
28.46053,78692
28.46988,81154
28.47922,77184
28.48855,82357
28.49790,83307
28.50723,86610
28.51657,87373
28.52592,92530
28.53525,94906
28.54458,94731
28.55393,93200
28.56327,93866
28.57262,90709
28.58195,91931
28.59128,92093
28.60063,92990
28.60997,89221
28.61930,90220
28.62865,89536
28.63798,90215
28.64732,87113
28.65667,87035
28.66600,91712
28.67533,100574
28.68468,112565
28.69402,111426
28.70335,102577
28.71270,95915
28.72203,89829
28.73137,91747
28.74072,92829
28.75005,93995
28.75940,94869
28.76873,94573
28.77807,91744
28.78742,91880
28.79675,92514
28.80608,92010
28.81543,93708
28.82477,90370
28.83410,92546
28.84345,93877
28.85278,91299
28.86212,94259
28.87147,94598
28.88080,94412
28.89013,93940
28.89948,95783
28.90882,96830
28.91817,97566
28.92750,98072
28.93683,98366
28.94618,99060
28.95552,97602
28.96485,95818
28.97420,94638
28.98353,98447
28.99287,97135
29.00222,95189
29.01155,97789
29.02088,98519
29.03023,99652
29.03957,99519
29.04890,101261
29.05825,101575
29.06758,99266
29.07692,99248
29.08627,99153
29.09560,100176
29.10495,96297
29.11428,99274
29.12362,101218
29.13297,101286
29.14230,102306
29.15163,101300
29.16098,101868
29.17032,98933
29.17965,109517
29.18900,142060
29.19833,228091
29.20767,333361
29.21702,350311
29.22635,265666
29.23568,189886
29.24503,149495
29.25437,132342
29.26370,124693
29.27305,116338
29.28238,115721
29.29173,110467
29.30107,113841
29.31040,112945
29.31975,112747
29.32908,111961
29.33842,108644
29.34777,107823
29.35710,115345
29.36643,112039
29.37578,109357
29.38512,106306
29.39445,107889
29.40380,111714
29.41313,109815
29.42247,107509
29.43182,105775
29.44115,109005
29.45048,106720
29.45983,110813
29.46917,111397
29.47852,115802
29.48785,115517
29.49718,114586
29.50653,106237
29.51587,105380
29.52520,106180
29.53455,101464
29.54388,103061
29.55322,101675
29.56257,100435
29.57190,99661
29.58123,101543
29.59058,104324
29.59992,102138
29.60925,102962
29.61860,103590
29.62793,106082
29.63727,106095
29.64662,106216
29.65595,106685
29.66530,104852
29.67463,104850
29.68397,101951
29.69332,103554
29.70265,104801
29.71198,104235
29.72133,104636
29.73067,107294
29.74000,102450
29.74935,104716
29.75868,103567
29.76802,101680
29.77737,100972
29.78670,99424
29.79603,100703
29.80538,95943
29.81472,97011
29.82407,99555
29.83340,98518
29.84273,103445
29.85208,98192
29.86142,99251
29.87075,98716
29.88010,97022
29.88943,100517
29.89877,96929
29.90812,97583
29.91745,100610
29.92678,99417
29.93613,100777
29.94547,99004
29.95480,102080
29.96415,101342
29.97348,101513
29.98282,102555
29.99217,102720
30.00150,106215
30.01085,102836
30.02018,99292
30.02952,101412
30.03887,100381
30.04820,99947
30.05753,98663
30.06688,97876
30.07622,101789
30.08555,99798
30.09490,102100
30.10423,104751
30.11357,111645
30.12292,118248
30.13225,126939
30.14158,130076
30.15093,135846
30.16027,135696
30.16960,139737
30.17895,133416
30.18828,129732
30.19763,129359
30.20697,121766
30.21630,114463
30.22565,112169
30.23498,108513
30.24432,106771
30.25367,104376
30.26300,103712
30.27233,100869
30.28168,102214
30.29102,103764
30.30035,102801
30.30970,98718
30.31903,99569
30.32837,99120
30.33772,97227
30.34705,101719
30.35638,101336
30.36573,103299
30.37507,112080
30.38442,136482
30.39375,180409
30.40308,235698
30.41243,267240
30.42177,243453
30.43110,200721
30.44045,160756
30.44978,132306
30.45912,121031
30.46847,113193
30.47780,110890
30.48713,105621
30.49648,104889
30.50582,103129
30.51515,101638
30.52450,99005
30.53383,100571
30.54318,99725
30.55252,97321
30.56185,97229
30.57120,95213
30.58053,101370
30.58987,98459
30.59922,100005
30.60855,101064
30.61788,101539
30.62723,101624
30.63657,101492
30.64590,103128
30.65525,103419
30.66458,105330
30.67392,104920
30.68327,103526
30.69260,99131
30.70193,99483
30.71128,100285
30.72062,101392
30.72997,96675
30.73930,96174
30.74863,96507
30.75798,94740
30.76732,93996
30.77665,93924
30.78600,92992
30.79533,94003
30.80467,92397
30.81402,94296
30.82335,93729
30.83268,91737
30.84203,94764
30.85137,93427
30.86070,96509
30.87005,97109
30.87938,96105
30.88872,98286
30.89807,96992
30.90740,99552
30.91675,99087
30.92608,98684
30.93542,102061
30.94477,101456
30.95410,101614
30.96343,99437
30.97278,98955
30.98212,97244
30.99145,95376
31.00080,95728
31.01013,95289
31.01947,94506
31.02882,91017
31.03815,93812
31.04748,95461
31.05683,95072
31.06617,92758
31.07550,96654
31.08485,93291
31.09418,95529
31.10353,93810
31.11287,95609
31.12220,98211
31.13155,98280
31.14088,97938
31.15022,99347
31.15957,99062
31.16890,101423
31.17823,96898
31.18758,99897
31.19692,102345
31.20625,100919
31.21560,102185
31.22493,98450
31.23427,100701
31.24362,96743
31.25295,100042
31.26228,99898
31.27163,99059
31.28097,96937
31.29032,96829
31.29965,96728
31.30898,95706
31.31833,94064
31.32767,95789
31.33700,95863
31.34635,94946
31.35568,94258
31.36502,93534
