D:\数据\20220215\LCLN-ZS1E #000376.D Tue Feb 15 22:01:33 2022
Start of data points
0.09745,27175
0.10678,28291
0.11612,28871
0.12547,29891
0.13480,28460
0.14413,31009
0.15348,29065
0.16282,29179
0.17215,28931
0.18150,28738
0.19083,27547
0.20018,27834
0.20952,26604
0.21885,26335
0.22820,25186
0.23753,26076
0.24687,24401
0.25622,25436
0.26555,23905
0.27488,24492
0.28423,24534
0.29357,25048
0.30290,24950
0.31225,24679
0.32158,23163
0.33092,23781
0.34027,23302
0.34960,23478
0.35895,23209
0.36828,23432
0.37762,23643
0.38697,23911
0.39630,23052
0.40563,24031
0.41498,23530
0.42432,23260
0.43365,23980
0.44300,20262
0.45233,19796
0.46167,18382
0.47102,14706
0.48035,11134
0.48968,9319
0.49903,9108
0.50837,9551
0.51770,9687
0.52705,9037
0.53638,8957
0.54573,9120
0.55507,8720
0.56440,8056
0.57375,8011
0.58308,7874
0.59242,7761
0.60177,8830
0.61110,8260
0.62043,8641
0.62978,8032
0.63912,8348
0.64845,8291
0.65780,8288
0.66713,8180
0.67647,8008
0.68582,7690
0.69515,7984
0.70448,8591
0.71383,7896
0.72317,7494
0.73252,7410
0.74185,7573
0.75118,8268
0.76053,7915
0.76987,6930
0.77920,6931
0.78855,7703
0.79788,7462
0.80722,8616
0.81657,7309
0.82590,7757
0.83523,7635
0.84458,8046
0.85392,7176
0.86325,7630
0.87260,7691
0.88193,7427
0.89127,7324
0.90062,7521
0.90995,7107
0.91930,7613
0.92863,7042
0.93797,8097
0.94732,7890
0.95665,6965
0.96598,6948
0.97533,6421
0.98467,6831
0.99400,7248
1.00335,7773
1.01268,7930
1.02202,6531
1.03137,7444
1.04070,7042
1.05003,6171
1.05938,7248
1.06872,7054
1.07805,6783
1.08740,7003
1.09673,7413
1.10608,7557
1.11542,6892
1.12475,6689
1.13410,6746
1.14343,7331
1.15277,6604
1.16212,7932
1.17145,6924
1.18078,6817
1.19013,6978
1.19947,6531
1.20880,7530
1.21815,6686
1.22748,7245
1.23682,7152
1.24617,6858
1.25550,7208
1.26485,6363
1.27418,6531
1.28352,7146
1.29287,7203
1.30220,7507
1.31153,7101
1.32088,7099
1.33022,7349
1.33955,6133
1.34890,6767
1.35823,7228
1.36757,6821
1.37692,6310
1.38625,7217
1.39558,6935
1.40493,6235
1.41427,7498
1.42360,7191
1.43295,7290
1.44228,5748
1.45163,6131
1.46097,6823
1.47030,6593
1.47965,7121
1.48898,7346
1.49832,6207
1.50767,5990
1.51700,6592
1.52633,6088
1.53568,6223
1.54502,5804
1.55435,6202
1.56370,6427
1.57303,6402
1.58237,6801
1.59172,6086
1.60105,6411
1.61038,8864
1.61973,14414
1.62907,20675
1.63842,22621
1.64775,27916
1.65708,39560
1.66643,48913
1.67577,52065
1.68510,46079
1.69445,38154
1.70378,28267
1.71312,20163
1.72247,18221
1.73180,20848
1.74113,21344
1.75048,22984
1.75982,24476
1.76915,27129
1.77850,27159
1.78783,26268
1.79717,27096
1.80652,26896
1.81585,27879
1.82520,27964
1.83453,27614
1.84387,25972
1.85322,27458
1.86255,31548
1.87188,45969
1.88123,86623
1.89057,152479
1.89990,212381
1.90925,254155
1.91858,287864
1.92792,343144
1.93727,424144
1.94660,502089
1.95593,504527
1.96528,440121
1.97462,353451
1.98397,276251
1.99330,227162
2.00263,195448
2.01198,166263
2.02132,150826
2.03065,141950
2.04000,120687
2.04933,101108
2.05867,87037
2.06802,88859
2.07735,208097
2.08668,582349
2.09603,762876
2.10537,492930
2.11470,262201
2.12405,166143
2.13338,125521
2.14272,129074
2.15207,124783
2.16140,106920
2.17075,88990
2.18008,91990
2.18942,159080
2.19877,204713
2.20810,159051
2.21743,113753
2.22678,133820
2.23612,272171
2.24545,1176394
2.25480,4203687
2.26413,5960443
2.27347,5079226
2.28282,3349566
2.29215,1949357
2.30148,1765348
2.31083,6050356
2.32017,1.347713E+07
2.32950,1.341826E+07
2.33885,7804925
2.34818,3442516
2.35753,1474844
2.36687,696082
2.37620,399062
2.38555,284091
2.39488,224397
2.40422,183944
2.41357,160525
2.42290,142397
2.43223,122305
2.44158,102720
2.45092,91430
2.46025,94818
2.46960,106485
2.47893,102230
2.48827,87066
2.49762,77250
2.50695,70470
2.51628,67333
2.52563,63153
2.53497,64065
2.54432,69761
2.55365,87707
2.56298,202790
2.57233,254662
2.58167,204410
2.59100,152341
2.60035,126741
2.60968,128399
2.61902,145838
2.62837,134486
2.63770,118791
2.64703,116065
2.65638,107668
2.66572,88121
2.67505,69715
2.68440,59920
2.69373,54087
2.70307,59098
2.71242,81587
2.72175,118167
2.73110,143030
2.74043,158138
2.74977,169595
2.75912,163983
2.76845,148171
2.77778,161766
2.78713,162331
2.79647,131273
2.80580,106154
2.81515,95552
2.82448,87235
2.83382,78356
2.84317,85246
2.85250,123924
2.86183,167677
2.87118,164369
2.88052,122344
2.88985,92787
2.89920,75691
2.90853,69088
2.91788,63635
2.92722,58275
2.93655,55185
2.94590,50702
2.95523,49145
2.96457,47071
2.97392,49334
2.98325,52476
2.99258,58755
3.00193,66905
3.01127,69680
3.02060,74042
3.02995,96215
3.03928,101697
3.04862,95177
3.05797,108682
3.06730,123503
3.07665,116040
3.08598,86079
3.09532,63237
3.10467,51480
3.11400,47094
3.12333,48185
3.13268,50304
3.14202,54529
3.15135,63187
3.16070,70389
3.17003,68208
3.17937,57346
3.18872,50487
3.19805,50029
3.20738,45863
3.21673,45639
3.22607,44311
3.23540,43010
3.24475,44742
3.25408,48854
3.26343,47595
3.27277,45754
3.28210,44586
3.29145,47811
3.30078,51300
3.31012,50115
3.31947,47652
3.32880,43484
3.33813,43305
3.34748,42580
3.35682,42452
3.36615,41330
3.37550,40685
3.38483,41030
3.39417,40839
3.40352,43550
3.41285,47823
3.42218,53434
3.43153,55951
3.44087,54759
3.45022,52993
3.45955,48484
3.46888,50146
3.47823,52653
3.48757,50829
3.49690,48176
3.50625,44169
3.51558,42403
3.52492,40576
3.53427,45949
3.54360,77713
3.55293,183157
3.56228,340842
3.57162,392071
3.58095,288465
3.59030,170333
3.59963,118021
3.60897,93775
3.61832,74704
3.62765,64026
3.63700,58117
3.64633,52127
3.65567,51608
3.66502,52742
3.67435,56253
3.68368,53528
3.69303,45674
3.70237,45831
3.71170,50719
3.72105,56321
3.73038,59616
3.73972,53157
3.74907,44530
3.75840,41033
3.76773,40523
3.77708,40897
3.78642,40012
3.79577,47068
3.80510,58951
3.81443,78805
3.82378,78932
3.83312,65344
3.84245,57497
3.85180,52815
3.86113,50159
3.87047,47071
3.87982,48204
3.88915,53604
3.89848,58673
3.90783,59257
3.91717,57467
3.92650,65141
3.93585,73686
3.94518,74325
3.95452,67242
3.96387,58951
3.97320,58193
3.98255,58436
3.99188,55195
4.00122,53617
4.01057,51046
4.01990,62554
4.02923,112638
4.03858,200274
4.04792,239882
4.05725,183954
4.06660,120266
4.07593,92124
4.08527,97748
4.09462,98774
4.10395,88002
4.11328,69595
4.12263,54586
4.13197,47784
4.14130,47259
4.15065,46571
4.15998,49457
4.16933,56861
4.17867,61219
4.18800,57324
4.19735,53884
4.20668,52773
4.21602,48641
4.22537,44101
4.23470,44218
4.24403,41512
4.25338,46308
4.26272,47623
4.27205,48016
4.28140,47682
4.29073,45559
4.30007,43943
4.30942,46192
4.31875,50427
4.32808,52581
4.33743,52357
4.34677,48401
4.35612,45353
4.36545,45194
4.37478,46803
4.38413,45204
4.39347,42574
4.40280,40868
4.41215,38032
4.42148,38689
4.43082,38096
4.44017,38705
4.44950,40431
4.45883,44464
4.46818,56235
4.47752,61496
4.48685,61233
4.49620,50901
4.50553,45216
4.51487,43928
4.52422,45108
4.53355,45502
4.54290,43876
4.55223,40526
4.56157,38554
4.57092,40071
4.58025,39113
4.58958,40657
4.59893,39491
4.60827,39554
4.61760,40193
4.62695,46289
4.63628,57313
4.64562,61788
4.65497,57083
4.66430,47194
4.67363,44938
4.68298,49580
4.69232,60370
4.70167,71429
4.71100,72362
4.72033,65793
4.72968,53987
4.73902,47122
4.74835,43011
4.75770,40720
4.76703,41151
4.77637,44893
4.78572,43944
4.79505,44170
4.80438,43413
4.81373,45439
4.82307,45111
4.83240,43000
4.84175,41324
4.85108,41115
4.86042,48917
4.86977,59622
4.87910,62802
4.88845,57077
4.89778,53156
4.90712,50031
4.91647,46626
4.92580,46144
4.93513,46476
4.94448,45590
4.95382,41250
4.96315,39602
4.97250,39914
4.98183,40068
4.99117,41320
5.00052,45027
5.00985,47323
5.01918,46759
5.02853,48104
5.03787,45790
5.04720,42976
5.05655,42051
5.06588,41202
5.07523,42661
5.08457,44718
5.09390,43524
5.10325,41878
5.11258,40283
5.12192,39625
5.13127,43010
5.14060,47324
5.14993,46376
5.15928,43389
5.16862,43324
5.17795,44705
5.18730,46283
5.19663,42483
5.20597,38902
5.21532,37941
5.22465,37287
5.23398,39366
5.24333,42639
5.25267,42981
5.26202,49452
5.27135,94172
5.28068,185939
5.29003,258005
5.29937,224887
5.30870,139194
5.31805,86831
5.32738,67394
5.33672,57357
5.34607,47722
5.35540,43985
5.36473,41308
5.37408,44133
5.38342,51397
5.39275,57283
5.40210,59351
5.41143,51926
5.42078,48297
5.43012,43393
5.43945,39784
5.44880,37422
5.45813,42131
5.46747,41928
5.47682,43057
5.48615,42799
5.49548,43852
5.50483,42526
5.51417,47394
5.52350,54006
5.53285,56452
5.54218,53649
5.55152,47902
5.56087,43053
5.57020,41876
5.57953,39932
5.58888,38958
5.59822,37894
5.60757,36295
5.61690,36729
5.62623,34675
5.63558,36543
5.64492,38945
5.65425,39831
5.66360,42266
5.67293,43754
5.68227,42717
5.69162,41326
5.70095,40878
5.71028,40883
5.71963,41689
5.72897,40508
5.73830,44854
5.74765,54372
5.75698,60663
5.76632,56210
5.77567,48819
5.78500,40589
5.79435,37995
5.80368,39419
5.81302,42870
5.82237,50482
5.83170,52955
5.84103,48985
5.85038,43197
5.85972,40122
5.86905,43545
5.87840,41598
5.88773,40941
5.89707,41134
5.90642,57621
5.91575,107513
5.92508,161237
5.93443,163145
5.94377,120871
5.95310,83604
5.96245,60068
5.97178,47950
5.98113,45201
5.99047,43476
5.99980,41157
6.00915,40150
6.01848,36652
6.02782,34891
6.03717,32062
6.04650,29810
6.05583,29093
6.06518,30260
6.07452,30265
6.08385,32455
6.09320,30204
6.10253,28842
6.11187,29895
6.12122,35680
6.13055,42347
6.13988,44815
6.14923,38749
6.15857,29115
6.16792,24265
6.17725,23169
6.18658,21630
6.19593,22054
6.20527,22084
6.21460,23087
6.22395,25434
6.23328,27291
6.24262,28057
6.25197,28938
6.26130,35063
6.27063,38975
6.27998,32110
6.28932,23080
6.29865,18029
6.30800,17554
6.31733,15735
6.32667,16767
6.33602,16819
6.34535,16807
6.35470,16106
6.36403,16240
6.37337,17832
6.38272,27169
6.39205,67731
6.40138,224103
6.41073,494883
6.42007,609527
6.42940,406929
6.43875,161495
6.44808,52554
6.45742,26721
6.46677,23451
6.47610,20953
6.48543,18853
6.49478,19539
6.50412,20916
6.51347,20140
6.52280,21381
6.53213,19619
6.54148,19649
6.55082,18556
6.56015,17498
6.56950,18364
6.57883,19180
6.58817,20435
6.59752,21444
6.60685,23123
6.61618,21220
6.62553,21537
6.63487,21716
6.64420,22410
6.65355,22007
6.66288,22296
6.67222,21871
6.68157,22393
6.69090,25118
6.70025,26478
6.70958,26029
6.71892,25053
6.72827,20818
6.73760,17515
6.74693,18197
6.75628,16921
6.76562,20148
6.77495,21363
6.78430,23823
6.79363,28429
6.80297,31767
6.81232,28920
6.82165,23037
6.83098,22895
6.84033,24701
6.84967,23668
6.85900,19655
6.86835,16716
6.87768,16884
6.88703,18021
6.89637,20601
6.90570,24973
6.91505,26103
6.92438,23289
6.93372,19969
6.94307,20717
6.95240,19022
6.96173,18682
6.97108,19557
6.98042,17199
6.98975,17958
6.99910,21051
7.00843,22694
7.01777,22701
7.02712,20985
7.03645,17277
7.04578,16666
7.05513,15819
7.06447,15461
7.07382,15999
7.08315,16703
7.09248,19643
7.10183,22462
7.11117,24686
7.12050,24455
7.12985,21472
7.13918,17964
7.14852,18361
7.15787,15992
7.16720,17617
7.17653,17613
7.18588,18666
7.19522,17822
7.20455,19455
7.21390,20095
7.22323,31802
7.23258,57881
7.24192,90680
7.25125,81665
7.26060,52460
7.26993,31506
7.27927,26389
7.28862,24568
7.29795,24875
7.30728,21138
7.31663,18289
7.32597,15990
7.33530,16242
7.34465,17264
7.35398,16554
7.36332,15395
7.37267,17436
7.38200,24334
7.39133,52220
7.40068,112515
7.41002,165973
7.41937,158568
7.42870,106694
7.43803,57331
7.44738,31385
7.45672,25846
7.46605,22952
7.47540,20713
7.48473,18838
7.49407,18220
7.50342,17554
7.51275,17313
7.52208,16997
7.53143,17343
7.54077,18348
7.55010,18729
7.55945,21789
7.56878,24236
7.57812,25650
7.58747,24170
7.59680,21442
7.60615,22545
7.61548,23728
7.62482,23161
7.63417,24100
7.64350,21011
7.65283,19256
7.66218,17982
7.67152,18153
7.68085,19903
7.69020,19990
7.69953,19161
7.70887,19557
7.71822,19724
7.72755,20039
7.73688,20373
7.74623,22273
7.75557,20222
7.76490,20722
7.77425,22429
7.78358,22471
7.79293,22577
7.80227,19969
7.81160,19174
7.82095,18987
7.83028,18605
7.83962,20811
7.84897,26714
7.85830,44653
7.86763,68654
7.87698,72295
7.88632,52317
7.89565,35870
7.90500,42914
7.91433,70843
7.92367,88508
7.93302,74483
7.94235,47652
7.95168,35363
7.96103,32072
7.97037,42317
7.97972,54263
7.98905,55551
7.99838,43327
8.00773,33333
8.01707,29622
8.02640,30503
8.03575,36423
8.04508,44239
8.05442,40443
8.06377,34607
8.07310,28846
8.08243,34880
8.09178,40584
8.10112,39704
8.11045,32369
8.11980,24160
8.12913,21632
8.13848,19687
8.14782,19558
8.15715,19273
8.16650,19202
8.17583,19911
8.18517,21824
8.19452,22001
8.20385,24056
8.21318,24990
8.22253,24601
8.23187,22155
8.24120,24441
8.25055,23955
8.25988,21282
8.26922,20227
8.27857,19773
8.28790,20252
8.29723,19634
8.30658,19149
8.31592,18936
8.32527,19085
8.33460,19385
8.34393,18778
8.35328,19323
8.36262,20626
8.37195,23084
8.38130,23752
8.39063,25024
8.39997,27833
8.40932,29502
8.41865,30217
8.42798,29469
8.43733,28446
8.44667,25689
8.45600,24868
8.46535,25985
8.47468,25822
8.48402,23839
8.49337,22840
8.50270,23195
8.51205,22924
8.52138,29754
8.53072,32995
8.54007,33472
8.54940,33145
8.55873,33357
8.56808,29946
8.57742,28780
8.58675,26020
8.59610,26687
8.60543,27822
8.61477,26997
8.62412,25747
8.63345,23435
8.64278,22845
8.65213,22901
8.66147,23650
8.67080,23730
8.68015,23865
8.68948,25311
8.69883,26549
8.70817,25820
8.71750,25290
8.72685,22857
8.73618,25866
8.74552,32777
8.75487,42430
8.76420,41399
8.77353,33710
8.78288,30718
8.79222,32805
8.80155,44412
8.81090,60881
8.82023,58668
8.82957,43170
8.83892,30056
8.84825,25461
8.85760,23980
8.86693,25959
8.87627,27581
8.88562,27700
8.89495,28239
8.90428,28288
8.91363,27220
8.92297,26524
8.93230,28324
8.94165,27101
8.95098,26801
8.96032,27744
8.96967,28279
8.97900,28645
8.98833,26136
8.99768,27505
9.00702,28857
9.01635,25786
9.02570,26309
9.03503,24780
9.04438,26299
9.05372,27319
9.06305,29336
9.07240,32427
9.08173,36534
9.09107,41252
9.10042,37513
9.10975,30473
9.11908,34711
9.12843,51907
9.13777,72256
9.14710,65742
9.15645,44545
9.16578,32389
9.17512,26186
9.18447,25181
9.19380,24503
9.20313,26091
9.21248,30895
9.22182,48066
9.23117,73741
9.24050,78997
9.24983,60672
9.25918,41425
9.26852,28057
9.27785,25543
9.28720,25016
9.29653,23441
9.30587,23801
9.31522,29832
9.32455,45674
9.33388,61777
9.34323,62358
9.35257,61586
9.36190,106915
9.37125,170856
9.38058,177504
9.38992,122443
9.39927,74216
9.40860,53707
9.41795,44477
9.42728,42682
9.43662,38575
9.44597,30352
9.45530,25365
9.46463,21945
9.47398,22193
9.48332,24659
9.49265,28889
9.50200,31093
9.51133,29929
9.52067,26072
9.53002,27705
9.53935,30737
9.54868,39455
9.55803,52088
9.56737,67250
9.57670,60056
9.58605,44892
9.59538,43856
9.60473,50675
9.61407,47400
9.62340,37388
9.63275,30660
9.64208,28228
9.65142,25301
9.66077,23545
9.67010,23886
9.67943,24240
9.68878,24300
9.69812,23493
9.70745,21848
9.71680,33651
9.72613,110942
9.73547,395015
9.74482,803557
9.75415,917986
9.76348,622434
9.77283,284627
9.78217,129652
9.79152,80269
9.80085,62704
9.81018,52748
9.81953,53465
9.82887,59954
9.83820,75517
9.84755,88857
9.85688,83599
9.86622,64552
9.87557,63142
9.88490,75429
9.89423,95236
9.90358,140631
9.91292,206392
9.92225,218491
9.93160,149681
9.94093,73774
9.95028,42485
9.95962,35312
9.96895,43386
9.97830,73953
9.98763,127454
9.99697,142504
10.00632,101237
10.01565,60236
10.02498,41896
10.03433,36720
10.04367,34044
10.05300,36708
10.06235,42453
10.07168,52882
10.08102,53171
10.09037,46557
10.09970,39049
10.10903,58528
10.11838,162977
10.12772,352014
10.13707,453511
10.14640,598930
10.15573,1597432
10.16508,3434974
10.17442,3811189
10.18375,2124972
10.19310,570804
10.20243,108142
10.21177,46798
10.22112,42485
10.23045,51456
10.23978,68658
10.24913,71469
10.25847,53790
10.26780,38421
10.27715,34926
10.28648,36429
10.29582,35841
10.30517,33973
10.31450,31095
10.32385,31042
10.33318,30185
10.34252,28712
10.35187,27641
10.36120,28532
10.37053,27098
10.37988,25892
10.38922,25651
10.39855,23857
10.40790,24999
10.41723,27643
10.42657,33525
10.43592,35686
10.44525,36694
10.45458,42888
10.46393,48122
10.47327,42654
10.48260,31750
10.49195,25366
10.50128,24167
10.51063,23765
10.51997,25862
10.52930,25462
10.53865,24562
10.54798,24574
10.55732,23837
10.56667,23859
10.57600,24200
10.58533,25481
10.59468,26400
10.60402,23615
10.61335,24536
10.62270,24915
10.63203,28689
10.64137,30045
10.65072,27363
10.66005,24950
10.66940,25150
10.67873,29585
10.68807,29961
10.69742,28149
10.70675,26823
10.71608,30791
10.72543,32363
10.73477,29137
10.74410,32431
10.75345,42382
10.76278,55140
10.77212,55169
10.78147,48825
10.79080,60622
10.80013,103722
10.80948,131830
10.81882,106868
10.82815,63161
10.83750,34365
10.84683,28119
10.85618,24742
10.86552,32118
10.87485,42826
10.88420,48274
10.89353,43228
10.90287,32429
10.91222,29400
10.92155,30748
10.93088,33334
10.94023,31804
10.94957,28186
10.95890,28794
10.96825,27898
10.97758,26383
10.98692,25158
10.99627,23979
11.00560,23697
11.01493,23976
11.02428,23983
11.03362,24420
11.04297,25101
11.05230,26676
11.06163,24879
11.07098,24666
11.08032,22866
11.08965,26063
11.09900,30008
11.10833,41196
11.11767,41302
11.12702,36672
11.13635,31497
11.14568,27667
11.15503,27199
11.16437,24563
11.17370,24991
11.18305,24005
11.19238,22510
11.20172,22297
11.21107,23041
11.22040,24616
11.22975,26194
11.23908,25176
11.24842,24745
11.25777,27468
11.26710,30906
11.27643,29223
11.28578,25427
11.29512,23637
11.30445,23694
11.31380,26004
11.32313,26240
11.33247,30675
11.34182,35514
11.35115,39621
11.36048,43752
11.36983,41082
11.37917,33896
11.38850,28199
11.39785,28352
11.40718,30625
11.41653,29590
11.42587,28524
11.43520,26652
11.44455,27625
11.45388,29304
11.46322,34623
11.47257,46483
11.48190,46543
11.49123,34184
11.50058,27398
11.50992,24412
11.51925,25519
11.52860,24971
11.53793,25220
11.54727,26774
11.55662,37160
11.56595,59591
11.57530,81321
11.58463,81843
11.59397,61261
11.60332,48612
11.61265,42637
11.62198,40156
11.63133,41910
11.64067,39481
11.65000,36683
11.65935,35793
11.66868,34887
11.67802,33054
11.68737,30402
11.69670,30524
11.70603,30027
11.71538,33507
11.72472,31741
11.73405,31542
11.74340,28793
11.75273,28724
11.76208,29264
11.77142,29053
11.78075,31140
11.79010,32572
11.79943,31180
11.80877,29825
11.81812,27812
11.82745,28795
11.83678,28316
11.84613,28788
11.85547,27571
11.86480,26878
11.87415,29970
11.88348,29922
11.89282,29134
11.90217,28750
11.91150,28814
11.92083,25442
11.93018,25957
11.93952,29785
11.94887,32985
11.95820,30744
11.96753,27882
11.97688,25482
11.98622,24934
11.99555,27895
12.00490,37143
12.01423,49931
12.02357,54097
12.03292,45860
12.04225,35982
12.05158,30349
12.06093,26629
12.07027,25634
12.07960,26095
12.08895,26672
12.09828,30210
12.10762,31805
12.11697,29220
12.12630,27477
12.13565,26768
12.14498,26264
12.15432,28308
12.16367,39330
12.17300,66449
12.18233,91236
12.19168,77020
12.20102,45662
12.21035,32319
12.21970,29973
12.22903,32176
12.23837,34178
12.24772,33438
12.25705,38271
12.26638,78694
12.27573,166842
12.28507,211544
12.29442,148373
12.30375,72804
12.31308,40574
12.32243,33194
12.33177,31031
12.34110,30380
12.35045,31758
12.35978,30878
12.36912,28437
12.37847,26956
12.38780,29680
12.39713,32300
12.40648,34108
12.41582,32942
12.42515,32384
12.43450,30005
12.44383,28507
12.45317,28967
12.46252,30849
12.47185,31517
12.48120,35063
12.49053,38600
12.49987,40682
12.50922,37966
12.51855,35349
12.52788,34841
12.53723,32866
12.54657,31172
12.55590,34332
12.56525,40661
12.57458,43359
12.58392,40759
12.59327,32877
12.60260,31432
12.61193,30405
12.62128,32215
12.63062,37562
12.63995,41612
12.64930,42995
12.65863,43090
12.66798,41042
12.67732,34503
12.68665,29516
12.69600,27605
12.70533,26711
12.71467,28552
12.72402,29193
12.73335,28786
12.74268,32448
12.75203,32900
12.76137,34342
12.77070,30639
12.78005,28040
12.78938,28183
12.79872,27887
12.80807,27339
12.81740,29177
12.82673,28850
12.83608,27497
12.84542,26805
12.85477,26059
12.86410,24600
12.87343,25899
12.88278,24178
12.89212,26563
12.90145,26542
12.91080,27395
12.92013,25536
12.92947,25417
12.93882,24274
12.94815,26147
12.95748,26181
12.96683,26844
12.97617,25277
12.98550,23352
12.99485,24800
13.00418,26196
13.01352,27913
13.02287,30295
13.03220,38690
13.04155,41887
13.05088,37419
13.06022,30997
13.06957,30671
13.07890,33088
13.08823,33044
13.09758,33870
13.10692,31697
13.11625,30598
13.12560,32609
13.13493,36681
13.14427,36806
13.15362,37077
13.16295,35891
13.17228,34374
13.18163,36206
13.19097,50443
13.20030,109502
13.20965,219616
13.21898,284689
13.22833,212018
13.23767,115036
13.24700,94230
13.25635,95766
13.26568,82370
13.27502,71670
13.28437,75973
13.29370,85251
13.30303,82102
13.31238,66247
13.32172,52505
13.33105,48579
13.34040,48113
13.34973,44423
13.35907,41024
13.36842,36910
13.37775,34081
13.38710,34342
13.39643,37435
13.40577,39097
13.41512,35527
13.42445,35088
13.43378,40422
13.44313,42308
13.45247,40542
13.46180,41881
13.47115,41367
13.48048,43108
13.48982,39024
13.49917,34981
13.50850,38653
13.51783,63867
13.52718,101085
13.53652,111758
13.54585,80340
13.55520,46549
13.56453,33597
13.57388,29402
13.58322,27062
13.59255,27526
13.60190,26636
13.61123,28073
13.62057,26599
13.62992,28033
13.63925,30643
13.64858,34659
13.65793,37710
13.66727,33958
13.67660,28552
13.68595,26340
13.69528,25737
13.70462,25537
13.71397,23948
13.72330,23702
13.73263,24350
13.74198,24506
13.75132,24389
13.76067,24577
13.77000,27028
13.77933,29079
13.78868,29919
13.79802,33674
13.80735,37323
13.81670,37105
13.82603,31048
13.83537,28075
13.84472,27877
13.85405,28968
13.86338,32979
13.87273,34784
13.88207,43913
13.89140,63023
13.90075,110535
13.91008,219768
13.91942,357378
13.92877,343253
13.93810,186589
13.94745,78570
13.95678,45872
13.96612,38817
13.97547,33933
13.98480,30970
13.99413,32033
14.00348,34311
14.01282,31042
14.02215,29731
14.03150,30311
14.04083,82354
14.05017,535329
14.05952,2422803
14.06885,6135718
14.07818,8708079
14.08753,6387074
14.09687,2019470
14.10622,328637
14.11555,65066
14.12488,40635
14.13423,36100
14.14357,38772
14.15290,42145
14.16225,49055
14.17158,52240
14.18092,63280
14.19027,95099
14.19960,125928
14.20893,97832
14.21828,56530
14.22762,33829
14.23695,27255
14.24630,26173
14.25563,25754
14.26497,26993
14.27432,28347
14.28365,28460
14.29300,26889
14.30233,26938
14.31167,27467
14.32102,32154
14.33035,41656
14.33968,45449
14.34903,41486
14.35837,33465
14.36770,27285
14.37705,26852
14.38638,26348
14.39572,26825
14.40507,26608
14.41440,25494
14.42373,24330
14.43308,24377
14.44242,25793
14.45175,32265
14.46110,37816
14.47043,40958
14.47978,37133
14.48912,31876
14.49845,28281
14.50780,27468
14.51713,23809
14.52647,24091
14.53582,24863
14.54515,25590
14.55448,27849
14.56383,28699
14.57317,28603
14.58250,26268
14.59185,25321
14.60118,24777
14.61052,25463
14.61987,24204
14.62920,33451
14.63853,50469
14.64788,79331
14.65722,90772
14.66657,72929
14.67590,49691
14.68523,34091
14.69458,29532
14.70392,27500
14.71325,26064
14.72260,27005
14.73193,28119
14.74127,27420
14.75062,29112
14.75995,28152
14.76928,29182
14.77863,29675
14.78797,29498
14.79730,27152
14.80665,27374
14.81598,26476
14.82532,25312
14.83467,27695
14.84400,23140
14.85335,25774
14.86268,30704
14.87202,40253
14.88137,43249
14.89070,37329
14.90003,32441
14.90938,28409
14.91872,27469
14.92805,26123
14.93740,26048
14.94673,26890
14.95607,25122
14.96542,26352
14.97475,28864
14.98408,29922
14.99343,29193
15.00277,29145
15.01210,30563
15.02145,31081
15.03078,26573
15.04013,28439
15.04947,29918
15.05880,32359
15.06815,30060
15.07748,29601
15.08682,27872
15.09617,26138
15.10550,27575
15.11483,27678
15.12418,30343
15.13352,36491
15.14285,34687
15.15220,30182
15.16153,25477
15.17087,26762
15.18022,29775
15.18955,37720
15.19890,48856
15.20823,62744
15.21757,71579
15.22692,70359
15.23625,57277
15.24558,42599
15.25493,34187
15.26427,29772
15.27360,29084
15.28295,28789
15.29228,28510
15.30162,25841
15.31097,29818
15.32030,27780
15.32963,29661
15.33898,31790
15.34832,29879
15.35765,32123
15.36700,34016
15.37633,33489
15.38568,32281
15.39502,27445
15.40435,27057
15.41370,26838
15.42303,29418
15.43237,29417
15.44172,30517
15.45105,28613
15.46038,28300
15.46973,26942
15.47907,28135
15.48840,30259
15.49775,31415
15.50708,35616
15.51642,43937
15.52577,49283
15.53510,45648
15.54443,37234
15.55378,29096
15.56312,24744
15.57247,25572
15.58180,25086
15.59113,24393
15.60048,27151
15.60982,28686
15.61915,29490
15.62850,31652
15.63783,32593
15.64717,30747
15.65652,32190
15.66585,35747
15.67518,36234
15.68453,36927
15.69387,41117
15.70320,48136
15.71255,49607
15.72188,40725
15.73122,34679
15.74057,34474
15.74990,38397
15.75925,41039
15.76858,41357
15.77792,36552
15.78727,33855
15.79660,35334
15.80593,52021
15.81528,103498
15.82462,182379
15.83395,249361
15.84330,240303
15.85263,167093
15.86197,92488
15.87132,54725
15.88065,46525
15.88998,51218
15.89933,54589
15.90867,52233
15.91802,43081
15.92735,37355
15.93668,33246
15.94603,31126
15.95537,31365
15.96470,32191
15.97405,38966
15.98338,52334
15.99272,65772
16.00207,62982
16.01140,49278
16.02073,35262
16.03008,31030
16.03942,29849
16.04875,30511
16.05810,31143
16.06743,32857
16.07677,30713
16.08612,30869
16.09545,31839
16.10480,32808
16.11413,36917
16.12347,38702
16.13282,36810
16.14215,34558
16.15148,32442
16.16083,30743
16.17017,34386
16.17950,33465
16.18885,33158
16.19818,38269
16.20752,49758
16.21687,67593
16.22620,83075
16.23553,78319
16.24488,59281
16.25422,45026
16.26355,39054
16.27290,46376
16.28223,86756
16.29158,178628
16.30092,264218
16.31025,230805
16.31960,124999
16.32893,54669
16.33827,35098
16.34762,29934
16.35695,27309
16.36628,27006
16.37563,26986
16.38497,27161
16.39430,27693
16.40365,28611
16.41298,28851
16.42232,30058
16.43167,28734
16.44100,29648
16.45033,33228
16.45968,37655
16.46902,38702
16.47837,37091
16.48770,39177
16.49703,39439
16.50638,37165
16.51572,35789
16.52505,36761
16.53440,34001
16.54373,31872
16.55307,30822
16.56242,29665
16.57175,29646
16.58108,30631
16.59043,29995
16.59977,29180
16.60910,27290
16.61845,28998
16.62778,32688
16.63712,38707
16.64647,37822
16.65580,36161
16.66515,32760
16.67448,32823
16.68382,36589
16.69317,42555
16.70250,43506
16.71183,40355
16.72118,33039
16.73052,35401
16.73985,56129
16.74920,94350
16.75853,106333
16.76787,75083
16.77722,41558
16.78655,31422
16.79588,30546
16.80523,31271
16.81457,33739
16.82392,36851
16.83325,38757
16.84258,39469
16.85193,37905
16.86127,34865
16.87060,31637
16.87995,31817
16.88928,31954
16.89862,33611
16.90797,38795
16.91730,43473
16.92663,43499
16.93598,39771
16.94532,41609
16.95465,45050
16.96400,51769
16.97333,50289
16.98267,42865
16.99202,34022
17.00135,32909
17.01070,30744
17.02003,41612
17.02937,65110
17.03872,81630
17.04805,69764
17.05738,47011
17.06673,33870
17.07607,33045
17.08540,33095
17.09475,32694
17.10408,32786
17.11342,30882
17.12277,29251
17.13210,31266
17.14143,32725
17.15078,30360
17.16012,28598
17.16945,28396
17.17880,30205
17.18813,29647
17.19748,27542
17.20682,26132
17.21615,26313
17.22550,27284
17.23483,26505
17.24417,27080
17.25352,30449
17.26285,31312
17.27218,36461
17.28153,38607
17.29087,43375
17.30020,40975
17.30955,38018
17.31888,43408
17.32822,43557
17.33757,39218
17.34690,34508
17.35623,33415
17.36558,40806
17.37492,80563
17.38427,160228
17.39360,197975
17.40293,136153
17.41228,67497
17.42162,39990
17.43095,31927
17.44030,35501
17.44963,36171
17.45897,36212
17.46832,34042
17.47765,35856
17.48698,86664
17.49633,425148
17.50567,1496293
17.51500,2786264
17.52435,2577631
17.53368,1219676
17.54303,287127
17.55237,62528
17.56170,40237
17.57105,39800
17.58038,41277
17.58972,45000
17.59907,41624
17.60840,35544
17.61773,32997
17.62708,32579
17.63642,31981
17.64575,32595
17.65510,35730
17.66443,39988
17.67377,43756
17.68312,49402
17.69245,50863
17.70178,45562
17.71113,42410
17.72047,37392
17.72982,33774
17.73915,32610
17.74848,36912
17.75783,41835
17.76717,42955
17.77650,43100
17.78585,42312
17.79518,40328
17.80452,35945
17.81387,36168
17.82320,32771
17.83253,30468
17.84188,30347
17.85122,36045
17.86055,44444
17.86990,50259
17.87923,44906
17.88857,39332
17.89792,35364
17.90725,32342
17.91660,31111
17.92593,31598
17.93527,32600
17.94462,32025
17.95395,31499
17.96328,31508
17.97263,29658
17.98197,29058
17.99130,28436
18.00065,29468
18.00998,30523
18.01932,32471
18.02867,30646
18.03800,32659
18.04733,34125
18.05668,37977
18.06602,38047
18.07535,34687
18.08470,30564
18.09403,28055
18.10338,30897
18.11272,32227
18.12205,31868
18.13140,32761
18.14073,32782
18.15007,35589
18.15942,35376
18.16875,34206
18.17808,34283
18.18743,31373
18.19677,32383
18.20610,31178
18.21545,32880
18.22478,34842
18.23412,35052
18.24347,34048
18.25280,29786
18.26213,29792
18.27148,32238
18.28082,37894
18.29017,39779
18.29950,42500
18.30883,44141
18.31818,40955
18.32752,39927
18.33685,39850
18.34620,44765
18.35553,48833
18.36487,49162
18.37422,48672
18.38355,50484
18.39288,70859
18.40223,100313
18.41157,114536
18.42090,85389
18.43025,56869
18.43958,43341
18.44892,44817
18.45827,43464
18.46760,40677
18.47695,38038
18.48628,41327
18.49562,51060
18.50497,59956
18.51430,66103
18.52363,58229
18.53298,49488
18.54232,41246
18.55165,43948
18.56100,48715
18.57033,45269
18.57967,42840
18.58902,38623
18.59835,38101
18.60768,41403
18.61703,44465
18.62637,44868
18.63572,42345
18.64505,40449
18.65438,39040
18.66373,35276
18.67307,37147
18.68240,38081
18.69175,38227
18.70108,41210
18.71042,44348
18.71977,47147
18.72910,45583
18.73843,46365
18.74778,44469
18.75712,42202
18.76645,36491
18.77580,33834
18.78513,32489
18.79447,31863
18.80382,30971
18.81315,31838
18.82250,32356
18.83183,32599
18.84117,31205
18.85052,30563
18.85985,32235
18.86918,30684
18.87853,30674
18.88787,31455
18.89720,33438
18.90655,36628
18.91588,43288
18.92522,43371
18.93457,39617
18.94390,41237
18.95323,45719
18.96258,48553
18.97192,50731
18.98125,47530
18.99060,39910
18.99993,36497
19.00928,35080
19.01862,34946
19.02795,35370
19.03730,40874
19.04663,52003
19.05597,66938
19.06532,88385
19.07465,119525
19.08398,161748
19.09333,152093
19.10267,103832
19.11200,61181
19.12135,40267
19.13068,32168
19.14002,30250
19.14937,30560
19.15870,28358
19.16803,29155
19.17738,29855
19.18672,32340
19.19607,35611
19.20540,37278
19.21473,40333
19.22408,41557
19.23342,39031
19.24275,37042
19.25210,35758
19.26143,37484
19.27077,42514
19.28012,45710
19.28945,46162
19.29878,46822
19.30813,56194
19.31747,69533
19.32680,65460
19.33615,52363
19.34548,41783
19.35483,34957
19.36417,32727
19.37350,32072
19.38285,31898
19.39218,31937
19.40152,33235
19.41087,34127
19.42020,35747
19.42953,33717
19.43888,31778
19.44822,32510
19.45755,33899
19.46690,37808
19.47623,41004
19.48557,42868
19.49492,45435
19.50425,41221
19.51358,39264
19.52293,37056
19.53227,37676
19.54162,37898
19.55095,34858
19.56028,34664
19.56963,34613
19.57897,38772
19.58830,37859
19.59765,38358
19.60698,38138
19.61632,36021
19.62567,39596
19.63500,42779
19.64433,43648
19.65368,41589
19.66302,36896
19.67235,36650
19.68170,42257
19.69103,49693
19.70037,55750
19.70972,55754
19.71905,54057
19.72840,57217
19.73773,60758
19.74707,52612
19.75642,46070
19.76575,44134
19.77508,45967
19.78443,46210
19.79377,43616
19.80310,40294
19.81245,37366
19.82178,36540
19.83112,36492
19.84047,36474
19.84980,34791
19.85913,36095
19.86848,46756
19.87782,61207
19.88715,62920
19.89650,53234
19.90583,40838
19.91518,36331
19.92452,37565
19.93385,38862
19.94320,43894
19.95253,64808
19.96187,103642
19.97122,166727
19.98055,246808
19.98988,263697
19.99923,170901
20.00857,106508
20.01790,83254
20.02725,75182
20.03658,70357
20.04592,66501
20.05527,62429
20.06460,60577
20.07393,59597
20.08328,58143
20.09262,55145
20.10197,51733
20.11130,47279
20.12063,45123
20.12998,44251
20.13932,47059
20.14865,53977
20.15800,56270
20.16733,57476
20.17667,50661
20.18602,45062
20.19535,41955
20.20468,43865
20.21403,42171
20.22337,42502
20.23270,42488
20.24205,40982
20.25138,42869
20.26073,39395
20.27007,40517
20.27940,40901
20.28875,42384
20.29808,45785
20.30742,43668
20.31677,39921
20.32610,37342
20.33543,39065
20.34478,37226
20.35412,39044
20.36345,40853
20.37280,42824
20.38213,39349
20.39147,39789
20.40082,37177
20.41015,38346
20.41948,38294
20.42883,38073
20.43817,38011
20.44752,38348
20.45685,41287
20.46618,47224
20.47553,54310
20.48487,54987
20.49420,43307
20.50355,38819
20.51288,37551
20.52222,36507
20.53157,40663
20.54090,43251
20.55023,44934
20.55958,68796
20.56892,151161
20.57825,264676
20.58760,271999
20.59693,160978
20.60627,73050
20.61562,49098
20.62495,45098
20.63430,45817
20.64363,50289
20.65297,51022
20.66232,48185
20.67165,41553
20.68098,41134
20.69033,41633
20.69967,39119
20.70900,40875
20.71835,40201
20.72768,41035
20.73702,40304
20.74637,41041
20.75570,39247
20.76503,39331
20.77438,39055
20.78372,40816
20.79305,47225
20.80240,48744
20.81173,47662
20.82108,42046
20.83042,40649
20.83975,37458
20.84910,39015
20.85843,37310
20.86777,38091
20.87712,36110
20.88645,36948
20.89578,38479
20.90513,40306
20.91447,40078
20.92380,37546
20.93315,37338
20.94248,37925
20.95182,36940
20.96117,37369
20.97050,35975
20.97985,36645
20.98918,36945
20.99852,37901
21.00787,39691
21.01720,39255
21.02653,38028
21.03588,35846
21.04522,36193
21.05455,37299
21.06390,38567
21.07323,37922
21.08257,36223
21.09192,37239
21.10125,39583
21.11058,40362
21.11993,41469
21.12927,40210
21.13860,39787
21.14795,39732
21.15728,39641
21.16663,43485
21.17597,51818
21.18530,60725
21.19465,59244
21.20398,47889
21.21332,39901
21.22267,40648
21.23200,38922
21.24133,40221
21.25068,37443
21.26002,40035
21.26935,44503
21.27870,52545
21.28803,59401
21.29737,56477
21.30672,49550
21.31605,42724
21.32538,38993
21.33473,39138
21.34407,38964
21.35342,38886
21.36275,39598
21.37208,39061
21.38143,39244
21.39077,39308
21.40010,41094
21.40945,44379
21.41878,44959
21.42812,44527
21.43747,43970
21.44680,42621
21.45613,40542
21.46548,40185
21.47482,42820
21.48415,45619
21.49350,44542
21.50283,43993
21.51217,43276
21.52152,39256
21.53085,39860
21.54020,40384
21.54953,44262
21.55887,50137
21.56822,58304
21.57755,66954
21.58688,61404
21.59623,51134
21.60557,47785
21.61490,45253
21.62425,42713
21.63358,44422
21.64292,42358
21.65227,41478
21.66160,41523
21.67093,44615
21.68028,51200
21.68962,51634
21.69895,50184
21.70830,47718
21.71763,50791
21.72698,48274
21.73632,48317
21.74565,44098
21.75500,41195
21.76433,39300
21.77367,39503
21.78302,41309
21.79235,41532
21.80168,46744
21.81103,52431
21.82037,54125
21.82970,52737
21.83905,48638
21.84838,45361
21.85772,40124
21.86707,40590
21.87640,43948
21.88573,50337
21.89508,53396
21.90442,53467
21.91377,50580
21.92310,45815
21.93243,43623
21.94178,43355
21.95112,45692
21.96045,49431
21.96980,52511
21.97913,57116
21.98847,64463
21.99782,66196
22.00715,62543
22.01648,50626
22.02583,49656
22.03517,50577
22.04450,55551
22.05385,58359
22.06318,56852
22.07253,50712
22.08187,52631
22.09120,50901
22.10055,47801
22.10988,47680
22.11922,44654
22.12857,43973
22.13790,44727
22.14723,48546
22.15658,57230
22.16592,66910
22.17525,69846
22.18460,62885
22.19393,51979
22.20327,49120
22.21262,52991
22.22195,58800
22.23128,62875
22.24063,61105
22.24997,55176
22.25932,51323
22.26865,58132
22.27798,66774
22.28733,75232
22.29667,77791
22.30600,68964
22.31535,58902
22.32468,48282
22.33402,49927
22.34337,53044
22.35270,60286
22.36203,62619
22.37138,65987
22.38072,63411
22.39005,61021
22.39940,56211
22.40873,49845
22.41807,51333
22.42742,54328
22.43675,58649
22.44610,59930
22.45543,55965
22.46477,53171
22.47412,51760
22.48345,47572
22.49278,48608
22.50213,45461
22.51147,47449
22.52080,45726
22.53015,46927
22.53948,46260
22.54882,47387
22.55817,49011
22.56750,54968
22.57683,59646
22.58618,59618
22.59552,55538
22.60485,55505
22.61420,56606
22.62353,58463
22.63288,55694
22.64222,53298
22.65155,48404
22.66090,47068
22.67023,47617
22.67957,51841
22.68892,58314
22.69825,62930
22.70758,57955
22.71693,53721
22.72627,58103
22.73560,63424
22.74495,68589
22.75428,71056
22.76362,70538
22.77297,68691
22.78230,61688
22.79165,59919
22.80098,65193
22.81032,71858
22.81967,67227
22.82900,61500
22.83833,58832
22.84768,55183
22.85702,54414
22.86635,54502
22.87570,54350
22.88503,55971
22.89437,54958
22.90372,54109
22.91305,56590
22.92238,59490
22.93173,63614
22.94107,58854
22.95040,57840
22.95975,55246
22.96908,51746
22.97843,48337
22.98777,46902
22.99710,46343
23.00645,46852
23.01578,45928
23.02512,44708
23.03447,46746
23.04380,47091
23.05313,47656
23.06248,44961
23.07182,46125
23.08115,45904
23.09050,47033
23.09983,44921
23.10917,45370
23.11852,43822
23.12785,45419
23.13718,45576
23.14653,46047
23.15587,45865
23.16522,45216
23.17455,45311
23.18388,45047
23.19323,44526
23.20257,44286
23.21190,43737
23.22125,45138
23.23058,46319
23.23992,51283
23.24927,56456
23.25860,65428
23.26793,61970
23.27728,55328
23.28662,49429
23.29595,48098
23.30530,46331
23.31463,47478
23.32397,54114
23.33332,62656
23.34265,65591
23.35200,57888
23.36133,53199
23.37067,49762
23.38002,48892
23.38935,48209
23.39868,47275
23.40803,46877
23.41737,48206
23.42670,48426
23.43605,48344
23.44538,50464
23.45472,50835
23.46407,48896
23.47340,49020
23.48273,48858
23.49208,46176
23.50142,45800
23.51075,46873
23.52010,47731
23.52943,50714
23.53878,50326
23.54812,49467
23.55745,47361
23.56680,45822
23.57613,50147
23.58547,51884
23.59482,53574
23.60415,49704
23.61348,47420
23.62283,44878
23.63217,45408
23.64150,44373
23.65085,46746
23.66018,46208
23.66952,47240
23.67887,47278
23.68820,50987
23.69755,51593
23.70688,52829
23.71622,54237
23.72557,52160
23.73490,54171
23.74423,50053
23.75358,46597
23.76292,46617
23.77225,45884
23.78160,45354
23.79093,45852
23.80027,45938
23.80962,46849
23.81895,44164
23.82828,42891
23.83763,42538
23.84697,44739
23.85630,45487
23.86565,44298
23.87498,45240
23.88433,46845
23.89367,47149
23.90300,43847
23.91235,45748
23.92168,45364
23.93102,47268
23.94037,45281
23.94970,45471
23.95903,48527
23.96838,46592
23.97772,47836
23.98705,46106
23.99640,45480
24.00573,47125
24.01507,49237
24.02442,46909
24.03375,49067
24.04308,44633
24.05243,47985
24.06177,47054
24.07112,48672
24.08045,50621
24.08978,52474
24.09913,50209
24.10847,48971
24.11780,49048
24.12715,46012
24.13648,46259
24.14582,47164
24.15517,47127
24.16450,48844
24.17383,46559
24.18318,45794
24.19252,46057
24.20185,45300
24.21120,46221
24.22053,46582
24.22987,46458
24.23922,47039
24.24855,47950
24.25790,48041
24.26723,45672
24.27657,46330
24.28592,48312
24.29525,48101
24.30458,47249
24.31393,53709
24.32327,53962
24.33260,54181
24.34195,52631
24.35128,50081
24.36062,46477
24.36997,48606
24.37930,48996
24.38863,53691
24.39798,51445
24.40732,51101
24.41667,52146
24.42600,48859
24.43533,50270
24.44468,49017
24.45402,48934
24.46335,49356
24.47270,49536
24.48203,51166
24.49137,48586
24.50072,50034
24.51005,50182
24.51938,48231
24.52873,51171
24.53807,50922
24.54740,54002
24.55675,54081
24.56608,51365
24.57542,50136
24.58477,49518
24.59410,48653
24.60345,53147
24.61278,53922
24.62212,52385
24.63147,51901
24.64080,50825
24.65013,51778
24.65948,55046
24.66882,60944
24.67815,56990
24.68750,55451
24.69683,52851
24.70617,51067
24.71552,50656
24.72485,51826
24.73418,48109
24.74353,49476
24.75287,50400
24.76220,50651
24.77155,51578
24.78088,48864
24.79023,48602
24.79957,50471
24.80890,47033
24.81825,48133
24.82758,50975
24.83692,48350
24.84627,49043
24.85560,49187
24.86493,51977
24.87428,51974
24.88362,52964
24.89295,53277
24.90230,52579
24.91163,50258
24.92097,51627
24.93032,52872
24.93965,52555
24.94898,54600
24.95833,55542
24.96767,54458
24.97702,52971
24.98635,50853
24.99568,51922
25.00503,51056
25.01437,50876
25.02370,49751
25.03305,50173
25.04238,49737
25.05172,49719
25.06107,50387
25.07040,51742
25.07973,51321
25.08908,52513
25.09842,52196
25.10775,53257
25.11710,53292
25.12643,51195
25.13577,52435
25.14512,54800
25.15445,53829
25.16380,52598
25.17313,51311
25.18247,51104
25.19182,53697
25.20115,52958
25.21048,52930
25.21983,52091
25.22917,52150
25.23850,54457
25.24785,56286
25.25718,59454
25.26652,65388
25.27587,66648
25.28520,63723
25.29453,64348
25.30388,62657
25.31322,75801
25.32255,112927
25.33190,180354
25.34123,229442
25.35058,195235
25.35992,142150
25.36925,106987
25.37860,94625
25.38793,88193
25.39727,83011
25.40662,79707
25.41595,75544
25.42528,75453
25.43463,75400
25.44397,75674
25.45330,73153
25.46265,74877
25.47198,77358
25.48132,82884
25.49067,82952
25.50000,79466
25.50935,77047
25.51868,77077
25.52802,74388
25.53737,75500
25.54670,74375
25.55603,73229
25.56538,75485
25.57472,73929
25.58405,71469
25.59340,72008
25.60273,68992
25.61207,71694
25.62142,67661
25.63075,69330
25.64008,71651
25.64943,73158
25.65877,73972
25.66810,71536
25.67745,70731
25.68678,67893
25.69613,68469
25.70547,68468
25.71480,70996
25.72415,70744
25.73348,69653
25.74282,73093
25.75217,69224
25.76150,71265
25.77083,70228
25.78018,67228
25.78952,67571
25.79885,73792
25.80820,76354
25.81753,74529
25.82687,73016
25.83622,70317
25.84555,67795
25.85488,68910
25.86423,67411
25.87357,65492
25.88292,65659
25.89225,65671
25.90158,65024
25.91093,66130
25.92027,64834
25.92960,64786
25.93895,68448
25.94828,69081
25.95762,71314
25.96697,65966
25.97630,63636
25.98563,64596
25.99498,65101
26.00432,65419
26.01365,63482
26.02300,66162
26.03233,69615
26.04167,71227
26.05102,68877
26.06035,69742
26.06970,68449
26.07903,69880
26.08837,67043
26.09772,65941
26.10705,67644
26.11638,66640
26.12573,69612
26.13507,73264
26.14440,80687
26.15375,77851
26.16308,71264
26.17242,69823
26.18177,70035
26.19110,68257
26.20043,66999
26.20978,68626
26.21912,69207
26.22847,65625
26.23780,67889
26.24713,68775
26.25648,67064
26.26582,65570
26.27515,65663
26.28450,67741
26.29383,69140
26.30317,69676
26.31252,67321
26.32185,69016
26.33118,69019
26.34053,69609
26.34987,70595
26.35920,70927
26.36855,71887
26.37788,72425
26.38722,73742
26.39657,77050
26.40590,74071
26.41525,75811
26.42458,74620
26.43392,76928
26.44327,78864
26.45260,82624
26.46193,84966
26.47128,80410
26.48062,81077
26.48995,78254
26.49930,77915
26.50863,79306
26.51797,77512
26.52732,79874
26.53665,85412
26.54598,85417
26.55533,78937
26.56467,76081
26.57400,75667
26.58335,74448
26.59268,75963
26.60203,76308
26.61137,75746
26.62070,73804
26.63005,75618
26.63938,75243
26.64872,75805
26.65807,77862
26.66740,77657
26.67673,79559
26.68608,76809
26.69542,77655
26.70475,78358
26.71410,78024
26.72343,79431
26.73277,78638
26.74212,83188
26.75145,84334
26.76078,83326
26.77013,88145
26.77947,90415
26.78882,89300
26.79815,90712
26.80748,91901
26.81683,90644
26.82617,91269
26.83550,94568
26.84485,94886
26.85418,99486
26.86352,100330
26.87287,96305
26.88220,90260
26.89153,89432
26.90088,88776
26.91022,89170
26.91955,86466
26.92890,84978
26.93823,85682
26.94757,84015
26.95692,85543
26.96625,86024
26.97560,86877
26.98493,84824
26.99427,85695
27.00362,84890
27.01295,87875
27.02228,84999
27.03163,88934
27.04097,88411
27.05030,89832
27.05965,87475
27.06898,87222
27.07832,87059
27.08767,87410
27.09700,85910
27.10633,84776
27.11568,85449
27.12502,90958
27.13437,93780
27.14370,93580
27.15303,91474
27.16238,89871
27.17172,85613
27.18105,83446
27.19040,85469
27.19973,83108
27.20907,83128
27.21842,82810
27.22775,84508
27.23708,85586
27.24643,91988
27.25577,96903
27.26510,99639
27.27445,91382
27.28378,84822
27.29312,82449
27.30247,81207
27.31180,80375
27.32115,80358
27.33048,81594
27.33982,80039
27.34917,80483
27.35850,84339
27.36783,88692
27.37718,95478
27.38652,94050
27.39585,91006
27.40520,88141
27.41453,91186
27.42387,97255
27.43322,99775
27.44255,97105
27.45188,93599
27.46123,89353
27.47057,89055
27.47990,89030
27.48925,88993
27.49858,88488
27.50793,88334
27.51727,89608
27.52660,88467
27.53595,91561
27.54528,87795
27.55462,87327
27.56397,83283
27.57330,85745
27.58263,85386
27.59198,84827
27.60132,81270
27.61065,82573
27.62000,80553
27.62933,83678
27.63867,84344
27.64802,85800
27.65735,93946
27.66668,118433
27.67603,161448
27.68537,196527
27.69472,186876
27.70405,154865
27.71338,131214
27.72273,113961
27.73207,107442
27.74140,106657
27.75075,102673
27.76008,101823
27.76942,100915
27.77877,99394
27.78810,98808
27.79743,95380
27.80678,95825
27.81612,96601
27.82545,94866
27.83480,93583
27.84413,95280
27.85348,92804
27.86282,90924
27.87215,93363
27.88150,93308
27.89083,92420
27.90017,95638
27.90952,91651
27.91885,98302
27.92818,104998
27.93753,112266
27.94687,107738
27.95620,103872
27.96555,104518
27.97488,105258
27.98422,103966
27.99357,96278
28.00290,97937
28.01223,98491
28.02158,98446
28.03092,96314
28.04027,100634
28.04960,101344
28.05893,98000
28.06828,97663
28.07762,99452
28.08695,98232
28.09630,97862
28.10563,99582
28.11497,100275
28.12432,102974
28.13365,102175
28.14298,101560
28.15233,103701
28.16167,101751
28.17100,102971
28.18035,104369
28.18968,102609
28.19902,103930
28.20837,101820
28.21770,102877
28.22705,104758
28.23638,102389
28.24572,101501
28.25507,100171
28.26440,97634
28.27373,96875
28.28308,95255
28.29242,95578
28.30175,93753
28.31110,98477
28.32043,94683
28.32977,94577
28.33912,94116
28.34845,96461
28.35778,94877
28.36713,93893
28.37647,97787
28.38580,97428
28.39515,99407
28.40448,96606
28.41383,100114
28.42317,103916
28.43250,100909
28.44185,103035
28.45118,103791
28.46052,104088
28.46987,104085
28.47920,105452
28.48853,105636
28.49788,104279
28.50722,105208
28.51655,106051
28.52590,106273
28.53523,106438
28.54457,106611
28.55392,106947
28.56325,109463
28.57258,105803
28.58193,108440
28.59127,105743
28.60062,108020
28.60995,106160
28.61928,105991
28.62863,103725
28.63797,106336
28.64730,104052
28.65665,119195
28.66598,152736
28.67532,204632
28.68467,226187
28.69400,192487
28.70333,148754
28.71268,119776
28.72202,111300
28.73135,107211
28.74070,106211
28.75003,106413
28.75937,102299
28.76872,105230
28.77805,104193
28.78740,105046
28.79673,103419
28.80607,106600
28.81542,106898
28.82475,105733
28.83408,108272
28.84343,110236
28.85277,109717
28.86210,112876
28.87145,121780
28.88078,132377
28.89012,141101
28.89947,146190
28.90880,146920
28.91813,144516
28.92748,140104
28.93682,138941
28.94617,140063
28.95550,142150
28.96483,143315
28.97418,141169
28.98352,137159
28.99285,132049
29.00220,131041
29.01153,128803
29.02087,127838
29.03022,127086
29.03955,127497
29.04888,122948
29.05823,121987
29.06757,119049
29.07690,121653
29.08625,120440
29.09558,117414
29.10492,120174
29.11427,117465
29.12360,122860
29.13295,120933
29.14228,118257
29.15162,120155
29.16097,118684
29.17030,120837
29.17963,121716
29.18898,122685
29.19832,126825
29.20765,126864
29.21700,123788
29.22633,123728
29.23567,121885
29.24502,119039
29.25435,118872
29.26368,116072
29.27303,116973
29.28237,114863
29.29170,113358
29.30105,112194
29.31038,110087
29.31973,110555
29.32907,111664
29.33840,109805
29.34775,110123
29.35708,109340
29.36642,111417
29.37577,109517
29.38510,108649
29.39443,107465
29.40378,111374
29.41312,108539
29.42245,109577
29.43180,111451
29.44113,113080
29.45047,119319
29.45982,127584
29.46915,132365
29.47848,131039
29.48783,127194
29.49717,120527
29.50652,120003
29.51585,114980
29.52518,113066
29.53453,112211
29.54387,113499
29.55320,112018
29.56255,110841
29.57188,111599
29.58122,109580
29.59057,110997
29.59990,110990
29.60923,112172
29.61858,108638
29.62792,110679
29.63725,109874
29.64660,110788
29.65593,109534
29.66528,108685
29.67462,109934
29.68395,110023
29.69330,107489
29.70263,108576
29.71197,109958
29.72132,112839
29.73065,113194
29.73998,116664
29.74933,117158
29.75867,114510
29.76800,107727
29.77735,110097
29.78668,105276
29.79602,108385
29.80537,108665
29.81470,106316
29.82403,107107
29.83338,108068
29.84272,105685
29.85207,106220
29.86140,108866
29.87073,106132
29.88008,110499
29.88942,110342
29.89875,114483
29.90810,113843
29.91743,115545
29.92677,119414
29.93612,126506
29.94545,119224
29.95478,123461
29.96413,126095
29.97347,140506
29.98280,156152
29.99215,166742
30.00148,163924
30.01082,153886
30.02017,145232
30.02950,137525
30.03885,133657
30.04818,131284
30.05752,127562
30.06687,122745
30.07620,126622
30.08553,121748
30.09488,122888
30.10422,119474
30.11355,120613
30.12290,119467
30.13223,119800
30.14157,118388
30.15092,115612
30.16025,119634
30.16958,118755
30.17893,116024
30.18827,112952
30.19760,112625
30.20695,114172
30.21628,112070
30.22563,111555
30.23497,112340
30.24430,111292
30.25365,111895
30.26298,112753
30.27232,116542
30.28167,124221
30.29100,126089
30.30033,123362
30.30968,123116
30.31902,122812
30.32835,123054
30.33770,123623
30.34703,125162
30.35637,129121
30.36572,130725
30.37505,135961
30.38438,139616
30.39373,145525
30.40307,149094
30.41242,151953
30.42175,148508
30.43108,148963
30.44043,151496
30.44977,147247
30.45910,145640
30.46845,146213
30.47778,144321
30.48712,141453
30.49647,137924
30.50580,133745
30.51513,129425
30.52448,132495
30.53382,129587
30.54315,125702
30.55250,125310
30.56183,126323
30.57117,127049
30.58052,128197
30.58985,129876
30.59920,125038
30.60853,132345
30.61787,133217
30.62722,133806
30.63655,135515
30.64588,136865
30.65523,136179
30.66457,134163
30.67390,131779
30.68325,131634
30.69258,128808
30.70192,127833
30.71127,124299
30.72060,125432
30.72993,125767
30.73928,120334
30.74862,123015
30.75797,124191
30.76730,125012
30.77663,120257
30.78598,120234
30.79532,122760
30.80465,122277
30.81400,124322
30.82333,121385
30.83267,123634
30.84202,122339
30.85135,123324
30.86068,126063
30.87003,124823
30.87937,124702
30.88870,122837
30.89805,127687
30.90738,127908
30.91672,127831
30.92607,128363
30.93540,130918
30.94475,129723
30.95408,131581
30.96342,130572
30.97277,130185
30.98210,127677
30.99143,126888
31.00078,125634
31.01012,125050
31.01945,124996
31.02880,123803
31.03813,123982
31.04747,122004
31.05682,121350
31.06615,120895
31.07548,120383
31.08483,122303
31.09417,122488
31.10350,124367
31.11285,121660
31.12218,122732
31.13153,122466
31.14087,117714
31.15020,122756
31.15955,123178
31.16888,120431
31.17822,123583
31.18757,126344
31.19690,124317
31.20623,123771
31.21558,126415
31.22492,125351
31.23425,123033
31.24360,127756
31.25293,125664
31.26227,124252
31.27162,124296
31.28095,126027
31.29028,124048
31.29963,127539
31.30897,127237
31.31832,125627
31.32765,125430
31.33698,122623
31.34633,122383
31.35567,123281
31.36500,119483
