D:\数据\20220111\ZS1E-Z-000280.D Tue Jan 11 22:50:08 2022
Start of data points
0.09758,21601
0.10692,20793
0.11625,20838
0.12560,21218
0.13493,21536
0.14427,21208
0.15362,22298
0.16295,21940
0.17230,22146
0.18163,20538
0.19097,21216
0.20032,19940
0.20965,20841
0.21898,20790
0.22833,20455
0.23767,20932
0.24700,20131
0.25635,20262
0.26568,19414
0.27502,20235
0.28437,20814
0.29370,20654
0.30303,19714
0.31238,19535
0.32172,20178
0.33107,20618
0.34040,20148
0.34973,19630
0.35908,20639
0.36842,20545
0.37775,19307
0.38710,19475
0.39643,19459
0.40577,20224
0.41512,19875
0.42445,20695
0.43378,20161
0.44313,18228
0.45247,15556
0.46180,12247
0.47115,9415
0.48048,5542
0.48982,3695
0.49917,3583
0.50850,4230
0.51785,4324
0.52718,3631
0.53652,4072
0.54587,4125
0.55520,4443
0.56453,3560
0.57388,3819
0.58322,3801
0.59255,3614
0.60190,3499
0.61123,4054
0.62057,3507
0.62992,3297
0.63925,3574
0.64858,3852
0.65793,3641
0.66727,3149
0.67660,3205
0.68595,3349
0.69528,3472
0.70463,3481
0.71397,3512
0.72330,3650
0.73265,3394
0.74198,3379
0.75132,3319
0.76067,3225
0.77000,3319
0.77933,3005
0.78868,3558
0.79802,3175
0.80735,3411
0.81670,3283
0.82603,3432
0.83537,3199
0.84472,3516
0.85405,3101
0.86338,2842
0.87273,2999
0.88207,3388
0.89142,3100
0.90075,3385
0.91008,3040
0.91943,3363
0.92877,3135
0.93810,3275
0.94745,3225
0.95678,2965
0.96612,3200
0.97547,3402
0.98480,2697
0.99413,3420
1.00348,2977
1.01282,3336
1.02215,2829
1.03150,3450
1.04083,3154
1.05018,3613
1.05952,3063
1.06885,3154
1.07820,3095
1.08753,2895
1.09687,3051
1.10622,2610
1.11555,2661
1.12488,3212
1.13423,3277
1.14357,3112
1.15290,3225
1.16225,3063
1.17158,3404
1.18092,3187
1.19027,3290
1.19960,3335
1.20893,2796
1.21828,3427
1.22762,3138
1.23697,3137
1.24630,2905
1.25563,2677
1.26498,3034
1.27432,3385
1.28365,2983
1.29300,3387
1.30233,3146
1.31167,3323
1.32102,3344
1.33035,3014
1.33968,3270
1.34903,3089
1.35837,3007
1.36770,2975
1.37705,2882
1.38638,2874
1.39572,3530
1.40507,3067
1.41440,3251
1.42375,2845
1.43308,3239
1.44242,2737
1.45177,3118
1.46110,2500
1.47043,2932
1.47978,2809
1.48912,2768
1.49845,3106
1.50780,3200
1.51713,3452
1.52647,2451
1.53582,3448
1.54515,3324
1.55448,2841
1.56383,2998
1.57317,3121
1.58250,2900
1.59185,2962
1.60118,2674
1.61053,3591
1.61987,7297
1.62920,12851
1.63855,17666
1.64788,22493
1.65722,32632
1.66657,44578
1.67590,49965
1.68523,47708
1.69458,40814
1.70392,32421
1.71325,24209
1.72260,16877
1.73193,14689
1.74127,16989
1.75062,18295
1.75995,20917
1.76928,22716
1.77863,23749
1.78797,23862
1.79732,23114
1.80665,25584
1.81598,22864
1.82533,24499
1.83467,24950
1.84400,25290
1.85335,24859
1.86268,25673
1.87202,29057
1.88137,37937
1.89070,49334
1.90003,59270
1.90938,75194
1.91872,91616
1.92805,118987
1.93740,157921
1.94673,206453
1.95607,243429
1.96542,252596
1.97475,223808
1.98410,176306
1.99343,132730
2.00277,108067
2.01212,95811
2.02145,94099
2.03078,112134
2.04013,152106
2.04947,142806
2.05880,116926
2.06815,89411
2.07748,149143
2.08682,722897
2.09617,1694646
2.10550,1469857
2.11483,741316
2.12418,349440
2.13352,295095
2.14287,387667
2.15220,332621
2.16153,234988
2.17088,148559
2.18022,111511
2.18955,117022
2.19890,128069
2.20823,103204
2.21757,73789
2.22692,82186
2.23625,119066
2.24558,156326
2.25493,471510
2.26427,1576739
2.27360,1788892
2.28295,1306818
2.29228,796537
2.30162,703583
2.31097,2630057
2.32030,7395263
2.32965,8253983
2.33898,4912923
2.34832,2163283
2.35767,911361
2.36700,426549
2.37633,256300
2.38568,228711
2.39502,214991
2.40435,173504
2.41370,135781
2.42303,113919
2.43237,97660
2.44172,85514
2.45105,74778
2.46038,66146
2.46973,62109
2.47907,64018
2.48840,58274
2.49775,54139
2.50708,50041
2.51643,48495
2.52577,48087
2.53510,49482
2.54445,51614
2.55378,57302
2.56312,63385
2.57247,287999
2.58180,332788
2.59113,267100
2.60048,195602
2.60982,152933
2.61915,132670
2.62850,118010
2.63783,100463
2.64717,98692
2.65652,106293
2.66585,94211
2.67518,76641
2.68453,63809
2.69387,54185
2.70322,52555
2.71255,54359
2.72188,74550
2.73123,100367
2.74057,120318
2.74990,145589
2.75925,171425
2.76858,207740
2.77792,275654
2.78727,400122
2.79660,456947
2.80593,413334
2.81528,238677
2.82462,167887
2.83395,131338
2.84330,112638
2.85263,105991
2.86198,104397
2.87132,109582
2.88065,110408
2.89000,101114
2.89933,88639
2.90867,77392
2.91802,73354
2.92735,66620
2.93668,59732
2.94603,54855
2.95537,50435
2.96470,50179
2.97405,48008
2.98338,49532
2.99272,65177
3.00207,103437
3.01140,133974
3.02073,115293
3.03008,83989
3.03942,64055
3.04877,68839
3.05810,80084
3.06743,94840
3.07678,100159
3.08612,85261
3.09545,65168
3.10480,50242
3.11413,43700
3.12347,41824
3.13282,40913
3.14215,42865
3.15148,44400
3.16083,46742
3.17017,46837
3.17950,44687
3.18885,44370
3.19818,43724
3.20752,39770
3.21687,39350
3.22620,39395
3.23555,37011
3.24488,38516
3.25422,39466
3.26357,40689
3.27290,39417
3.28223,37292
3.29158,37025
3.30092,38508
3.31025,37585
3.31960,37645
3.32893,37336
3.33827,35890
3.34762,34952
3.35695,34964
3.36628,36810
3.37563,34284
3.38497,34754
3.39430,35055
3.40365,34491
3.41298,39701
3.42233,44795
3.43167,43118
3.44100,41514
3.45035,41640
3.45968,40388
3.46902,41368
3.47837,40543
3.48770,41354
3.49703,42407
3.50638,41478
3.51572,38089
3.52505,35834
3.53440,35468
3.54373,42868
3.55307,86114
3.56242,198759
3.57175,315460
3.58108,298806
3.59043,192429
3.59977,108063
3.60912,72116
3.61845,52639
3.62778,49300
3.63713,52766
3.64647,50086
3.65580,45251
3.66515,45599
3.67448,43429
3.68382,44551
3.69317,42675
3.70250,38690
3.71183,38043
3.72118,42137
3.73052,46170
3.73985,42071
3.74920,39192
3.75853,35845
3.76788,36326
3.77722,35426
3.78655,33774
3.79590,34402
3.80523,39044
3.81457,48658
3.82392,56704
3.83325,53475
3.84258,44159
3.85193,40733
3.86127,37360
3.87060,37224
3.87995,39103
3.88928,42153
3.89862,44581
3.90797,44892
3.91730,44162
3.92663,46099
3.93598,46371
3.94532,54501
3.95467,75644
3.96400,93981
3.97333,91656
3.98268,82910
3.99202,81472
4.00135,83369
4.01070,87657
4.02003,95792
4.02937,106945
4.03872,122951
4.04805,138736
4.05738,106339
4.06673,79596
4.07607,70456
4.08540,78380
4.09475,84284
4.10408,82514
4.11342,68410
4.12277,55550
4.13210,47448
4.14145,44283
4.15078,44880
4.16012,41686
4.16947,41659
4.17880,39732
4.18813,39854
4.19748,43900
4.20682,48846
4.21615,47471
4.22550,43310
4.23483,40888
4.24417,38149
4.25352,36285
4.26285,36235
4.27218,36175
4.28153,36803
4.29087,40093
4.30020,41096
4.30955,46663
4.31888,69071
4.32823,90287
4.33757,89062
4.34690,71584
4.35625,56752
4.36558,47128
4.37492,39673
4.38427,39801
4.39360,38175
4.40293,36987
4.41228,35280
4.42162,36080
4.43095,34748
4.44030,34860
4.44963,35300
4.45897,37591
4.46832,46636
4.47765,56612
4.48700,59573
4.49633,52770
4.50567,43529
4.51502,36334
4.52435,35360
4.53368,34662
4.54303,34145
4.55237,33752
4.56170,34879
4.57105,35821
4.58038,34697
4.58972,32782
4.59907,31847
4.60840,34338
4.61773,32395
4.62708,32906
4.63642,32870
4.64575,34849
4.65510,35484
4.66443,35041
4.67378,37529
4.68312,50079
4.69245,87468
4.70180,138990
4.71113,145680
4.72047,102375
4.72982,63911
4.73915,45350
4.74848,45980
4.75783,44726
4.76717,43562
4.77650,41225
4.78585,38881
4.79518,36315
4.80452,36138
4.81387,35004
4.82320,34398
4.83253,33288
4.84188,35347
4.85122,33553
4.86057,35600
4.86990,39324
4.87923,46281
4.88858,46253
4.89792,46626
4.90725,45590
4.91660,43326
4.92593,41527
4.93527,38530
4.94462,37784
4.95395,35632
4.96328,34546
4.97263,32348
4.98197,32674
4.99130,33374
5.00065,33918
5.00998,33089
5.01932,38796
5.02867,44128
5.03800,51365
5.04735,56690
5.05668,59685
5.06602,66031
5.07537,72200
5.08470,79014
5.09403,82085
5.10338,62118
5.11272,48931
5.12205,43255
5.13140,42611
5.14073,43779
5.15007,46255
5.15942,45182
5.16875,39105
5.17808,37429
5.18743,38086
5.19677,38377
5.20610,39918
5.21545,38420
5.22478,37033
5.23413,38592
5.24347,41197
5.25280,42595
5.26215,41354
5.27148,54313
5.28082,99841
5.29017,167986
5.29950,186767
5.30883,146205
5.31818,98509
5.32752,74875
5.33685,63486
5.34620,54255
5.35553,43892
5.36487,41473
5.37422,41452
5.38355,45269
5.39290,53297
5.40223,58542
5.41157,54661
5.42092,48219
5.43025,44798
5.43958,38661
5.44893,34229
5.45827,34803
5.46760,35972
5.47695,36728
5.48628,36577
5.49562,36283
5.50497,38087
5.51430,37773
5.52363,45760
5.53298,54769
5.54232,51042
5.55165,44869
5.56100,40451
5.57033,42291
5.57968,46933
5.58902,51332
5.59835,58193
5.60770,64444
5.61703,70045
5.62637,72091
5.63572,59915
5.64505,50451
5.65438,44877
5.66373,43591
5.67307,42196
5.68240,39927
5.69175,40613
5.70108,42033
5.71042,43276
5.71977,42076
5.72910,42273
5.73843,43702
5.74778,54987
5.75712,65894
5.76647,59435
5.77580,48121
5.78513,42182
5.79448,42059
5.80382,39371
5.81315,38148
5.82250,40301
5.83183,42286
5.84117,41834
5.85052,39595
5.85985,35694
5.86918,32724
5.87853,27639
5.88787,27199
5.89720,25435
5.90655,33397
5.91588,68869
5.92522,131559
5.93457,153641
5.94390,117895
5.95325,87881
5.96258,79506
5.97192,64633
5.98127,48464
5.99060,39603
5.99993,31128
6.00928,27454
6.01862,21803
6.02795,18358
6.03730,15601
6.04663,14256
6.05597,15033
6.06532,19066
6.07465,18909
6.08398,16238
6.09333,14197
6.10267,13612
6.11202,13133
6.12135,15569
6.13068,20251
6.14003,25679
6.14937,25531
6.15870,18865
6.16805,15490
6.17738,13609
6.18672,13557
6.19607,14265
6.20540,13868
6.21473,13794
6.22408,15296
6.23342,18111
6.24275,21715
6.25210,20884
6.26143,16869
6.27077,13958
6.28012,15897
6.28945,18146
6.29880,17964
6.30813,16254
6.31747,12662
6.32682,11186
6.33615,11640
6.34548,10758
6.35483,11164
6.36417,10832
6.37350,13329
6.38285,17589
6.39218,28230
6.40152,62030
6.41087,151263
6.42020,234221
6.42953,199952
6.43888,104884
6.44822,41068
6.45755,20867
6.46690,18203
6.47623,17308
6.48558,14935
6.49492,13801
6.50425,14046
6.51360,14745
6.52293,14729
6.53227,14924
6.54162,12390
6.55095,11126
6.56028,11434
6.56963,11108
6.57897,12588
6.58830,12793
6.59765,14120
6.60698,15130
6.61632,15058
6.62567,13306
6.63500,13444
6.64433,12467
6.65368,12234
6.66302,13303
6.67237,14602
6.68170,13602
6.69103,13506
6.70038,14864
6.70972,15524
6.71905,20154
6.72840,26226
6.73773,28908
6.74707,25484
6.75642,20824
6.76575,16697
6.77508,16389
6.78443,16507
6.79377,16804
6.80310,18986
6.81245,18738
6.82178,17095
6.83112,13783
6.84047,14316
6.84980,12365
6.85915,12956
6.86848,13418
6.87782,14062
6.88717,12789
6.89650,12627
6.90583,14712
6.91518,17185
6.92452,22392
6.93385,24584
6.94320,28567
6.95253,33141
6.96187,36508
6.97122,30060
6.98055,22208
6.98988,18630
6.99923,17266
7.00857,16972
7.01790,18740
7.02725,19341
7.03658,17520
7.04593,14380
7.05527,14022
7.06460,12159
7.07395,12535
7.08328,13450
7.09262,13443
7.10197,14627
7.11130,15831
7.12063,17219
7.12998,16247
7.13932,15900
7.14865,13810
7.15800,13141
7.16733,12298
7.17667,12706
7.18602,13353
7.19535,12599
7.20470,13307
7.21403,13955
7.22337,17608
7.23272,33202
7.24205,61206
7.25138,73926
7.26073,54716
7.27007,32199
7.27940,22679
7.28875,20123
7.29808,18806
7.30742,18144
7.31677,13468
7.32610,13476
7.33543,12210
7.34478,12109
7.35412,11490
7.36345,11527
7.37280,12139
7.38213,14703
7.39148,28137
7.40082,73948
7.41015,131280
7.41950,155544
7.42883,119958
7.43817,69925
7.44752,33333
7.45685,18635
7.46618,14819
7.47553,13516
7.48487,17918
7.49420,27087
7.50355,29921
7.51288,23107
7.52222,18528
7.53157,14499
7.54090,13119
7.55023,12419
7.55958,13637
7.56892,15020
7.57827,16524
7.58760,18302
7.59693,18877
7.60628,16702
7.61562,15425
7.62495,14894
7.63430,13861
7.64363,14420
7.65297,13429
7.66232,12186
7.67165,15865
7.68098,15856
7.69033,16291
7.69967,15974
7.70900,16017
7.71835,16580
7.72768,14172
7.73702,15626
7.74637,14828
7.75570,15486
7.76505,15639
7.77438,15928
7.78372,17223
7.79307,16878
7.80240,17879
7.81173,15225
7.82108,14798
7.83042,12984
7.83975,13801
7.84910,18040
7.85843,27196
7.86777,43298
7.87712,52407
7.88645,46455
7.89578,34603
7.90513,36365
7.91447,56238
7.92382,82909
7.93315,82400
7.94248,52066
7.95183,30973
7.96117,30867
7.97050,40533
7.97985,46281
7.98918,51307
7.99852,45181
8.00787,32541
8.01720,23736
8.02653,21007
8.03588,25591
8.04522,30572
8.05455,34755
8.06390,25705
8.07323,17969
8.08257,15081
8.09192,21093
8.10125,31251
8.11060,33209
8.11993,27010
8.12927,20370
8.13862,18311
8.14795,15083
8.15728,15368
8.16663,13343
8.17597,13164
8.18530,14138
8.19465,11791
8.20398,13414
8.21332,12014
8.22267,13183
8.23200,11783
8.24133,12655
8.25068,13913
8.26002,13685
8.26935,14363
8.27870,14354
8.28803,13408
8.29738,11759
8.30672,13840
8.31605,13513
8.32540,12865
8.33473,11332
8.34407,13004
8.35342,13005
8.36275,12642
8.37208,12802
8.38143,12046
8.39077,13282
8.40010,13648
8.40945,16075
8.41878,18562
8.42812,17713
8.43747,18761
8.44680,16886
8.45613,16425
8.46548,16790
8.47482,17191
8.48417,16189
8.49350,16283
8.50283,15700
8.51218,15222
8.52152,14289
8.53085,14538
8.54020,14139
8.54953,14790
8.55887,17616
8.56822,25017
8.57755,25358
8.58688,25250
8.59623,22999
8.60557,23544
8.61490,23242
8.62425,20996
8.63358,18443
8.64292,17283
8.65227,15752
8.66160,17416
8.67095,16223
8.68028,17208
8.68962,17091
8.69897,17310
8.70830,17198
8.71763,17253
8.72698,16254
8.73632,17886
8.74565,23556
8.75500,33159
8.76433,36667
8.77367,28609
8.78302,19750
8.79235,18713
8.80168,24518
8.81103,35133
8.82037,39764
8.82972,32570
8.83905,22149
8.84838,16761
8.85773,15940
8.86707,17098
8.87640,19226
8.88575,20855
8.89508,20417
8.90442,19579
8.91377,18317
8.92310,18441
8.93243,20642
8.94178,21131
8.95112,18568
8.96045,15951
8.96980,17144
8.97913,22124
8.98847,22890
8.99782,21507
9.00715,21252
9.01650,20745
9.02583,18360
9.03517,17671
9.04452,19651
9.05385,19140
9.06318,21933
9.07253,25024
9.08187,30374
9.09120,37338
9.10055,35764
9.10988,27792
9.11922,21343
9.12857,20232
9.13790,21428
9.14723,21894
9.15658,20360
9.16592,18137
9.17525,18691
9.18460,18382
9.19393,19042
9.20328,19716
9.21262,21736
9.22195,29259
9.23130,46933
9.24063,59486
9.24997,52102
9.25932,32487
9.26865,22168
9.27798,18454
9.28733,17493
9.29667,18506
9.30600,17523
9.31535,20876
9.32468,33362
9.33402,49777
9.34337,49747
9.35270,36151
9.36203,40222
9.37138,75720
9.38072,113422
9.39007,109544
9.39940,72669
9.40873,48031
9.41808,35424
9.42742,32920
9.43675,25941
9.44610,22909
9.45543,18534
9.46477,15805
9.47412,16952
9.48345,17597
9.49278,20140
9.50213,24075
9.51147,21342
9.52080,17713
9.53015,17760
9.53948,20254
9.54883,25928
9.55817,38951
9.56750,54918
9.57685,53953
9.58618,37849
9.59552,33934
9.60487,38541
9.61420,37248
9.62353,27166
9.63288,21890
9.64222,21014
9.65155,19925
9.66090,21692
9.67023,22452
9.67957,20075
9.68892,20783
9.69825,19025
9.70758,16093
9.71693,21807
9.72627,67314
9.73562,286151
9.74495,719010
9.75428,925478
9.76363,663314
9.77297,347029
9.78230,170974
9.79165,106441
9.80098,79260
9.81032,64702
9.81967,60867
9.82900,61242
9.83833,71024
9.84768,83811
9.85702,82452
9.86635,65178
9.87570,48788
9.88503,52477
9.89437,60460
9.90372,69229
9.91305,85891
9.92240,132537
9.93173,139733
9.94107,96369
9.95042,54028
9.95975,36506
9.96908,34892
9.97843,52500
9.98777,92399
9.99710,121259
10.00645,93370
10.01578,60881
10.02512,40092
10.03447,31536
10.04380,29376
10.05313,27826
10.06248,28623
10.07182,35497
10.08115,37086
10.09050,34486
10.09983,30368
10.10918,32800
10.11852,65517
10.12785,136544
10.13720,187853
10.14653,333754
10.15587,1172898
10.16522,2800410
10.17455,3372862
10.18388,1950004
10.19323,556992
10.20257,109409
10.21190,39245
10.22125,31909
10.23058,36142
10.23992,53523
10.24927,70900
10.25860,64168
10.26793,42836
10.27728,30411
10.28662,27515
10.29597,27065
10.30530,25304
10.31463,24054
10.32398,24053
10.33332,21609
10.34265,21007
10.35200,21541
10.36133,21091
10.37067,21423
10.38002,19559
10.38935,19202
10.39868,18243
10.40803,17811
10.41737,19701
10.42670,20011
10.43605,19172
10.44538,20073
10.45473,22608
10.46407,23558
10.47340,24310
10.48275,20689
10.49208,17722
10.50142,16900
10.51077,16677
10.52010,16531
10.52943,17982
10.53878,19540
10.54812,19005
10.55745,18855
10.56680,18692
10.57613,18532
10.58547,19526
10.59482,18474
10.60415,18609
10.61348,17225
10.62283,18522
10.63217,20797
10.64152,23449
10.65085,20924
10.66018,19147
10.66953,17339
10.67887,19016
10.68820,22738
10.69755,22379
10.70688,21083
10.71622,22569
10.72557,24914
10.73490,22996
10.74423,20797
10.75358,28415
10.76292,48537
10.77225,62641
10.78160,90621
10.79093,243785
10.80027,642908
10.80962,1011612
10.81895,826959
10.82830,369477
10.83763,110116
10.84697,39336
10.85632,27942
10.86565,26558
10.87498,28550
10.88433,32776
10.89367,34344
10.90300,30829
10.91235,26283
10.92168,26075
10.93102,30159
10.94037,28685
10.94970,25316
10.95903,21956
10.96838,21121
10.97772,20221
10.98705,18344
10.99640,18219
11.00573,17805
11.01508,17024
11.02442,17739
11.03375,17767
11.04310,17661
11.05243,16447
11.06177,16741
11.07112,18733
11.08045,17789
11.08978,16134
11.09913,16817
11.10847,18502
11.11780,20475
11.12715,20992
11.13648,19412
11.14582,17996
11.15517,17439
11.16450,17945
11.17385,18791
11.18318,18266
11.19252,17357
11.20187,16748
11.21120,16074
11.22053,16413
11.22988,17559
11.23922,17606
11.24855,15482
11.25790,16569
11.26723,17883
11.27657,18220
11.28592,17188
11.29525,16123
11.30458,15984
11.31393,17491
11.32327,19195
11.33260,22277
11.34195,22658
11.35128,28089
11.36063,31263
11.36997,29964
11.37930,24501
11.38865,22189
11.39798,22099
11.40732,22571
11.41667,22667
11.42600,20848
11.43533,19226
11.44468,19592
11.45402,18812
11.46335,24066
11.47270,32560
11.48203,32202
11.49137,24872
11.50072,17671
11.51005,16675
11.51938,15033
11.52873,15619
11.53807,14317
11.54742,15522
11.55675,17940
11.56608,25233
11.57543,40670
11.58477,56119
11.59410,54003
11.60345,45606
11.61278,36288
11.62212,31144
11.63147,29277
11.64080,32321
11.65013,39319
11.65948,51031
11.66882,52449
11.67815,42601
11.68750,32025
11.69683,28185
11.70617,23762
11.71552,23858
11.72485,23640
11.73420,21754
11.74353,19584
11.75287,18303
11.76222,21000
11.77155,19542
11.78088,21502
11.79023,22129
11.79957,21920
11.80890,19775
11.81825,19090
11.82758,18961
11.83692,18552
11.84627,20272
11.85560,19227
11.86493,19221
11.87428,19385
11.88362,19990
11.89295,19857
11.90230,18909
11.91163,18817
11.92098,17982
11.93032,18713
11.93965,22237
11.94900,27106
11.95833,27555
11.96767,23311
11.97702,18638
11.98635,18747
11.99568,18936
12.00503,24690
12.01437,32531
12.02370,36866
12.03305,32148
12.04238,24948
12.05172,19716
12.06107,18869
12.07040,17722
12.07975,17521
12.08908,17381
12.09842,18018
12.10777,17849
12.11710,17387
12.12643,17123
12.13578,16832
12.14512,17437
12.15445,18986
12.16380,32200
12.17313,66741
12.18247,101885
12.19182,90816
12.20115,47971
12.21048,25344
12.21983,21910
12.22917,23794
12.23850,25943
12.24785,23000
12.25718,25281
12.26653,59120
12.27587,157856
12.28520,256390
12.29455,230171
12.30388,115449
12.31322,52842
12.32257,30446
12.33190,26250
12.34123,25383
12.35058,23561
12.35992,22314
12.36925,21032
12.37860,21228
12.38793,21172
12.39727,22643
12.40662,20765
12.41595,20809
12.42528,20475
12.43463,19338
12.44397,19166
12.45332,18857
12.46265,20229
12.47198,21253
12.48133,23108
12.49067,21683
12.50000,22341
12.50935,24097
12.51868,22377
12.52802,22667
12.53737,23014
12.54670,22517
12.55603,23428
12.56538,27684
12.57472,31535
12.58405,27895
12.59340,24731
12.60273,21467
12.61207,20882
12.62142,21052
12.63075,21535
12.64010,26057
12.64943,27114
12.65877,29337
12.66812,25512
12.67745,22164
12.68678,18774
12.69613,16970
12.70547,16398
12.71480,18238
12.72415,18471
12.73348,18896
12.74282,20438
12.75217,22335
12.76150,22038
12.77083,20523
12.78018,19112
12.78952,18353
12.79887,17770
12.80820,18777
12.81753,19093
12.82688,19353
12.83622,18589
12.84555,18623
12.85490,18909
12.86423,17850
12.87357,18665
12.88292,16797
12.89225,18669
12.90158,19800
12.91093,19503
12.92027,17921
12.92960,18034
12.93895,17879
12.94828,18324
12.95762,18590
12.96697,18380
12.97630,18241
12.98565,15460
12.99498,15227
13.00432,16147
13.01367,16376
13.02300,19498
13.03233,25981
13.04168,29576
13.05102,25472
13.06035,21010
13.06970,20104
13.07903,21279
13.08837,22590
13.09772,20669
13.10705,20201
13.11638,19658
13.12573,19263
13.13507,24044
13.14440,23765
13.15375,23906
13.16308,20907
13.17243,18978
13.18177,21493
13.19110,31201
13.20045,77394
13.20978,166220
13.21912,227168
13.22847,173321
13.23780,96081
13.24713,68781
13.25648,64897
13.26582,49274
13.27515,30157
13.28450,21825
13.29383,19097
13.30317,18975
13.31252,19963
13.32185,22142
13.33118,24055
13.34053,22645
13.34987,22525
13.35922,23177
13.36855,21553
13.37788,20786
13.38723,19583
13.39657,22697
13.40590,22703
13.41525,23605
13.42458,20355
13.43392,21460
13.44327,25425
13.45260,26166
13.46193,23270
13.47128,22290
13.48062,26526
13.48995,24721
13.49930,23055
13.50863,23222
13.51797,43402
13.52732,81441
13.53665,96431
13.54600,71169
13.55533,39903
13.56467,24105
13.57402,20075
13.58335,19110
13.59268,17771
13.60203,18597
13.61137,18805
13.62070,18660
13.63005,18973
13.63938,20306
13.64872,24561
13.65807,25545
13.66740,24543
13.67673,21322
13.68608,18334
13.69542,17733
13.70475,17240
13.71410,17615
13.72343,16140
13.73278,15111
13.74212,16229
13.75145,16610
13.76080,17867
13.77013,18892
13.77947,17347
13.78882,18116
13.79815,20918
13.80748,25325
13.81683,26686
13.82617,21012
13.83550,18123
13.84485,17373
13.85418,17646
13.86352,18495
13.87287,20070
13.88220,23663
13.89155,33439
13.90088,61964
13.91022,126158
13.91957,232611
13.92890,244754
13.93823,139569
13.94758,57863
13.95692,31411
13.96625,27652
13.97560,24345
13.98493,22552
13.99427,21606
14.00362,22832
14.01295,23325
14.02228,20522
14.03163,20690
14.04097,55295
14.05030,362742
14.05965,1836217
14.06898,5122274
14.07833,7080599
14.08767,5034723
14.09700,1579434
14.10635,264831
14.11568,57062
14.12502,35887
14.13437,31511
14.14370,31228
14.15303,30911
14.16238,34472
14.17172,36354
14.18105,42380
14.19040,72225
14.19973,114590
14.20907,107296
14.21842,63925
14.22775,34774
14.23708,23656
14.24643,22139
14.25577,20023
14.26512,20538
14.27445,20376
14.28378,21046
14.29313,20036
14.30247,20407
14.31180,21183
14.32115,24462
14.33048,31433
14.33982,34147
14.34917,30713
14.35850,26298
14.36783,21387
14.37718,18669
14.38652,19182
14.39585,18267
14.40520,17511
14.41453,17511
14.42387,17042
14.43322,16811
14.44255,17181
14.45190,19936
14.46123,25158
14.47057,31489
14.47992,31124
14.48925,24662
14.49858,19942
14.50793,17766
14.51727,17256
14.52660,16691
14.53595,16724
14.54528,16464
14.55462,17439
14.56397,18411
14.57330,19393
14.58263,18771
14.59198,17377
14.60132,17675
14.61067,17195
14.62000,16292
14.62933,18216
14.63868,20338
14.64802,25770
14.65735,34307
14.66670,37435
14.67603,32725
14.68537,26898
14.69472,21572
14.70405,21036
14.71338,19628
14.72273,19471
14.73207,21583
14.74140,20233
14.75075,18791
14.76008,18001
14.76942,19001
14.77877,18406
14.78810,19561
14.79745,17083
14.80678,18780
14.81612,19068
14.82547,18934
14.83480,19777
14.84413,18629
14.85348,18042
14.86282,22956
14.87215,28634
14.88150,33880
14.89083,30079
14.90017,23028
14.90952,20445
14.91885,19187
14.92818,18471
14.93753,18671
14.94687,18036
14.95620,19024
14.96555,20002
14.97488,21229
14.98423,19745
14.99357,20213
15.00290,21919
15.01225,24311
15.02158,23917
15.03092,21555
15.04027,19757
15.04960,21383
15.05893,20648
15.06828,21033
15.07762,19330
15.08695,18045
15.09630,16718
15.10563,16396
15.11497,17377
15.12432,19367
15.13365,24671
15.14298,24393
15.15233,20195
15.16167,18059
15.17102,16108
15.18035,15517
15.18968,18031
15.19903,22918
15.20837,34637
15.21770,46903
15.22705,48953
15.23638,38007
15.24572,26965
15.25507,23567
15.26440,19640
15.27373,19324
15.28308,18228
15.29242,18770
15.30175,18692
15.31110,19462
15.32043,19518
15.32977,21885
15.33912,23647
15.34845,21527
15.35780,20956
15.36713,23203
15.37647,24298
15.38582,25098
15.39515,19662
15.40448,18670
15.41383,20162
15.42317,20919
15.43250,22135
15.44185,20552
15.45118,20555
15.46052,18141
15.46987,17280
15.47920,18652
15.48853,21198
15.49788,23218
15.50722,27968
15.51657,36199
15.52590,43459
15.53523,38317
15.54458,28563
15.55392,21152
15.56325,18995
15.57260,18752
15.58193,17459
15.59127,18301
15.60062,17878
15.60995,19272
15.61928,19814
15.62863,20419
15.63797,21282
15.64730,22019
15.65665,23157
15.66598,25598
15.67532,25993
15.68467,22847
15.69400,24936
15.70335,29607
15.71268,35488
15.72202,31017
15.73137,23855
15.74070,20694
15.75003,24285
15.75938,26499
15.76872,27582
15.77805,26023
15.78740,24430
15.79673,24179
15.80607,44615
15.81542,122618
15.82475,299586
15.83408,482804
15.84343,488670
15.85277,358721
15.86210,184893
15.87145,93967
15.88078,61219
15.89013,53247
15.89947,54880
15.90880,51515
15.91815,46176
15.92748,37080
15.93682,31557
15.94617,28419
15.95550,27839
15.96483,29405
15.97418,34913
15.98352,40697
15.99285,47822
16.00220,46918
16.01153,37981
16.02087,30135
16.03022,25079
16.03955,23421
16.04888,25033
16.05823,23346
16.06757,26015
16.07692,24250
16.08625,22498
16.09558,22920
16.10493,25513
16.11427,31293
16.12360,34839
16.13295,34736
16.14228,30471
16.15162,26880
16.16097,23717
16.17030,23515
16.17963,23074
16.18898,23805
16.19832,24999
16.20765,27432
16.21700,30657
16.22633,32956
16.23568,33795
16.24502,33468
16.25435,33362
16.26370,32382
16.27303,38554
16.28237,66254
16.29172,139966
16.30105,221116
16.31038,211990
16.31973,130324
16.32907,61891
16.33840,34939
16.34775,25289
16.35708,21065
16.36642,19717
16.37577,19818
16.38510,18991
16.39443,19059
16.40378,20093
16.41312,21411
16.42247,21730
16.43180,22534
16.44113,22779
16.45048,24974
16.45982,30182
16.46915,30135
16.47850,27843
16.48783,28009
16.49717,28664
16.50652,25905
16.51585,25814
16.52518,25843
16.53453,26277
16.54387,23238
16.55320,20794
16.56255,19783
16.57188,20411
16.58122,22889
16.59057,24761
16.59990,22611
16.60925,21112
16.61858,21515
16.62792,25273
16.63727,29821
16.64660,29950
16.65593,29851
16.66528,26082
16.67462,22867
16.68395,24027
16.69330,29612
16.70263,31862
16.71197,27998
16.72132,24941
16.73065,23295
16.73998,35297
16.74933,65344
16.75867,82617
16.76800,61662
16.77735,33829
16.78668,24597
16.79603,20188
16.80537,19723
16.81470,20839
16.82405,24856
16.83338,29307
16.84272,29267
16.85207,26132
16.86140,21924
16.87073,21686
16.88008,17345
16.88942,19084
16.89875,20763
16.90810,26367
16.91743,31847
16.92677,32349
16.93612,29458
16.94545,27394
16.95478,33010
16.96413,36159
16.97347,36291
16.98282,29698
16.99215,24668
17.00148,21887
17.01083,23679
17.02017,28166
17.02950,45298
17.03885,66016
17.04818,60717
17.05752,38555
17.06687,27151
17.07620,24100
17.08553,23993
17.09488,23365
17.10422,23911
17.11355,22272
17.12290,23265
17.13223,27927
17.14157,30489
17.15092,30051
17.16025,24819
17.16960,21083
17.17893,20952
17.18827,22155
17.19762,22095
17.20695,19990
17.21628,19512
17.22563,19349
17.23497,19284
17.24430,19848
17.25365,19052
17.26298,21121
17.27232,23280
17.28167,26467
17.29100,29037
17.30033,27596
17.30968,25969
17.31902,26243
17.32837,27733
17.33770,27382
17.34703,22528
17.35638,22116
17.36572,24204
17.37505,44407
17.38440,91218
17.39373,131666
17.40307,107127
17.41242,60227
17.42175,35329
17.43108,29757
17.44043,26167
17.44977,25307
17.45910,25543
17.46845,25884
17.47778,25230
17.48712,47889
17.49647,225094
17.50580,959064
17.51515,2074055
17.52448,2130755
17.53382,1140552
17.54317,309482
17.55250,70165
17.56183,34156
17.57118,30608
17.58052,33750
17.58985,34058
17.59920,32566
17.60853,25878
17.61787,23601
17.62722,21858
17.63655,23239
17.64588,23940
17.65523,24386
17.66457,27473
17.67390,31877
17.68325,34661
17.69258,38635
17.70193,38376
17.71127,35051
17.72060,30819
17.72995,27343
17.73928,26266
17.74862,27188
17.75797,28190
17.76730,31287
17.77663,32259
17.78598,32929
17.79532,28149
17.80465,26350
17.81400,24692
17.82333,22126
17.83267,22073
17.84202,23582
17.85135,25014
17.86070,30183
17.87003,35184
17.87937,33313
17.88872,29701
17.89805,26901
17.90738,24065
17.91673,22325
17.92607,21941
17.93540,21677
17.94475,21922
17.95408,20979
17.96342,19976
17.97277,21821
17.98210,21741
17.99143,19884
18.00078,20779
18.01012,20677
18.01945,21292
18.02880,21497
18.03813,21665
18.04748,25527
18.05682,31915
18.06615,33267
18.07550,28874
18.08483,23225
18.09417,22902
18.10352,20582
18.11285,22249
18.12218,22873
18.13153,22809
18.14087,21446
18.15020,24534
18.15955,23256
18.16888,24426
18.17822,23071
18.18757,22931
18.19690,22504
18.20623,21490
18.21558,21802
18.22492,24560
18.23427,22868
18.24360,21001
18.25293,20715
18.26228,20789
18.27162,22497
18.28095,23426
18.29030,26838
18.29963,26518
18.30897,28178
18.31832,28955
18.32765,27568
18.33698,29982
18.34633,36076
18.35567,38081
18.36500,36162
18.37435,33507
18.38368,30389
18.39302,30412
18.40237,33734
18.41170,37202
18.42105,37498
18.43038,32909
18.43972,28993
18.44907,33024
18.45840,31615
18.46773,27622
18.47708,22934
18.48642,25377
18.49575,31162
18.50510,41648
18.51443,48258
18.52377,46936
18.53312,41380
18.54245,36526
18.55178,31013
18.56113,29697
18.57047,25742
18.57980,23962
18.58915,23751
18.59848,24672
18.60783,26723
18.61717,31437
18.62650,30167
18.63585,30617
18.64518,29367
18.65452,29233
18.66387,30074
18.67320,31286
18.68253,31302
18.69188,28880
18.70122,29126
18.71055,30484
18.71990,30173
18.72923,30490
18.73857,27394
18.74792,24897
18.75725,23273
18.76658,21404
18.77593,20594
18.78527,20063
18.79462,21036
18.80395,22439
18.81328,24663
18.82263,25950
18.83197,26054
18.84130,24642
18.85065,22520
18.85998,21258
18.86932,19679
18.87867,18681
18.88800,20415
18.89733,20213
18.90668,25280
18.91602,28427
18.92535,32321
18.93470,27799
18.94403,28572
18.95338,31076
18.96272,33683
18.97205,35100
18.98140,33346
18.99073,28085
19.00007,26255
19.00942,24376
19.01875,23569
19.02808,23036
19.03743,27142
19.04677,36126
19.05610,51346
19.06545,65040
19.07478,76953
19.08412,97199
19.09347,103579
19.10280,77860
19.11213,45213
19.12148,27702
19.13082,22527
19.14017,18397
19.14950,20293
19.15883,19503
19.16818,17912
19.17752,19722
19.18685,22629
19.19620,26332
19.20553,34399
19.21487,34417
19.22422,31427
19.23355,26849
19.24288,24240
19.25223,21580
19.26157,21784
19.27090,21055
19.28025,24285
19.28958,26159
19.29892,30516
19.30827,37929
19.31760,46195
19.32695,43175
19.33628,35231
19.34562,25394
19.35497,21730
19.36430,21115
19.37363,20570
19.38298,19947
19.39232,19370
19.40165,20883
19.41100,20438
19.42033,21257
19.42967,21833
19.43902,19353
19.44835,19983
19.45768,18851
19.46703,21010
19.47637,21875
19.48570,23821
19.49505,26357
19.50438,26077
19.51373,24799
19.52307,21822
19.53240,21425
19.54175,23173
19.55108,22017
19.56042,21724
19.56977,22518
19.57910,24956
19.58843,25595
19.59778,25137
19.60712,24450
19.61645,22736
19.62580,25609
19.63513,30011
19.64447,33575
19.65382,29082
19.66315,24201
19.67250,21761
19.68183,23042
19.69117,22498
19.70052,23336
19.70985,25317
19.71918,30130
19.72853,40439
19.73787,49508
19.74720,46063
19.75655,35337
19.76588,30293
19.77522,30945
19.78457,28860
19.79390,27618
19.80323,26738
19.81258,23344
19.82192,22547
19.83125,22358
19.84060,20415
19.84993,20019
19.85928,23597
19.86862,27149
19.87795,38178
19.88730,43590
19.89663,40294
19.90597,30427
19.91532,26648
19.92465,26774
19.93398,23115
19.94333,25187
19.95267,34990
19.96200,52299
19.97135,60380
19.98068,52294
19.99002,35579
19.99937,28356
20.00870,25947
20.01803,27123
20.02738,28780
20.03672,26967
20.04607,27554
20.05540,29526
20.06473,27886
20.07408,28772
20.08342,28914
20.09275,26973
20.10210,23446
20.11143,21979
20.12077,21443
20.13012,20679
20.13945,22331
20.14878,26256
20.15813,31111
20.16747,32011
20.17680,28518
20.18615,24794
20.19548,21402
20.20482,21663
20.21417,22280
20.22350,21192
20.23285,22440
20.24218,21022
20.25152,21930
20.26087,21270
20.27020,21098
20.27953,21897
20.28888,20913
20.29822,21289
20.30755,20283
20.31690,20101
20.32623,18475
20.33557,19927
20.34492,19472
20.35425,19709
20.36358,22197
20.37293,22119
20.38227,21853
20.39160,20096
20.40095,19635
20.41028,19726
20.41963,18892
20.42897,20333
20.43830,21245
20.44765,20337
20.45698,22333
20.46632,25605
20.47567,28544
20.48500,29210
20.49433,25657
20.50368,21337
20.51302,21213
20.52235,19874
20.53170,20676
20.54103,20848
20.55037,22320
20.55972,32031
20.56905,69702
20.57840,144809
20.58773,179607
20.59707,127649
20.60642,60100
20.61575,30962
20.62508,24315
20.63443,27154
20.64377,31146
20.65310,31066
20.66245,30366
20.67178,26120
20.68112,25772
20.69047,26049
20.69980,24697
20.70913,25489
20.71848,23969
20.72782,24977
20.73715,22783
20.74650,23723
20.75583,22259
20.76518,20805
20.77452,21109
20.78385,23349
20.79320,23799
20.80253,26741
20.81187,26705
20.82122,25024
20.83055,23045
20.83988,20891
20.84923,19840
20.85857,19529
20.86790,20495
20.87725,20119
20.88658,21561
20.89592,21504
20.90527,22345
20.91460,21341
20.92393,20955
20.93328,20279
20.94262,18741
20.95197,19096
20.96130,20364
20.97063,20260
20.97998,18615
20.98932,18049
20.99865,18702
21.00800,19387
21.01733,20571
21.02667,20152
21.03602,20845
21.04535,21251
21.05468,19607
21.06403,19702
21.07337,20988
21.08270,19680
21.09205,20103
21.10138,21117
21.11072,21154
21.12007,22676
21.12940,21406
21.13875,20692
21.14808,20828
21.15742,20530
21.16677,21526
21.17610,25885
21.18543,29601
21.19478,32653
21.20412,30790
21.21345,26368
21.22280,23653
21.23213,22039
21.24147,21720
21.25082,22099
21.26015,22683
21.26948,23680
21.27883,27253
21.28817,29918
21.29752,31434
21.30685,26931
21.31618,23933
21.32553,21439
21.33487,22127
21.34420,21741
21.35355,21601
21.36288,21511
21.37222,19685
21.38157,19610
21.39090,19043
21.40023,20735
21.40958,21381
21.41892,22958
21.42825,21184
21.43760,22284
21.44693,21342
21.45627,21273
21.46562,19844
21.47495,21794
21.48430,21745
21.49363,23902
21.50297,24728
21.51232,24394
21.52165,23521
21.53098,22731
21.54033,21580
21.54967,21745
21.55900,23137
21.56835,30247
21.57768,34012
21.58702,31607
21.59637,28136
21.60570,24601
21.61503,23037
21.62438,22937
21.63372,22646
21.64305,21141
21.65240,21235
21.66173,20468
21.67108,20089
21.68042,23009
21.68975,25527
21.69910,24394
21.70843,22527
21.71777,23698
21.72712,24271
21.73645,23182
21.74578,22976
21.75513,20786
21.76447,21530
21.77380,19714
21.78315,19982
21.79248,19331
21.80182,19493
21.81117,20900
21.82050,23993
21.82983,24558
21.83918,24194
21.84852,23017
21.85787,23022
21.86720,23232
21.87653,21716
21.88588,24775
21.89522,27561
21.90455,27082
21.91390,26818
21.92323,23537
21.93257,22183
21.94192,23009
21.95125,21690
21.96058,23081
21.96993,24692
21.97927,28625
21.98860,32928
21.99795,32654
22.00728,30895
22.01662,26084
22.02597,24615
22.03530,23625
22.04465,25208
22.05398,24163
22.06332,23609
22.07267,24231
22.08200,26562
22.09133,26674
22.10068,24952
22.11002,24090
22.11935,24528
22.12870,23715
22.13803,23377
22.14737,23694
22.15672,26529
22.16605,30179
22.17538,29874
22.18473,29431
22.19407,25670
22.20342,21547
22.21275,23391
22.22208,24318
22.23143,24972
22.24077,25167
22.25010,24616
22.25945,23426
22.26878,24680
22.27812,23719
22.28747,26223
22.29680,30094
22.30613,27941
22.31548,24238
22.32482,22740
22.33415,22267
22.34350,23117
22.35283,22762
22.36217,24857
22.37152,23959
22.38085,22946
22.39020,22860
22.39953,22127
22.40887,21915
22.41822,23335
22.42755,23507
22.43688,22158
22.44623,23430
22.45557,24313
22.46490,23255
22.47425,23408
22.48358,23495
22.49292,22513
22.50227,23187
22.51160,23027
22.52093,22574
22.53028,22805
22.53962,23518
22.54895,21890
22.55830,21384
22.56763,22656
22.57698,24119
22.58632,24309
22.59565,24094
22.60500,24242
22.61433,25138
22.62367,24015
22.63302,25270
22.64235,25266
22.65168,22257
22.66103,20754
22.67037,21324
22.67970,21651
22.68905,24888
22.69838,25383
22.70772,25450
22.71707,24526
22.72640,22229
22.73573,24840
22.74508,26044
22.75442,27082
22.76377,27772
22.77310,27921
22.78243,26121
22.79178,24167
22.80112,23773
22.81045,25364
22.81980,23565
22.82913,23417
22.83847,22577
22.84782,23979
22.85715,22991
22.86648,22055
22.87583,23759
22.88517,23195
22.89450,22936
22.90385,23212
22.91318,23621
22.92253,25719
22.93187,24150
22.94120,23296
22.95055,25129
22.95988,23785
22.96922,23947
22.97857,23174
22.98790,23614
22.99723,22810
23.00658,21139
23.01592,21360
23.02525,21910
23.03460,21018
23.04393,20430
23.05327,21944
23.06262,22808
23.07195,22681
23.08128,23794
23.09063,22701
23.09997,22713
23.10932,22205
23.11865,21388
23.12798,21886
23.13733,21644
23.14667,21823
23.15600,22838
23.16535,23009
23.17468,22002
23.18402,22959
23.19337,21565
23.20270,22043
23.21203,22771
23.22138,21233
23.23072,22557
23.24005,22222
23.24940,23720
23.25873,24341
23.26807,26477
23.27742,24533
23.28675,24368
23.29610,23481
23.30543,22565
23.31477,22139
23.32412,25683
23.33345,29219
23.34278,33774
23.35213,30315
23.36147,26194
23.37080,23984
23.38015,23290
23.38948,22978
23.39882,22948
23.40817,21995
23.41750,23513
23.42683,23192
23.43618,23967
23.44552,23493
23.45485,23683
23.46420,23254
23.47353,23049
23.48288,23905
23.49222,22458
23.50155,23700
23.51090,22888
23.52023,23282
23.52957,23284
23.53892,23297
23.54825,24079
23.55758,23073
23.56693,21719
23.57627,23868
23.58560,21301
23.59495,24255
23.60428,23902
23.61362,22298
23.62297,21410
23.63230,22722
23.64163,22127
23.65098,22670
23.66032,21718
23.66967,20244
23.67900,22690
23.68833,24152
23.69768,24312
23.70702,25112
23.71635,26505
23.72570,25205
23.73503,27334
23.74437,24572
23.75372,22315
23.76305,23166
23.77238,22774
23.78173,23405
23.79107,23918
23.80040,22774
23.80975,22883
23.81908,22291
23.82842,21184
23.83777,22849
23.84710,23576
23.85645,22109
23.86578,21653
23.87512,22090
23.88447,22882
23.89380,22479
23.90313,22026
23.91248,23049
23.92182,22322
23.93115,22750
23.94050,22399
23.94983,21859
23.95917,23004
23.96852,23491
23.97785,21225
23.98718,24629
23.99653,23358
24.00587,24375
24.01522,22725
24.02455,22706
24.03388,24179
24.04323,23533
24.05257,22751
24.06190,22843
24.07125,23098
24.08058,22085
24.08992,23188
24.09927,22891
24.10860,24111
24.11793,23417
24.12728,23525
24.13662,23155
24.14595,22878
24.15530,22139
24.16463,22844
24.17397,24091
24.18332,22557
24.19265,23330
24.20200,22400
24.21133,22866
24.22067,23240
24.23002,22800
24.23935,24504
24.24868,22896
24.25803,23039
24.26737,23864
24.27670,24742
24.28605,24353
24.29538,24065
24.30472,23816
24.31407,25306
24.32340,25310
24.33273,26223
24.34208,24089
24.35142,27597
24.36075,25334
24.37010,24767
24.37943,26141
24.38878,25974
24.39812,23628
24.40745,24974
24.41680,23136
24.42613,24549
24.43547,23642
24.44482,22733
24.45415,23563
24.46348,23905
24.47283,24119
24.48217,24442
24.49150,23898
24.50085,23199
24.51018,23282
24.51952,24208
24.52887,23802
24.53820,23232
24.54753,23250
24.55688,24723
24.56622,23206
24.57557,23337
24.58490,24951
24.59423,23956
24.60358,23744
24.61292,27111
24.62225,25416
24.63160,24768
24.64093,25988
24.65027,25041
24.65962,27269
24.66895,27513
24.67828,27477
24.68763,25625
24.69697,25309
24.70630,27007
24.71565,25138
24.72498,25532
24.73433,25524
24.74367,24965
24.75300,23515
24.76235,23582
24.77168,24412
24.78102,23230
24.79037,22418
24.79970,22396
24.80903,23102
24.81838,22610
24.82772,23469
24.83705,23338
24.84640,22354
24.85573,22353
24.86507,23770
24.87442,25661
24.88375,25620
24.89308,23457
24.90243,22997
24.91177,24145
24.92112,23829
24.93045,24231
24.93978,22827
24.94913,23934
24.95847,24758
24.96780,24181
24.97715,23898
24.98648,23117
24.99582,23816
25.00517,23159
25.01450,23332
25.02383,23054
25.03318,22568
25.04252,22571
25.05185,22931
25.06120,23243
25.07053,22388
25.07987,23044
25.08922,23639
25.09855,24033
25.10790,24784
25.11723,24075
25.12657,24228
25.13592,26953
25.14525,25070
25.15458,25691
25.16393,26768
25.17327,27171
25.18260,27502
25.19195,25998
25.20128,26870
25.21062,26653
25.21997,25574
25.22930,25530
25.23863,26009
25.24798,25625
25.25732,25897
25.26665,26812
25.27600,25947
25.28533,25843
25.29468,26751
25.30402,28314
25.31335,33604
25.32270,49167
25.33203,65344
25.34137,61310
25.35072,49891
25.36005,37791
25.36938,34106
25.37873,33402
25.38807,33823
25.39740,32994
25.40675,32074
25.41608,35129
25.42542,34497
25.43477,32848
25.44410,33470
25.45343,35833
25.46278,35639
25.47212,37071
25.48147,38783
25.49080,41286
25.50013,41446
25.50948,42376
25.51882,41482
25.52815,42139
25.53750,42462
25.54683,40301
25.55617,41790
25.56552,38877
25.57485,38099
25.58418,37868
25.59353,36603
25.60287,36441
25.61220,34291
25.62155,35190
25.63088,34616
25.64023,33928
25.64957,35700
25.65890,35677
25.66825,34182
25.67758,33566
25.68692,32166
25.69627,32030
25.70560,32983
25.71493,29991
25.72428,32152
25.73362,31018
25.74295,31472
25.75230,32603
25.76163,32283
25.77097,32021
25.78032,30953
25.78965,30943
25.79898,33076
25.80833,32639
25.81767,32068
25.82702,31308
25.83635,30068
25.84568,30127
25.85503,32047
25.86437,29751
25.87370,28152
25.88305,28037
25.89238,28748
25.90172,27625
25.91107,28401
25.92040,28286
25.92973,28440
25.93908,28510
25.94842,30012
25.95775,29452
25.96710,29153
25.97643,28403
25.98577,28847
25.99512,27959
26.00445,28846
26.01380,28085
26.02313,28595
26.03247,29849
26.04182,29598
26.05115,28764
26.06048,29165
26.06983,28838
26.07917,28254
26.08850,29153
26.09785,30356
26.10718,28020
26.11652,29912
26.12587,30526
26.13520,28641
26.14453,30562
26.15388,30011
26.16322,30377
26.17255,30677
26.18190,28434
26.19123,27810
26.20058,29953
26.20992,27551
26.21925,27164
26.22860,28880
26.23793,28255
26.24727,28005
26.25662,28336
26.26595,28543
26.27528,28475
26.28463,28666
26.29397,29120
26.30330,29820
26.31265,30225
26.32198,29303
26.33132,29924
26.34067,28127
26.35000,27102
26.35935,29006
26.36868,27325
26.37802,28008
26.38737,26881
26.39670,28672
26.40603,27100
26.41538,27588
26.42472,28026
26.43405,26891
26.44340,27471
26.45273,28144
26.46207,31526
26.47142,30864
26.48075,29806
26.49008,30249
26.49943,28455
26.50877,28109
26.51810,28592
26.52745,30882
26.53678,31072
26.54613,30563
26.55547,30288
26.56480,28948
26.57415,28168
26.58348,28423
26.59282,27691
26.60217,29574
26.61150,30359
26.62083,28268
26.63018,28095
26.63952,29231
26.64885,28984
26.65820,29609
26.66753,29274
26.67687,28370
26.68622,27982
26.69555,27830
26.70488,28212
26.71423,28855
26.72357,27174
26.73292,28487
26.74225,27270
26.75158,28114
26.76093,30132
26.77027,28710
26.77960,28917
26.78895,28462
26.79828,29438
26.80762,29673
26.81697,28129
26.82630,28678
26.83563,30344
26.84498,30296
26.85432,31138
26.86365,30429
26.87300,30497
26.88233,29834
26.89167,29476
26.90102,27584
26.91035,29150
26.91970,29441
26.92903,28205
26.93837,28026
26.94772,28156
26.95705,27690
26.96638,28368
26.97573,28584
26.98507,28977
26.99440,28523
27.00375,30977
27.01308,29048
27.02242,30073
27.03177,29928
27.04110,29060
27.05043,29837
27.05978,28313
27.06912,28210
27.07845,28014
27.08780,27657
27.09713,26856
27.10648,28106
27.11582,28105
27.12515,28145
27.13450,29842
27.14383,29413
27.15317,29074
27.16252,30399
27.17185,30789
27.18118,30783
27.19053,31259
27.19987,31724
27.20920,31146
27.21855,32376
27.22788,32619
27.23722,31887
27.24657,33600
27.25590,34800
27.26523,37212
27.27458,36358
27.28392,33589
27.29327,34728
27.30260,35407
27.31193,31776
27.32128,32124
27.33062,31666
27.33995,31713
27.34930,31969
27.35863,32106
27.36797,29592
27.37732,31542
27.38665,32001
27.39598,33036
27.40533,32071
27.41467,31131
27.42400,33826
27.43335,33676
27.44268,33893
27.45203,32776
27.46137,32827
27.47070,34204
27.48005,35918
27.48938,35963
27.49872,36672
27.50807,38183
27.51740,39269
27.52673,39343
27.53608,38924
27.54542,36954
27.55475,37010
27.56410,34820
27.57343,34784
27.58277,34172
27.59212,33896
27.60145,32881
27.61078,34390
27.62013,33064
27.62947,32666
27.63882,33634
27.64815,33113
27.65748,35574
27.66683,40332
27.67617,51502
27.68550,55374
27.69485,50575
27.70418,44537
27.71352,39573
27.72287,37316
27.73220,36585
27.74153,36589
27.75088,35463
27.76022,34428
27.76955,36509
27.77890,34094
27.78823,35584
27.79757,35398
27.80692,36237
27.81625,34225
27.82560,35237
27.83493,35804
27.84427,35529
27.85362,34308
27.86295,34200
27.87228,33440
27.88163,34124
27.89097,34226
27.90030,34182
27.90965,35423
27.91898,38367
27.92832,40459
27.93767,39667
27.94700,38738
27.95633,37593
27.96568,35085
27.97502,35095
27.98435,34097
27.99370,34343
28.00303,33224
28.01238,32912
28.02172,33144
28.03105,32745
28.04040,33421
28.04973,33129
28.05907,34283
28.06842,32740
28.07775,32473
28.08708,34013
28.09643,31737
28.10577,35036
28.11510,36734
28.12445,39303
28.13378,40287
28.14312,37756
28.15247,35956
28.16180,36298
28.17115,35167
28.18048,36325
28.18982,34490
28.19917,35363
28.20850,35293
28.21783,35827
28.22718,35147
28.23652,35228
28.24585,35743
28.25520,35204
28.26453,35540
28.27387,34483
28.28322,34794
28.29255,34374
28.30188,34899
28.31123,33951
28.32057,34602
28.32990,35218
28.33925,33730
28.34858,34594
28.35793,34573
28.36727,35631
28.37660,35998
28.38595,35165
28.39528,35625
28.40462,37404
28.41397,35221
28.42330,35230
28.43263,35131
28.44198,34512
28.45132,36077
28.46065,35166
28.47000,35753
28.47933,36353
28.48867,37009
28.49802,37692
28.50735,37090
28.51668,36810
28.52603,35118
28.53537,36719
28.54472,35322
28.55405,36748
28.56338,35528
28.57273,37275
28.58207,35898
28.59140,37252
28.60075,36829
28.61008,35474
28.61942,36238
28.62877,35642
28.63810,36364
28.64743,36677
28.65678,39146
28.66612,43171
28.67545,48423
28.68480,54079
28.69413,54822
28.70347,50634
28.71282,42528
28.72215,44372
28.73150,40667
28.74083,40395
28.75017,40299
28.75952,38897
28.76885,40199
28.77818,39910
28.78753,39573
28.79687,38429
28.80620,40657
28.81555,40104
28.82488,39345
28.83422,40251
28.84357,40109
28.85290,40358
28.86223,38327
28.87158,39646
28.88092,39975
28.89025,39593
28.89960,39205
28.90893,38626
28.91828,39177
28.92762,39127
28.93695,40826
28.94630,39650
28.95563,40479
28.96497,39217
28.97432,41366
28.98365,40536
28.99298,40548
29.00233,39986
29.01167,39020
29.02100,39081
29.03035,40836
29.03968,40760
29.04902,39611
29.05837,39456
29.06770,41578
29.07705,42153
29.08638,42040
29.09572,40521
29.10507,40305
29.11440,41259
29.12373,43108
29.13308,40311
29.14242,41163
29.15175,38932
29.16110,40613
29.17043,41353
29.17977,43249
29.18912,44226
29.19845,47630
29.20778,51011
29.21713,49384
29.22647,46175
29.23580,45084
29.24515,42831
29.25448,42807
29.26383,42867
29.27317,43187
29.28250,42219
29.29185,41070
29.30118,42668
29.31052,42201
29.31987,41295
29.32920,42181
29.33853,41778
29.34788,40887
29.35722,42550
29.36655,43447
29.37590,42129
29.38523,42296
29.39457,43122
29.40392,43104
29.41325,42305
29.42258,43047
29.43193,44677
29.44127,42097
29.45062,43793
29.45995,46770
29.46928,49345
29.47863,48371
29.48797,47383
29.49730,45677
29.50665,43384
29.51598,44295
29.52532,43763
29.53467,45260
29.54400,43709
29.55333,42488
29.56268,42879
29.57202,44866
29.58135,43460
29.59070,43652
29.60003,42615
29.60937,42668
29.61872,43261
29.62805,42498
29.63740,44023
29.64673,42687
29.65607,44564
29.66542,43673
29.67475,41954
29.68408,43171
29.69343,43746
29.70277,43322
29.71210,44342
29.72145,43068
29.73078,45554
29.74012,44989
29.74947,44373
29.75880,42417
29.76813,43420
29.77748,42421
29.78682,44216
29.79617,45933
29.80550,45197
29.81483,43478
29.82418,44285
29.83352,43965
29.84285,43667
29.85220,45311
29.86153,42191
29.87087,43219
29.88022,44204
29.88955,44100
29.89888,43565
29.90823,43387
29.91757,45268
29.92690,47252
29.93625,49686
29.94558,50221
29.95492,48849
29.96427,50998
29.97360,58887
29.98295,64727
29.99228,72047
30.00162,67285
30.01097,61012
30.02030,54677
30.02963,51910
30.03898,49881
30.04832,51017
30.05765,49129
30.06700,51253
30.07633,48124
30.08567,48469
30.09502,48833
30.10435,51811
30.11368,50908
30.12303,50814
30.13237,53686
30.14170,54778
30.15105,55642
30.16038,54397
30.16973,53375
30.17907,52978
30.18840,52385
30.19775,52080
30.20708,52080
30.21642,53545
30.22577,52166
30.23510,52519
30.24443,50625
30.25378,52296
30.26312,54844
30.27245,54166
30.28180,55696
30.29113,57519
30.30047,58676
30.30982,58822
30.31915,56593
30.32848,57442
30.33783,55016
30.34717,56375
30.35652,60196
30.36585,62664
30.37518,63615
30.38453,66152
30.39387,70572
30.40320,75362
30.41255,75955
30.42188,73719
30.43122,69037
30.44057,64060
30.44990,63088
30.45923,61721
30.46858,61807
30.47792,61272
30.48725,61394
30.49660,59373
30.50593,59444
30.51527,62285
30.52462,60226
30.53395,59303
30.54330,59250
30.55263,58081
30.56197,59962
30.57132,60317
30.58065,60804
30.58998,59748
30.59933,59476
30.60867,61607
30.61800,62847
30.62735,63816
30.63668,63466
30.64602,64253
30.65537,65134
30.66470,66969
30.67403,64499
30.68338,63594
30.69272,62868
30.70205,62479
30.71140,60358
30.72073,58801
30.73008,57841
30.73942,56175
30.74875,55619
30.75810,57424
30.76743,56781
30.77677,56437
30.78612,54414
30.79545,55205
30.80478,57092
30.81413,57125
30.82347,56432
30.83280,55476
30.84215,55884
30.85148,55445
30.86082,57374
30.87017,60089
30.87950,59647
30.88885,59571
30.89818,61880
30.90752,60898
30.91687,62709
30.92620,61851
30.93553,59527
30.94488,63976
30.95422,62116
30.96355,62783
30.97290,61697
30.98223,61246
30.99157,61211
31.00092,60551
31.01025,58569
31.01958,57650
31.02893,58494
31.03827,56492
31.04760,56723
31.05695,55760
31.06628,56502
31.07563,58036
31.08497,58374
31.09430,57712
31.10365,56954
31.11298,59431
31.12232,60547
31.13167,60973
31.14100,59210
31.15033,60890
31.15968,60530
31.16902,61355
31.17835,63633
31.18770,63938
31.19703,63965
31.20637,62434
31.21572,60635
31.22505,60177
31.23438,61177
31.24373,59165
31.25307,62477
31.26242,59085
31.27175,59941
31.28108,59718
31.29043,59852
31.29977,57601
31.30910,57366
31.31845,58297
31.32778,58042
31.33712,57368
31.34647,57523
31.35580,57373
31.36513,57951
