D:\数据\20220223\LCLN-ZS1E #000441.D Wed Feb 23 21:28:25 2022
Start of data points
0.09765,17494
0.10700,17507
0.11633,17961
0.12567,17817
0.13502,18461
0.14435,17714
0.15370,18019
0.16303,18050
0.17237,17488
0.18172,17981
0.19105,17688
0.20038,16975
0.20973,17899
0.21907,17274
0.22840,17256
0.23775,17618
0.24708,16736
0.25642,15958
0.26577,17039
0.27510,16902
0.28443,16423
0.29378,16158
0.30312,17378
0.31245,16282
0.32180,15982
0.33113,16339
0.34048,16925
0.34982,15800
0.35915,16895
0.36850,15907
0.37783,14890
0.38717,12885
0.39652,11809
0.40585,12355
0.41518,8813
0.42453,5339
0.43387,3490
0.44320,3341
0.45255,3359
0.46188,4002
0.47122,3457
0.48057,3470
0.48990,3948
0.49923,3355
0.50858,3519
0.51792,3773
0.52727,3043
0.53660,3074
0.54593,3381
0.55528,3470
0.56462,3287
0.57395,3385
0.58330,2904
0.59263,2851
0.60197,3520
0.61132,3317
0.62065,3204
0.62998,2932
0.63933,3215
0.64867,3317
0.65800,2978
0.66735,3273
0.67668,2828
0.68603,2956
0.69537,2849
0.70470,3658
0.71405,3030
0.72338,2513
0.73272,2906
0.74207,2935
0.75140,2725
0.76073,3040
0.77008,3325
0.77942,2866
0.78875,2913
0.79810,2772
0.80743,3087
0.81677,2973
0.82612,2761
0.83545,2588
0.84478,2293
0.85413,2795
0.86347,2498
0.87282,2667
0.88215,2874
0.89148,3095
0.90083,2687
0.91017,3279
0.91950,3102
0.92885,3184
0.93818,2949
0.94752,2543
0.95687,2822
0.96620,3039
0.97553,3277
0.98488,2721
0.99422,2939
1.00355,2811
1.01290,3090
1.02223,2630
1.03157,2406
1.04092,2910
1.05025,2693
1.05960,2957
1.06893,2868
1.07827,2933
1.08762,3242
1.09695,2771
1.10628,2571
1.11563,2866
1.12497,2909
1.13430,2811
1.14365,2281
1.15298,2854
1.16232,2412
1.17167,2868
1.18100,2760
1.19033,3267
1.19968,3067
1.20902,2676
1.21835,2678
1.22770,2901
1.23703,3143
1.24638,2279
1.25572,2691
1.26505,2566
1.27440,2940
1.28373,2925
1.29307,2285
1.30242,3079
1.31175,2806
1.32108,3181
1.33043,2983
1.33977,2575
1.34910,2828
1.35845,2389
1.36778,2712
1.37712,2808
1.38647,2479
1.39580,2660
1.40515,2922
1.41448,2965
1.42382,2761
1.43317,2664
1.44250,2452
1.45183,2365
1.46118,2601
1.47052,2533
1.47985,2751
1.48920,2272
1.49853,2572
1.50787,2517
1.51722,2709
1.52655,2613
1.53588,2930
1.54523,3104
1.55457,2306
1.56390,2676
1.57325,2448
1.58258,3189
1.59193,5969
1.60127,10643
1.61060,15651
1.61995,17882
1.62928,25838
1.63862,34883
1.64797,42007
1.65730,40174
1.66663,34081
1.67598,29660
1.68532,24698
1.69465,19409
1.70400,13233
1.71333,13216
1.72267,13735
1.73202,15354
1.74135,17272
1.75068,18609
1.76003,20590
1.76937,20177
1.77872,20715
1.78805,21322
1.79738,21329
1.80673,21212
1.81607,21502
1.82540,20895
1.83475,20649
1.84408,19919
1.85342,20769
1.86277,21398
1.87210,29014
1.88143,49587
1.89078,90884
1.90012,129140
1.90945,152805
1.91880,164211
1.92813,184282
1.93747,237608
1.94682,320092
1.95615,375653
1.96550,356863
1.97483,292147
1.98417,214515
1.99352,170583
2.00285,144778
2.01218,127471
2.02153,116309
2.03087,107442
2.04020,97773
2.04955,76335
2.05888,60558
2.06822,53256
2.07757,73313
2.08690,150147
2.09623,186493
2.10558,124804
2.11492,82250
2.12425,104641
2.13360,239675
2.14293,347975
2.15228,297815
2.16162,201188
2.17095,126788
2.18030,87235
2.18963,82496
2.19897,88970
2.20832,73423
2.21765,62160
2.22698,80814
2.23633,165046
2.24567,587585
2.25500,2326453
2.26435,3984202
2.27368,3695235
2.28302,2465254
2.29237,1406324
2.30170,1006498
2.31105,2882457
2.32038,8377481
2.32972,1.010072E+07
2.33907,6407255
2.34840,2896939
2.35773,1221695
2.36708,559008
2.37642,297252
2.38575,192825
2.39510,140053
2.40443,112196
2.41377,98590
2.42312,92128
2.43245,79147
2.44178,65243
2.45113,57023
2.46047,58330
2.46980,62418
2.47915,63542
2.48848,57511
2.49783,50751
2.50717,45876
2.51650,43951
2.52585,41115
2.53518,42034
2.54452,48018
2.55387,61896
2.56320,122727
2.57253,175624
2.58188,150127
2.59122,108154
2.60055,82685
2.60990,76203
2.61923,88068
2.62857,91959
2.63792,90761
2.64725,96235
2.65658,91834
2.66593,70177
2.67527,53369
2.68462,42098
2.69395,38840
2.70328,38224
2.71263,47771
2.72197,65309
2.73130,87201
2.74065,103356
2.74998,117885
2.75932,112848
2.76867,115135
2.77800,159398
2.78733,187620
2.79668,159181
2.80602,114730
2.81535,87579
2.82470,73419
2.83403,60940
2.84337,56567
2.85272,63397
2.86205,82510
2.87140,85217
2.88073,72326
2.89007,56145
2.89942,47496
2.90875,45105
2.91808,43449
2.92743,42589
2.93677,39198
2.94610,37719
2.95545,34583
2.96478,33681
2.97412,34459
2.98347,40533
2.99280,63973
3.00213,111065
3.01148,132701
3.02082,105815
3.03017,76367
3.03950,60097
3.04883,51015
3.05818,50967
3.06752,58705
3.07685,63248
3.08620,53088
3.09553,43093
3.10487,34495
3.11422,31709
3.12355,30972
3.13288,30931
3.14223,33687
3.15157,35740
3.16090,39972
3.17025,41225
3.17958,37545
3.18892,35086
3.19827,31637
3.20760,33143
3.21695,30325
3.22628,28796
3.23562,27158
3.24497,28776
3.25430,31249
3.26363,30044
3.27298,29256
3.28232,29322
3.29165,30105
3.30100,31436
3.31033,32384
3.31967,30960
3.32902,30905
3.33835,28872
3.34768,29955
3.35703,28437
3.36637,29224
3.37570,28121
3.38505,28156
3.39438,26363
3.40373,28593
3.41307,31039
3.42240,34883
3.43175,35932
3.44108,35054
3.45042,32096
3.45977,31897
3.46910,32605
3.47843,32927
3.48778,35149
3.49712,32683
3.50645,30330
3.51580,29917
3.52513,28411
3.53447,29079
3.54382,40162
3.55315,89080
3.56248,182806
3.57183,260115
3.58117,225075
3.59052,141390
3.59985,85681
3.60918,60505
3.61853,47110
3.62787,40551
3.63720,36725
3.64655,33703
3.65588,33617
3.66522,33144
3.67457,34392
3.68390,33352
3.69323,31452
3.70258,29442
3.71192,29931
3.72125,31864
3.73060,35736
3.73993,35416
3.74927,31263
3.75862,28661
3.76795,27351
3.77730,27459
3.78663,27716
3.79597,29842
3.80532,34261
3.81465,41449
3.82398,45808
3.83333,42669
3.84267,39872
3.85200,37176
3.86135,34165
3.87068,31099
3.88002,30682
3.88937,33474
3.89870,37134
3.90803,40375
3.91738,45427
3.92672,56150
3.93605,71322
3.94540,65024
3.95473,56508
3.96408,49659
3.97342,43605
3.98275,36167
3.99210,33236
4.00143,32528
4.01077,31129
4.02012,30844
4.02945,36413
4.03878,45035
4.04813,54179
4.05747,52114
4.06680,43631
4.07615,42572
4.08548,47931
4.09482,55374
4.10417,48473
4.11350,39249
4.12285,33485
4.13218,30327
4.14152,29563
4.15087,30833
4.16020,30893
4.16953,29152
4.17888,27173
4.18822,27944
4.19755,29074
4.20690,31054
4.21623,32254
4.22557,31539
4.23492,29773
4.24425,27536
4.25358,29135
4.26293,31081
4.27227,29256
4.28160,28510
4.29095,28273
4.30028,27873
4.30963,27652
4.31897,28778
4.32830,29993
4.33765,31763
4.34698,32444
4.35632,31665
4.36567,29594
4.37500,29179
4.38433,28595
4.39368,27561
4.40302,25502
4.41235,26627
4.42170,24982
4.43103,26977
4.44037,24498
4.44972,25774
4.45905,26819
4.46838,31054
4.47773,36970
4.48707,38693
4.49642,35935
4.50575,31631
4.51508,29196
4.52443,28925
4.53377,28551
4.54310,29511
4.55245,30155
4.56178,28659
4.57112,27023
4.58047,27641
4.58980,26638
4.59913,25683
4.60848,26680
4.61782,26715
4.62715,26338
4.63650,28063
4.64583,30270
4.65517,31195
4.66452,31209
4.67385,28907
4.68320,28345
4.69253,29989
4.70187,29935
4.71122,35496
4.72055,37897
4.72988,36761
4.73923,32552
4.74857,30228
4.75790,28044
4.76725,27830
4.77658,28505
4.78592,29694
4.79527,28775
4.80460,27536
4.81393,27785
4.82328,28615
4.83262,29504
4.84197,27688
4.85130,27987
4.86063,27746
4.86998,30711
4.87932,31576
4.88865,32651
4.89800,28843
4.90733,26714
4.91667,25938
4.92602,26511
4.93535,27080
4.94468,27331
4.95403,27812
4.96337,26031
4.97270,26380
4.98205,26595
4.99138,28776
5.00072,28132
5.01007,28317
5.01940,29179
5.02875,28688
5.03808,27476
5.04742,27535
5.05677,26624
5.06610,27730
5.07543,26766
5.08478,28075
5.09412,29945
5.10345,27418
5.11280,26577
5.12213,25769
5.13147,25483
5.14082,25172
5.15015,25254
5.15948,25922
5.16883,26371
5.17817,27592
5.18750,27903
5.19685,27604
5.20618,24698
5.21553,24642
5.22487,24938
5.23420,26642
5.24355,27665
5.25288,28157
5.26222,28890
5.27157,44101
5.28090,83984
5.29023,127956
5.29958,125971
5.30892,84686
5.31825,49634
5.32760,34754
5.33693,31322
5.34627,29606
5.35562,26255
5.36495,26310
5.37428,27384
5.38363,28616
5.39297,30416
5.40232,30966
5.41165,30330
5.42098,29086
5.43033,26703
5.43967,26347
5.44900,26423
5.45835,27659
5.46768,27583
5.47702,28333
5.48637,27268
5.49570,27810
5.50503,29363
5.51438,34255
5.52372,46158
5.53305,58152
5.54240,57040
5.55173,45427
5.56107,35647
5.57042,30926
5.57975,29118
5.58910,27799
5.59843,27647
5.60777,26012
5.61712,27041
5.62645,26507
5.63578,26003
5.64513,27006
5.65447,28557
5.66380,30443
5.67315,30028
5.68248,30664
5.69182,29913
5.70117,29842
5.71050,32666
5.71983,34358
5.72918,32640
5.73852,32917
5.74787,39426
5.75720,42968
5.76653,41392
5.77588,34876
5.78522,30422
5.79455,27814
5.80390,26853
5.81323,28214
5.82257,30591
5.83192,33303
5.84125,31975
5.85058,28617
5.85993,27017
5.86927,27609
5.87860,28900
5.88795,28414
5.89728,25180
5.90662,26673
5.91597,36322
5.92530,54914
5.93465,61114
5.94398,55899
5.95332,48332
5.96267,38505
5.97200,30804
5.98133,27744
5.99068,26406
6.00002,25912
6.00935,24933
6.01870,23920
6.02803,21850
6.03737,18392
6.04672,16410
6.05605,15802
6.06538,16693
6.07473,15941
6.08407,14812
6.09340,14369
6.10275,14580
6.11208,14191
6.12143,19798
6.13077,29664
6.14010,35226
6.14945,31222
6.15878,21565
6.16812,15041
6.17747,12692
6.18680,12373
6.19613,12510
6.20548,12697
6.21482,14086
6.22415,17173
6.23350,18069
6.24283,17968
6.25217,15679
6.26152,14727
6.27085,15704
6.28018,14069
6.28953,10920
6.29887,9385
6.30822,8658
6.31755,8931
6.32688,8955
6.33623,8100
6.34557,9093
6.35490,8042
6.36425,9263
6.37358,10034
6.38292,15483
6.39227,35605
6.40160,122943
6.41093,291011
6.42028,383235
6.42962,257697
6.43895,103568
6.44830,31713
6.45763,17192
6.46698,14953
6.47632,14278
6.48565,12653
6.49500,11921
6.50433,11589
6.51367,12351
6.52302,11173
6.53235,10245
6.54168,10444
6.55103,9629
6.56037,9688
6.56970,10000
6.57905,9906
6.58838,10973
6.59772,9797
6.60707,10597
6.61640,10466
6.62573,9947
6.63508,11673
6.64442,11895
6.65377,11566
6.66310,11274
6.67243,13054
6.68178,12626
6.69112,13366
6.70045,12456
6.70980,12379
6.71913,11644
6.72847,10860
6.73782,9318
6.74715,9341
6.75648,8949
6.76583,9974
6.77517,10846
6.78450,10640
6.79385,13157
6.80318,15049
6.81252,12655
6.82187,11750
6.83120,10209
6.84055,9656
6.84988,9663
6.85922,9324
6.86857,9160
6.87790,10704
6.88723,11525
6.89658,12191
6.90592,12966
6.91525,14192
6.92460,12279
6.93393,10977
6.94327,9776
6.95262,10073
6.96195,11189
6.97128,11656
6.98063,10887
6.98997,9719
6.99930,10318
7.00865,12721
7.01798,11673
7.02733,10607
7.03667,9123
7.04600,8662
7.05535,7696
7.06468,7796
7.07402,8464
7.08337,9546
7.09270,9671
7.10203,10562
7.11138,11339
7.12072,10889
7.13005,11570
7.13940,10309
7.14873,10007
7.15807,9185
7.16742,8529
7.17675,8817
7.18608,9059
7.19543,10106
7.20477,10292
7.21412,11747
7.22345,14443
7.23278,24445
7.24213,38212
7.25147,38292
7.26080,26369
7.27015,16369
7.27948,14020
7.28882,13517
7.29817,12545
7.30750,11202
7.31683,10396
7.32618,8985
7.33552,9742
7.34485,9365
7.35420,8730
7.36353,8765
7.37288,9301
7.38222,11776
7.39155,22198
7.40090,46780
7.41023,73571
7.41957,70778
7.42892,50114
7.43825,30137
7.44758,17183
7.45693,13022
7.46627,11081
7.47560,10607
7.48495,10090
7.49428,9919
7.50362,9624
7.51297,9798
7.52230,9522
7.53163,9333
7.54098,9388
7.55032,10738
7.55967,11747
7.56900,12453
7.57833,14857
7.58768,12974
7.59702,12687
7.60635,12360
7.61570,12603
7.62503,13022
7.63437,12327
7.64372,12625
7.65305,10677
7.66238,10937
7.67173,10295
7.68107,10091
7.69040,11081
7.69975,11369
7.70908,11557
7.71842,11664
7.72777,11868
7.73710,11774
7.74645,12494
7.75578,11599
7.76512,11923
7.77447,13058
7.78380,13020
7.79313,12751
7.80248,11695
7.81182,11019
7.82115,9876
7.83050,10277
7.83983,11733
7.84917,16251
7.85852,28228
7.86785,46035
7.87718,49468
7.88653,36559
7.89587,22617
7.90520,23091
7.91455,33553
7.92388,44528
7.93323,40921
7.94257,35248
7.95190,30296
7.96125,24740
7.97058,21867
7.97992,19270
7.98927,17408
7.99860,16493
8.00793,13807
8.01728,14368
8.02662,15384
8.03595,18161
8.04530,22184
8.05463,23641
8.06397,17993
8.07332,13464
8.08265,15306
8.09200,19360
8.10133,20081
8.11067,16306
8.12002,12809
8.12935,11003
8.13868,10966
8.14803,10430
8.15737,10615
8.16670,11329
8.17605,11591
8.18538,11695
8.19472,11147
8.20407,12812
8.21340,12418
8.22273,12877
8.23208,13280
8.24142,12420
8.25075,13482
8.26010,13275
8.26943,12807
8.27878,11851
8.28812,11731
8.29745,12214
8.30680,11407
8.31613,11557
8.32547,11457
8.33482,11523
8.34415,11955
8.35348,12433
8.36283,10703
8.37217,12379
8.38150,13054
8.39085,13868
8.40018,15233
8.40952,15568
8.41887,13816
8.42820,13819
8.43753,12564
8.44688,12357
8.45622,12518
8.46557,13754
8.47490,13387
8.48423,12403
8.49358,12638
8.50292,12466
8.51225,14063
8.52160,17731
8.53093,17223
8.54027,18388
8.54962,20060
8.55895,19889
8.56828,18736
8.57763,16118
8.58697,14084
8.59630,14243
8.60565,14688
8.61498,15021
8.62432,13535
8.63367,12337
8.64300,11828
8.65235,12521
8.66168,13352
8.67102,12206
8.68037,12486
8.68970,13083
8.69903,13450
8.70838,14987
8.71772,13540
8.72705,12841
8.73640,13407
8.74573,17600
8.75507,20875
8.76442,19978
8.77375,18093
8.78308,16388
8.79243,20625
8.80177,37948
8.81110,51669
8.82045,52035
8.82978,35528
8.83913,19017
8.84847,13266
8.85780,13234
8.86715,13052
8.87648,14139
8.88582,14232
8.89517,15111
8.90450,15696
8.91383,15095
8.92318,14099
8.93252,15466
8.94185,14790
8.95120,14423
8.96053,16186
8.96987,16304
8.97922,15477
8.98855,14949
8.99790,14603
9.00723,14065
9.01657,15142
9.02592,13417
9.03525,13697
9.04458,13464
9.05393,14255
9.06327,13975
9.07260,16445
9.08195,18622
9.09128,21659
9.10062,19777
9.10997,21686
9.11930,38676
9.12863,81312
9.13798,115485
9.14732,96182
9.15665,53009
9.16600,25701
9.17533,16959
9.18468,15124
9.19402,13831
9.20335,15255
9.21270,17799
9.22203,26186
9.23137,37038
9.24072,38995
9.25005,31161
9.25938,21957
9.26873,15774
9.27807,15720
9.28740,13632
9.29675,12833
9.30608,13672
9.31542,16860
9.32477,26435
9.33410,33712
9.34343,31683
9.35278,34259
9.36212,58761
9.37147,93722
9.38080,94335
9.39013,68169
9.39948,44114
9.40882,31405
9.41815,28136
9.42750,25860
9.43683,22244
9.44617,18019
9.45552,14354
9.46485,13675
9.47418,13317
9.48353,14635
9.49287,17761
9.50220,19281
9.51155,15405
9.52088,14645
9.53022,16256
9.53957,17726
9.54890,23850
9.55825,31648
9.56758,42090
9.57692,34637
9.58627,25014
9.59560,23166
9.60493,26024
9.61428,25523
9.62362,19683
9.63295,16651
9.64230,15803
9.65163,16104
9.66097,16375
9.67032,15537
9.67965,15345
9.68898,15354
9.69833,14660
9.70767,13624
9.71702,21440
9.72635,76659
9.73568,249758
9.74503,485522
9.75437,535228
9.76370,365134
9.77305,195110
9.78238,109706
9.79172,75314
9.80107,57783
9.81040,48130
9.81973,46258
9.82908,47899
9.83842,50536
9.84775,55163
9.85710,49536
9.86643,41038
9.87577,40127
9.88512,47954
9.89445,60549
9.90380,74898
9.91313,93052
9.92247,89143
9.93182,57282
9.94115,35952
9.95048,27004
9.95983,25315
9.96917,27779
9.97850,53792
9.98785,91431
9.99718,107253
10.00652,77725
10.01587,47991
10.02520,31336
10.03453,25404
10.04388,22897
10.05322,25030
10.06255,27272
10.07190,34781
10.08123,35468
10.09058,31117
10.09992,25558
10.10925,34392
10.11860,87248
10.12793,167107
10.13727,213341
10.14662,398708
10.15595,1299917
10.16528,2613124
10.17463,2652310
10.18397,1240809
10.19330,304278
10.20265,63909
10.21198,31139
10.22132,27287
10.23067,31536
10.24000,39164
10.24933,39098
10.25868,29761
10.26802,22929
10.27737,22792
10.28670,24713
10.29603,23049
10.30538,23213
10.31472,20931
10.32405,17829
10.33340,17029
10.34273,16176
10.35207,17999
10.36142,17144
10.37075,16237
10.38008,17371
10.38943,15586
10.39877,15479
10.40810,16273
10.41745,18060
10.42678,19389
10.43612,19286
10.44547,19187
10.45480,21526
10.46415,22095
10.47348,20574
10.48282,18054
10.49217,16382
10.50150,14580
10.51083,14297
10.52018,16022
10.52952,17106
10.53885,16594
10.54820,18012
10.55753,16832
10.56687,16892
10.57622,16909
10.58555,18489
10.59488,17764
10.60423,17087
10.61357,15153
10.62292,18008
10.63225,17457
10.64158,18780
10.65093,17495
10.66027,16517
10.66960,18704
10.67895,20593
10.68828,22378
10.69762,19923
10.70697,20577
10.71630,24290
10.72563,24387
10.73498,22713
10.74432,27921
10.75365,45801
10.76300,55853
10.77233,55353
10.78167,100281
10.79102,337043
10.80035,794472
10.80970,1022488
10.81903,707452
10.82837,274064
10.83772,80416
10.84705,34528
10.85638,31242
10.86573,41296
10.87507,52554
10.88440,49168
10.89375,35850
10.90308,25229
10.91242,21044
10.92177,23143
10.93110,24797
10.94043,23629
10.94978,19963
10.95912,18250
10.96845,18574
10.97780,19144
10.98713,16178
10.99648,15380
11.00582,15173
11.01515,16291
11.02450,16161
11.03383,15535
11.04317,14990
11.05252,15811
11.06185,14723
11.07118,14007
11.08053,14407
11.08987,14835
11.09920,15139
11.10855,18237
11.11788,18273
11.12722,17577
11.13657,16413
11.14590,15480
11.15523,16077
11.16458,15829
11.17392,17020
11.18327,16707
11.19260,16318
11.20193,14749
11.21128,14361
11.22062,15967
11.22995,16803
11.23930,14857
11.24863,14899
11.25797,15629
11.26732,16473
11.27665,17646
11.28598,15003
11.29533,14878
11.30467,17145
11.31400,18486
11.32335,17385
11.33268,20232
11.34203,23342
11.35137,29100
11.36070,30494
11.37005,27680
11.37938,23110
11.38872,19302
11.39807,21119
11.40740,23363
11.41673,22644
11.42608,20129
11.43542,17744
11.44475,16700
11.45410,16404
11.46343,22546
11.47277,30127
11.48212,28990
11.49145,21528
11.50078,16627
11.51013,15173
11.51947,14427
11.52882,14951
11.53815,15903
11.54748,16813
11.55683,23191
11.56617,35149
11.57550,47396
11.58485,46631
11.59418,39943
11.60352,32017
11.61287,27234
11.62220,25093
11.63153,21899
11.64088,19787
11.65022,20813
11.65955,21882
11.66890,21198
11.67823,20735
11.68757,19411
11.69692,15937
11.70625,16996
11.71560,19523
11.72493,19115
11.73427,18076
11.74362,18356
11.75295,18745
11.76228,18792
11.77163,18896
11.78097,19776
11.79030,19776
11.79965,19169
11.80898,16427
11.81832,16290
11.82767,18010
11.83700,18049
11.84633,18064
11.85568,16447
11.86502,16266
11.87435,17370
11.88370,16312
11.89303,15836
11.90238,15560
11.91172,17193
11.92105,16648
11.93040,17256
11.93973,20040
11.94907,23237
11.95842,20621
11.96775,17922
11.97708,16920
11.98643,17158
11.99577,19358
12.00510,25882
12.01445,35781
12.02378,37555
12.03312,29064
12.04247,23143
12.05180,19234
12.06113,16903
12.07048,16894
12.07982,15172
12.08917,15424
12.09850,16189
12.10783,15896
12.11718,16231
12.12652,16732
12.13585,15218
12.14520,17340
12.15453,21860
12.16387,53983
12.17322,126204
12.18255,171770
12.19188,125245
12.20123,53240
12.21057,24658
12.21990,19542
12.22925,21108
12.23858,22175
12.24792,21858
12.25727,26328
12.26660,51213
12.27595,102630
12.28528,123749
12.29462,84585
12.30397,43817
12.31330,28402
12.32263,22560
12.33198,21115
12.34132,21486
12.35065,20314
12.36000,19183
12.36933,19481
12.37867,19557
12.38802,18240
12.39735,17972
12.40668,19702
12.41603,18159
12.42537,18042
12.43472,17271
12.44405,18752
12.45338,18501
12.46273,21269
12.47207,24669
12.48140,27199
12.49075,26248
12.50008,22889
12.50942,20725
12.51877,21097
12.52810,23917
12.53743,24573
12.54678,22610
12.55612,22947
12.56545,25173
12.57480,26807
12.58413,23867
12.59347,19975
12.60282,17861
12.61215,16651
12.62150,18070
12.63083,19846
12.64017,22156
12.64952,23918
12.65885,23343
12.66818,20320
12.67753,17925
12.68687,15532
12.69620,15288
12.70555,15862
12.71488,16995
12.72422,16199
12.73357,16185
12.74290,17647
12.75223,20305
12.76158,19936
12.77092,18256
12.78025,16839
12.78960,16971
12.79893,20579
12.80828,19993
12.81762,19849
12.82695,18516
12.83630,16636
12.84563,15834
12.85497,15683
12.86432,16016
12.87365,14481
12.88298,16277
12.89233,17365
12.90167,19342
12.91100,17095
12.92035,16997
12.92968,15092
12.93902,16524
12.94837,17771
12.95770,17601
12.96703,17727
12.97638,15906
12.98572,14165
12.99507,13425
13.00440,14138
13.01373,15451
13.02308,19258
13.03242,24617
13.04175,25390
13.05110,22434
13.06043,19342
13.06977,19775
13.07912,20250
13.08845,20320
13.09778,19857
13.10713,18982
13.11647,17874
13.12580,19677
13.13515,21479
13.14448,23143
13.15383,23649
13.16317,21879
13.17250,21058
13.18185,21157
13.19118,34030
13.20052,80374
13.20987,154396
13.21920,175872
13.22853,120168
13.23788,68259
13.24722,61767
13.25655,59168
13.26590,42656
13.27523,29917
13.28457,26130
13.29392,23150
13.30325,22969
13.31258,24713
13.32193,24690
13.33127,25168
13.34062,23203
13.34995,23120
13.35928,20887
13.36863,20005
13.37797,18940
13.38730,19250
13.39665,23520
13.40598,23714
13.41532,20758
13.42467,20198
13.43400,23413
13.44333,25568
13.45268,26501
13.46202,22997
13.47135,23615
13.48070,25582
13.49003,23717
13.49937,20078
13.50872,26036
13.51805,49942
13.52740,81137
13.53673,84935
13.54607,53588
13.55542,28586
13.56475,19535
13.57408,16214
13.58343,16194
13.59277,17669
13.60210,16998
13.61145,16091
13.62078,17195
13.63012,19698
13.63947,23033
13.64880,27757
13.65813,26944
13.66748,22042
13.67682,18356
13.68615,16815
13.69550,15574
13.70483,14728
13.71418,14957
13.72352,14073
13.73285,14278
13.74220,14825
13.75153,14977
13.76087,16910
13.77022,16463
13.77955,16120
13.78888,18169
13.79823,22945
13.80757,27920
13.81690,28062
13.82625,20806
13.83558,17332
13.84492,16813
13.85427,16218
13.86360,18677
13.87293,19787
13.88228,22815
13.89162,33992
13.90097,64333
13.91030,147511
13.91963,235123
13.92898,210193
13.93832,102846
13.94765,42100
13.95700,28208
13.96633,24072
13.97567,21022
13.98502,19556
13.99435,18896
14.00368,19642
14.01303,19676
14.02237,19398
14.03170,22844
14.04105,83107
14.05038,546767
14.05973,2429007
14.06907,5280187
14.07840,6242639
14.08775,3660690
14.09708,962643
14.10642,146115
14.11577,41149
14.12510,28871
14.13443,26755
14.14378,28034
14.15312,30348
14.16245,33805
14.17180,33659
14.18113,37633
14.19047,52344
14.19982,62977
14.20915,50081
14.21848,30168
14.22783,20666
14.23717,18251
14.24652,16575
14.25585,17729
14.26518,19123
14.27453,19189
14.28387,18311
14.29320,17435
14.30255,17901
14.31188,19937
14.32122,25183
14.33057,31493
14.33990,33045
14.34923,28338
14.35858,22607
14.36792,17937
14.37725,17022
14.38660,16204
14.39593,16731
14.40527,16778
14.41462,16109
14.42395,16971
14.43330,15873
14.44263,17503
14.45197,21639
14.46132,27686
14.47065,28894
14.47998,26981
14.48933,22700
14.49867,18680
14.50800,18113
14.51735,15943
14.52668,15949
14.53602,16069
14.54537,15812
14.55470,16878
14.56403,16901
14.57338,17684
14.58272,15450
14.59205,15996
14.60140,15621
14.61073,15434
14.62008,16252
14.62942,16997
14.63875,20827
14.64810,25457
14.65743,29149
14.66677,26399
14.67612,22253
14.68545,18292
14.69478,17847
14.70413,17204
14.71347,17368
14.72280,17871
14.73215,17383
14.74148,17547
14.75082,17254
14.76017,17216
14.76950,16550
14.77885,17091
14.78818,17309
14.79752,16156
14.80687,16903
14.81620,17630
14.82553,17785
14.83488,16815
14.84422,16474
14.85355,17074
14.86290,22958
14.87223,30137
14.88157,31220
14.89092,24593
14.90025,18830
14.90958,17634
14.91893,17043
14.92827,16854
14.93760,17682
14.94695,15821
14.95628,16521
14.96563,18190
14.97497,19232
14.98430,19509
14.99365,19525
15.00298,20939
15.01232,22679
15.02167,23252
15.03100,19521
15.04033,19194
15.04968,20298
15.05902,21454
15.06835,21218
15.07770,19342
15.08703,16567
15.09637,14988
15.10572,15544
15.11505,18301
15.12438,22648
15.13373,25203
15.14307,25327
15.15242,21391
15.16175,17692
15.17108,16436
15.18043,17133
15.18977,18404
15.19910,26033
15.20845,38344
15.21778,45780
15.22712,45004
15.23647,34954
15.24580,27454
15.25513,22577
15.26448,20260
15.27382,19226
15.28315,18557
15.29250,17995
15.30183,17722
15.31117,17024
15.32052,18704
15.32985,20498
15.33920,22442
15.34853,19949
15.35787,19577
15.36722,21171
15.37655,21523
15.38588,19491
15.39523,17680
15.40457,15413
15.41390,17335
15.42325,19519
15.43258,18772
15.44192,17660
15.45127,16613
15.46060,15810
15.46993,15702
15.47928,17417
15.48862,19147
15.49795,20681
15.50730,25734
15.51663,35564
15.52598,37245
15.53532,30999
15.54465,23682
15.55400,19823
15.56333,18813
15.57267,17807
15.58202,17367
15.59135,17791
15.60068,19312
15.61003,18081
15.61937,19479
15.62870,20469
15.63805,21605
15.64738,20336
15.65672,22916
15.66607,24097
15.67540,22876
15.68475,22368
15.69408,27204
15.70342,34452
15.71277,34590
15.72210,28729
15.73143,24230
15.74078,23965
15.75012,26765
15.75945,27410
15.76880,26938
15.77813,23167
15.78747,20430
15.79682,20303
15.80615,23116
15.81548,39159
15.82483,79206
15.83417,149781
15.84350,214247
15.85285,190327
15.86218,105253
15.87153,52461
15.88087,37121
15.89020,35566
15.89955,36557
15.90888,35692
15.91822,30470
15.92757,26264
15.93690,22213
15.94623,20792
15.95558,20463
15.96492,21187
15.97425,26109
15.98360,31689
15.99293,39860
16.00227,37529
16.01162,31414
16.02095,24927
16.03028,22070
16.03963,21088
16.04897,21710
16.05832,22129
16.06765,23437
16.07698,22678
16.08633,20515
16.09567,19946
16.10500,21113
16.11435,22387
16.12368,26009
16.13302,24442
16.14237,22637
16.15170,21578
16.16103,21900
16.17038,20018
16.17972,18514
16.18905,20667
16.19840,23453
16.20773,25853
16.21707,30142
16.22642,34020
16.23575,34073
16.24510,32151
16.25443,29294
16.26377,28014
16.27312,32537
16.28245,61675
16.29178,122912
16.30113,177564
16.31047,148314
16.31980,82046
16.32915,41560
16.33848,26334
16.34782,21920
16.35717,19326
16.36650,18193
16.37583,18193
16.38518,17673
16.39452,18614
16.40387,18972
16.41320,20576
16.42253,21064
16.43188,21274
16.44122,20815
16.45055,25215
16.45990,28964
16.46923,26961
16.47857,21635
16.48792,22558
16.49725,21345
16.50658,21848
16.51593,24033
16.52527,25446
16.53460,22047
16.54395,20600
16.55328,19211
16.56262,18871
16.57197,19029
16.58130,21478
16.59065,21494
16.59998,20165
16.60932,19771
16.61867,21455
16.62800,25988
16.63733,29545
16.64668,29440
16.65602,27435
16.66535,24970
16.67470,23257
16.68403,24771
16.69337,27639
16.70272,29975
16.71205,26429
16.72138,21802
16.73073,24344
16.74007,36485
16.74940,65777
16.75875,69785
16.76808,46859
16.77743,27488
16.78677,18861
16.79610,18883
16.80545,18781
16.81478,21613
16.82412,23627
16.83347,27231
16.84280,27487
16.85213,23961
16.86148,20877
16.87082,18924
16.88015,20735
16.88950,19315
16.89883,21639
16.90817,27438
16.91752,32236
16.92685,31600
16.93618,27129
16.94553,28612
16.95487,32853
16.96422,33970
16.97355,31405
16.98288,25615
16.99223,22114
17.00157,18756
17.01090,22237
17.02025,30850
17.02958,52334
17.03892,67273
17.04827,53372
17.05760,33824
17.06693,24875
17.07628,24446
17.08562,22788
17.09495,21733
17.10430,21270
17.11363,20781
17.12297,22133
17.13232,25725
17.14165,28432
17.15100,26057
17.16033,21841
17.16967,20187
17.17902,19371
17.18835,18958
17.19768,19247
17.20703,18336
17.21637,18379
17.22570,18244
17.23505,17655
17.24438,18666
17.25372,19481
17.26307,20532
17.27240,23241
17.28173,29130
17.29108,29922
17.30042,26699
17.30975,25322
17.31910,24629
17.32843,27114
17.33778,25019
17.34712,21284
17.35645,21651
17.36580,25715
17.37513,49377
17.38447,93231
17.39382,118255
17.40315,82312
17.41248,45974
17.42183,32360
17.43117,28446
17.44050,26505
17.44985,25257
17.45918,22769
17.46852,23446
17.47787,26360
17.48720,66962
17.49655,324237
17.50588,1134228
17.51522,1992203
17.52457,1663699
17.53390,706259
17.54323,166145
17.55258,43651
17.56192,28410
17.57125,27091
17.58060,31093
17.58993,30101
17.59927,27530
17.60862,24902
17.61795,23889
17.62728,22842
17.63663,23766
17.64597,23490
17.65530,24014
17.66465,27003
17.67398,31541
17.68333,32781
17.69267,36019
17.70200,33502
17.71135,31559
17.72068,27401
17.73002,22629
17.73937,22764
17.74870,24690
17.75803,27214
17.76738,30083
17.77672,29668
17.78605,27448
17.79540,24924
17.80473,24717
17.81407,24392
17.82342,22468
17.83275,21115
17.84208,23695
17.85143,25126
17.86077,31984
17.87012,34423
17.87945,31968
17.88878,28026
17.89813,24619
17.90747,22637
17.91680,20635
17.92615,18846
17.93548,18626
17.94482,20273
17.95417,18526
17.96350,19006
17.97283,18516
17.98218,19404
17.99152,17885
18.00085,18029
18.01020,19028
18.01953,18270
18.02887,18346
18.03822,19291
18.04755,22278
18.05690,26877
18.06623,26863
18.07557,21834
18.08492,20125
18.09425,19870
18.10358,19261
18.11293,21081
18.12227,21125
18.13160,21912
18.14095,22104
18.15028,20449
18.15962,21603
18.16897,21805
18.17830,21476
18.18763,19587
18.19698,17934
18.20632,18910
18.21567,20302
18.22500,20123
18.23433,19750
18.24368,19396
18.25302,18110
18.26235,18586
18.27170,19709
18.28103,22789
18.29037,24435
18.29972,25348
18.30905,26193
18.31838,25784
18.32773,27658
18.33707,30089
18.34640,35326
18.35575,34691
18.36508,33239
18.37442,27757
18.38377,24995
18.39310,24827
18.40245,28184
18.41178,29140
18.42112,28326
18.43047,25881
18.43980,26898
18.44913,29648
18.45848,28337
18.46782,23810
18.47715,22156
18.48650,24485
18.49583,30659
18.50517,39459
18.51452,45692
18.52385,40619
18.53318,32727
18.54253,26302
18.55187,26344
18.56120,25927
18.57055,22578
18.57988,20833
18.58923,21199
18.59857,23435
18.60790,24814
18.61725,26740
18.62658,26967
18.63592,25840
18.64527,26340
18.65460,23297
18.66393,22608
18.67328,23836
18.68262,24586
18.69195,25172
18.70130,26528
18.71063,26993
18.71997,28026
18.72932,26418
18.73865,24905
18.74798,23479
18.75733,22872
18.76667,20067
18.77602,18163
18.78535,18448
18.79468,19065
18.80403,19275
18.81337,20283
18.82270,20466
18.83205,20106
18.84138,20500
18.85072,19269
18.86007,17965
18.86940,19106
18.87873,18485
18.88808,19028
18.89742,19862
18.90675,23731
18.91610,28410
18.92543,28162
18.93477,24668
18.94412,25361
18.95345,27655
18.96280,29428
18.97213,28339
18.98147,26582
18.99082,22841
19.00015,21480
19.00948,21434
19.01883,20685
19.02817,19422
19.03750,25934
19.04685,36412
19.05618,47174
19.06552,56997
19.07487,70675
19.08420,87509
19.09353,86378
19.10288,60909
19.11222,36618
19.12157,25107
19.13090,22010
19.14023,20309
19.14958,18018
19.15892,18709
19.16825,17523
19.17760,18580
19.18693,21693
19.19627,22158
19.20562,24185
19.21495,24412
19.22428,24385
19.23363,23566
19.24297,20155
19.25230,19568
19.26165,19410
19.27098,21179
19.28032,22913
19.28967,26754
19.29900,27815
19.30835,33338
19.31768,37531
19.32702,35709
19.33637,29193
19.34570,23355
19.35503,20713
19.36438,18682
19.37372,18896
19.38305,18083
19.39240,19784
19.40173,24597
19.41107,26019
19.42042,22427
19.42975,20550
19.43908,18524
19.44843,18592
19.45777,18894
19.46710,19467
19.47645,20821
19.48578,22351
19.49513,22663
19.50447,20580
19.51380,19003
19.52315,19426
19.53248,18382
19.54182,19862
19.55117,18357
19.56050,20349
19.56983,20919
19.57918,21483
19.58852,22637
19.59785,22477
19.60720,21029
19.61653,20534
19.62587,23052
19.63522,24975
19.64455,24806
19.65388,22568
19.66323,20549
19.67257,19592
19.68192,19746
19.69125,18788
19.70058,19639
19.70993,20992
19.71927,26649
19.72860,35766
19.73795,38062
19.74728,31086
19.75662,25718
19.76597,23469
19.77530,23847
19.78463,24731
19.79398,22821
19.80332,20161
19.81265,20490
19.82200,19898
19.83133,19321
19.84068,18830
19.85002,17728
19.85935,20370
19.86870,27129
19.87803,32934
19.88737,35240
19.89672,28069
19.90605,23454
19.91538,20335
19.92473,19860
19.93407,20504
19.94340,20323
19.95275,22538
19.96208,24911
19.97142,24481
19.98077,22586
19.99010,19547
19.99943,18661
20.00878,19518
20.01812,20597
20.02747,21330
20.03680,23521
20.04613,23887
20.05548,23654
20.06482,22252
20.07415,22116
20.08350,23055
20.09283,23560
20.10217,20199
20.11152,18689
20.12085,18490
20.13018,18465
20.13953,21534
20.14887,25352
20.15820,27975
20.16755,25217
20.17688,21739
20.18622,19256
20.19557,18204
20.20490,18086
20.21425,18466
20.22358,19228
20.23292,18061
20.24227,17897
20.25160,18131
20.26093,18512
20.27028,18256
20.27962,19968
20.28895,23963
20.29830,26703
20.30763,24818
20.31697,22096
20.32632,18692
20.33565,16491
20.34498,17951
20.35433,19689
20.36367,21482
20.37300,20873
20.38235,21111
20.39168,17626
20.40103,18011
20.41037,17695
20.41970,18167
20.42905,17643
20.43838,17651
20.44772,17921
20.45707,19914
20.46640,22749
20.47573,27793
20.48508,26035
20.49442,22495
20.50375,19546
20.51310,19389
20.52243,18889
20.53177,20316
20.54112,20948
20.55045,22946
20.55978,39359
20.56913,93771
20.57847,163380
20.58782,161861
20.59715,90843
20.60648,39699
20.61583,24903
20.62517,23045
20.63450,24742
20.64385,27260
20.65318,30025
20.66252,28073
20.67187,25411
20.68120,22694
20.69053,22208
20.69988,22599
20.70922,22167
20.71855,22971
20.72790,20767
20.73723,20828
20.74658,20317
20.75592,19546
20.76525,18790
20.77460,18766
20.78393,21669
20.79327,24079
20.80262,24848
20.81195,24403
20.82128,22024
20.83063,20630
20.83997,19751
20.84930,19519
20.85865,18553
20.86798,18469
20.87732,19063
20.88667,19794
20.89600,20661
20.90533,21558
20.91468,19813
20.92402,18911
20.93337,16972
20.94270,17584
20.95203,17223
20.96138,17307
20.97072,17337
20.98005,17078
20.98940,17553
20.99873,17468
21.00807,17416
21.01742,17452
21.02675,17120
21.03608,16034
21.04543,15757
21.05477,16529
21.06410,17539
21.07345,16294
21.08278,17137
21.09212,18006
21.10147,18821
21.11080,19002
21.12015,20375
21.12948,19089
21.13882,18657
21.14817,18840
21.15750,18619
21.16683,21505
21.17618,24412
21.18552,30198
21.19485,30471
21.20420,26779
21.21353,23047
21.22287,22603
21.23222,19254
21.24155,20562
21.25088,20426
21.26023,20014
21.26957,22762
21.27890,26895
21.28825,30757
21.29758,28123
21.30693,23582
21.31627,20823
21.32560,17985
21.33495,18629
21.34428,17995
21.35362,18183
21.36297,17933
21.37230,17080
21.38163,17838
21.39098,17700
21.40032,18565
21.40965,19752
21.41900,20078
21.42833,18958
21.43767,19503
21.44702,19264
21.45635,19032
21.46570,18593
21.47503,19084
21.48437,21322
21.49372,20050
21.50305,19751
21.51238,19125
21.52173,19211
21.53107,18794
21.54040,17638
21.54975,18178
21.55908,21500
21.56842,26477
21.57777,29799
21.58710,26117
21.59643,21841
21.60578,19628
21.61512,19198
21.62445,18395
21.63380,18915
21.64313,18607
21.65248,17778
21.66182,17591
21.67115,18310
21.68050,20362
21.68983,21797
21.69917,21879
21.70852,20434
21.71785,22400
21.72718,21702
21.73653,20322
21.74587,21177
21.75520,19652
21.76455,17341
21.77388,17683
21.78322,16818
21.79257,18077
21.80190,18182
21.81123,20930
21.82058,21967
21.82992,20724
21.83927,19333
21.84860,19399
21.85793,18591
21.86728,19057
21.87662,20418
21.88595,21471
21.89530,26120
21.90463,28988
21.91397,28762
21.92332,26312
21.93265,22548
21.94198,21231
21.95133,19791
21.96067,20615
21.97000,23301
21.97935,27042
21.98868,32116
21.99802,34707
22.00737,28239
22.01670,24065
22.02605,21341
22.03538,21062
22.04472,20773
22.05407,21883
22.06340,20751
22.07273,20752
22.08208,22264
22.09142,21680
22.10075,21968
22.11010,20849
22.11943,19219
22.12877,20399
22.13812,19296
22.14745,20471
22.15678,22318
22.16613,24271
22.17547,26329
22.18480,24529
22.19415,20654
22.20348,18450
22.21283,20559
22.22217,23671
22.23150,21861
22.24085,21483
22.25018,20457
22.25952,20565
22.26887,20217
22.27820,22043
22.28753,21848
22.29688,23066
22.30622,22116
22.31555,19894
22.32490,19658
22.33423,20593
22.34357,20819
22.35292,21434
22.36225,20297
22.37158,21550
22.38093,21986
22.39027,20477
22.39962,19363
22.40895,19650
22.41828,18209
22.42763,19467
22.43697,20090
22.44630,20311
22.45565,20373
22.46498,19689
22.47432,20681
22.48367,19894
22.49300,18894
22.50233,18300
22.51168,18317
22.52102,18767
22.53035,18634
22.53970,19464
22.54903,18474
22.55838,18457
22.56772,19158
22.57705,20051
22.58640,21452
22.59573,21456
22.60507,21960
22.61442,22581
22.62375,22099
22.63308,21055
22.64243,21856
22.65177,21404
22.66110,19766
22.67045,19546
22.67978,20054
22.68912,21890
22.69847,23125
22.70780,21524
22.71713,18947
22.72648,20435
22.73582,20026
22.74517,22328
22.75450,24700
22.76383,24854
22.77318,23198
22.78252,20322
22.79185,19139
22.80120,18668
22.81053,19396
22.81987,19392
22.82922,20049
22.83855,19405
22.84788,20627
22.85723,18727
22.86657,20353
22.87590,19669
22.88525,19746
22.89458,19346
22.90392,19121
22.91327,19487
22.92260,19602
22.93195,20625
22.94128,18964
22.95062,19130
22.95997,20133
22.96930,18504
22.97863,19215
22.98798,18134
22.99732,18671
23.00665,18619
23.01600,18536
23.02533,18565
23.03467,16897
23.04402,17381
23.05335,17936
23.06268,18357
23.07203,17772
23.08137,18283
23.09070,17716
23.10005,17572
23.10938,18288
23.11873,17626
23.12807,18415
23.13740,17219
23.14675,16877
23.15608,17544
23.16542,16825
23.17477,17035
23.18410,17971
23.19343,16922
23.20278,17069
23.21212,17365
23.22145,18606
23.23080,17785
23.24013,18754
23.24947,19690
23.25882,21432
23.26815,23041
23.27750,20964
23.28683,20412
23.29617,20519
23.30552,19514
23.31485,20396
23.32418,23956
23.33353,30283
23.34287,31902
23.35220,26652
23.36155,23743
23.37088,20427
23.38022,19122
23.38957,19614
23.39890,19683
23.40823,19755
23.41758,19457
23.42692,18997
23.43625,18048
23.44560,20009
23.45493,19706
23.46428,20641
23.47362,20446
23.48295,20288
23.49230,19071
23.50163,19223
23.51097,18230
23.52032,19738
23.52965,21104
23.53898,21758
23.54833,20478
23.55767,19829
23.56700,19648
23.57635,19688
23.58568,21248
23.59502,20997
23.60437,19703
23.61370,18240
23.62303,17594
23.63238,18424
23.64172,18170
23.65107,17859
23.66040,18325
23.66973,19619
23.67908,18068
23.68842,18459
23.69775,19270
23.70710,20735
23.71643,20763
23.72577,20796
23.73512,22054
23.74445,20293
23.75378,19297
23.76313,18209
23.77247,18073
23.78180,18122
23.79115,18369
23.80048,18294
23.80982,17402
23.81917,18251
23.82850,18698
23.83785,17836
23.84718,18036
23.85652,16453
23.86587,18510
23.87520,18080
23.88453,19531
23.89388,18573
23.90322,18564
23.91255,18196
23.92190,18460
23.93123,19273
23.94057,17869
23.94992,18749
23.95925,17716
23.96858,17402
23.97793,18711
23.98727,19153
23.99660,19296
24.00595,18332
24.01528,17642
24.02463,17769
24.03397,18366
24.04330,17394
24.05265,16679
24.06198,16287
24.07132,16492
24.08067,19004
24.09000,18565
24.09933,17750
24.10868,18060
24.11802,16833
24.12735,17934
24.13670,17261
24.14603,17449
24.15537,18427
24.16472,17342
24.17405,18132
24.18340,18449
24.19273,17544
24.20207,16872
24.21142,18626
24.22075,17944
24.23008,19382
24.23943,19013
24.24877,18758
24.25810,18691
24.26745,18717
24.27678,19059
24.28612,19367
24.29547,18870
24.30480,19542
24.31413,21509
24.32348,21631
24.33282,21148
24.34215,20558
24.35150,21015
24.36083,18870
24.37018,20649
24.37952,19572
24.38885,20699
24.39820,20150
24.40753,19314
24.41687,19262
24.42622,19187
24.43555,18843
24.44488,18994
24.45423,19093
24.46357,18836
24.47290,19893
24.48225,20083
24.49158,18659
24.50092,19318
24.51027,19360
24.51960,18646
24.52893,19413
24.53828,18851
24.54762,19750
24.55697,19500
24.56630,18620
24.57563,18639
24.58498,18726
24.59432,19639
24.60365,18958
24.61300,20602
24.62233,20901
24.63167,19954
24.64102,19558
24.65035,20733
24.65968,20170
24.66903,20684
24.67837,20043
24.68770,19371
24.69705,19877
24.70638,19822
24.71572,19898
24.72507,19662
24.73440,19036
24.74375,19342
24.75308,19570
24.76242,20078
24.77177,18324
24.78110,19474
24.79043,20953
24.79978,18694
24.80912,19123
24.81845,19203
24.82780,19853
24.83713,18859
24.84647,18216
24.85582,19813
24.86515,20181
24.87448,20897
24.88383,20490
24.89317,20530
24.90252,20472
24.91185,20340
24.92118,19528
24.93053,19657
24.93987,20167
24.94920,20604
24.95855,21678
24.96788,20867
24.97722,20492
24.98657,20442
24.99590,19053
25.00523,18582
25.01458,19606
25.02392,20043
25.03325,19694
25.04260,19886
25.05193,19454
25.06127,21145
25.07062,20430
25.07995,20032
25.08930,19242
25.09863,19601
25.10797,20913
25.11732,20892
25.12665,21107
25.13598,19688
25.14533,20310
25.15467,20803
25.16400,21126
25.17335,19891
25.18268,20590
25.19202,20159
25.20137,19345
25.21070,20566
25.22003,20044
25.22938,19027
25.23872,20707
25.24805,19820
25.25740,18797
25.26673,19169
25.27608,19228
25.28542,20807
25.29475,19834
25.30410,23635
25.31343,37185
25.32277,62949
25.33212,86564
25.34145,80132
25.35078,53523
25.36013,36474
25.36947,27946
25.37880,26319
25.38815,24554
25.39748,24606
25.40682,23561
25.41617,23649
25.42550,24258
25.43483,22196
25.44418,22516
25.45352,24160
25.46287,23424
25.47220,23489
25.48153,24699
25.49088,25696
25.50022,25458
25.50955,25087
25.51890,24133
25.52823,24272
25.53757,23869
25.54692,22598
25.55625,22452
25.56558,23148
25.57493,23468
25.58427,22405
25.59360,21668
25.60295,21973
25.61228,22281
25.62162,22257
25.63097,22703
25.64030,23390
25.64965,24712
25.65898,24221
25.66832,23200
25.67767,24049
25.68700,22290
25.69633,22390
25.70568,20916
25.71502,22280
25.72435,23665
25.73370,23926
25.74303,23957
25.75237,24237
25.76172,24856
25.77105,23549
25.78038,23823
25.78973,23068
25.79907,24878
25.80842,24743
25.81775,23754
25.82708,24806
25.83643,23418
25.84577,23332
25.85510,22618
25.86445,22059
25.87378,23031
25.88312,21652
25.89247,22123
25.90180,22393
25.91113,22381
25.92048,22000
25.92982,22435
25.93915,21372
25.94850,21855
25.95783,22741
25.96717,23178
25.97652,21339
25.98585,22967
25.99520,21376
26.00453,21369
26.01387,22457
26.02322,21689
26.03255,21548
26.04188,21991
26.05123,22109
26.06057,21835
26.06990,22917
26.07925,23040
26.08858,21741
26.09792,22294
26.10727,20923
26.11660,22668
26.12593,23705
26.13528,24091
26.14462,25183
26.15395,23306
26.16330,21451
26.17263,23009
26.18198,23527
26.19132,21731
26.20065,22357
26.21000,21823
26.21933,21823
26.22867,22812
26.23802,22881
26.24735,22266
26.25668,22518
26.26603,23182
26.27537,22153
26.28470,22484
26.29405,22873
26.30338,22738
26.31272,22532
26.32207,21780
26.33140,23068
26.34073,21365
26.35008,22646
26.35942,21836
26.36877,21523
26.37810,23516
26.38743,22997
26.39678,22752
26.40612,23144
26.41545,22858
26.42480,22292
26.43413,22996
26.44347,23545
26.45282,23680
26.46215,23924
26.47148,24415
26.48083,22679
26.49017,22712
26.49950,23343
26.50885,22817
26.51818,22840
26.52753,22955
26.53687,23425
26.54620,22386
26.55555,22930
26.56488,23293
26.57422,23762
26.58357,23883
26.59290,21503
26.60223,23413
26.61158,21707
26.62092,22797
26.63025,22665
26.63960,23472
26.64893,23986
26.65827,23839
26.66762,24343
26.67695,24167
26.68628,22806
26.69563,23036
26.70497,21657
26.71432,23014
26.72365,22420
26.73298,23341
26.74233,24538
26.75167,23931
26.76100,23712
26.77035,24391
26.77968,24838
26.78902,24460
26.79837,24888
26.80770,25593
26.81703,23934
26.82638,24380
26.83572,26760
26.84505,26200
26.85440,26735
26.86373,26075
26.87307,23952
26.88242,25892
26.89175,24930
26.90110,24686
26.91043,22833
26.91977,25101
26.92912,24605
26.93845,24242
26.94778,24278
26.95713,25797
26.96647,24127
26.97580,23459
26.98515,25794
26.99448,25291
27.00382,25665
27.01317,26293
27.02250,25060
27.03183,24690
27.04118,23901
27.05052,26150
27.05985,25880
27.06920,24673
27.07853,24920
27.08788,25587
27.09722,25287
27.10655,24876
27.11590,26381
27.12523,26128
27.13457,25881
27.14392,26294
27.15325,24678
27.16258,24582
27.17193,23544
27.18127,24172
27.19060,24345
27.19995,24864
27.20928,23242
27.21862,24212
27.22797,24642
27.23730,24006
27.24663,24732
27.25598,26704
27.26532,26042
27.27467,26572
27.28400,24959
27.29333,24958
27.30268,25060
27.31202,23954
27.32135,24965
27.33070,24867
27.34003,22829
27.34937,24068
27.35872,23956
27.36805,23540
27.37738,24927
27.38673,25457
27.39607,25208
27.40540,24893
27.41475,27734
27.42408,26189
27.43342,26899
27.44277,25783
27.45210,24407
27.46145,24174
27.47078,25467
27.48012,25160
27.48947,24571
27.49880,25355
27.50813,24453
27.51748,23871
27.52682,26161
27.53615,25393
27.54550,24873
27.55483,24768
27.56417,26591
27.57352,25037
27.58285,25291
27.59218,24646
27.60153,24293
27.61087,23893
27.62022,25700
27.62955,24656
27.63888,25294
27.64823,24726
27.65757,28615
27.66690,38795
27.67625,51944
27.68558,58114
27.69492,51980
27.70427,42478
27.71360,36299
27.72293,32577
27.73228,30386
27.74162,29816
27.75095,30178
27.76030,27994
27.76963,28276
27.77897,28559
27.78832,27407
27.79765,28614
27.80700,28687
27.81633,28222
27.82567,29178
27.83502,27417
27.84435,28978
27.85368,28227
27.86303,28157
27.87237,27864
27.88170,27831
27.89105,28437
27.90038,28383
27.90972,27261
27.91907,26112
27.92840,27116
27.93773,28174
27.94708,26962
27.95642,27580
27.96575,29386
27.97510,28191
27.98443,30051
27.99378,28204
28.00312,27787
28.01245,28264
28.02180,28291
28.03113,26305
28.04047,27780
28.04982,27950
28.05915,27268
28.06848,26855
28.07783,26741
28.08717,27435
28.09650,28272
28.10585,28777
28.11518,28301
28.12452,27939
28.13387,29611
28.14320,28712
28.15253,28102
28.16188,29101
28.17122,29640
28.18057,29456
28.18990,28476
28.19923,27967
28.20858,28176
28.21792,27989
28.22725,29558
28.23660,27932
28.24593,28384
28.25527,28539
28.26462,28648
28.27395,28560
28.28328,28770
28.29263,29643
28.30197,29267
28.31130,29107
28.32065,31044
28.32998,30001
28.33933,28496
28.34867,29796
28.35800,30431
28.36735,30814
28.37668,31153
28.38602,31706
28.39537,29874
28.40470,30044
28.41403,29724
28.42338,29698
28.43272,29521
28.44205,31303
28.45140,29445
28.46073,28309
28.47007,29206
28.47942,29615
28.48875,29079
28.49808,28573
28.50743,29161
28.51677,28956
28.52612,27886
28.53545,28777
28.54478,29495
28.55413,28897
28.56347,30414
28.57280,30675
28.58215,30333
28.59148,32265
28.60082,31128
28.61017,30973
28.61950,30911
28.62883,31206
28.63818,32812
28.64752,32846
28.65685,32449
28.66620,40207
28.67553,48032
28.68487,51387
28.69422,50892
28.70355,43291
28.71290,36919
28.72223,35455
28.73157,34704
28.74092,35200
28.75025,32739
28.75958,31824
28.76893,32290
28.77827,31166
28.78760,31707
28.79695,32939
28.80628,31425
28.81562,33672
28.82497,32546
28.83430,31375
28.84363,32928
28.85298,32470
28.86232,33333
28.87165,32938
28.88100,32195
28.89033,33147
28.89968,32534
28.90902,32387
28.91835,32936
28.92770,33526
28.93703,32798
28.94637,32432
28.95572,34897
28.96505,32058
28.97438,31790
28.98373,35016
28.99307,33199
29.00240,33602
29.01175,34364
29.02108,33998
29.03042,34730
29.03977,35040
29.04910,34993
29.05843,35211
29.06778,34664
29.07712,35438
29.08647,33652
29.09580,34318
29.10513,33838
29.11448,33646
29.12382,35261
29.13315,34770
29.14250,36059
29.15183,33201
29.16117,33664
29.17052,35518
29.17985,36729
29.18918,36086
29.19853,36403
29.20787,35376
29.21720,35636
29.22655,34761
29.23588,36574
29.24523,36516
29.25457,36378
29.26390,35232
29.27325,35838
29.28258,35809
29.29192,36053
29.30127,35658
29.31060,37435
29.31993,37087
29.32928,38924
29.33862,36539
29.34795,36427
29.35730,36341
29.36663,38296
29.37597,36077
29.38532,38105
29.39465,38965
29.40398,38418
29.41333,37839
29.42267,39168
29.43202,38419
29.44135,39858
29.45068,40515
29.46003,41762
29.46937,43999
29.47870,44677
29.48805,43085
29.49738,40480
29.50672,42053
29.51607,41082
29.52540,37407
29.53473,38614
29.54408,37609
29.55342,37356
29.56275,38770
29.57210,36346
29.58143,38348
29.59077,37369
29.60012,37258
29.60945,35236
29.61880,36674
29.62813,37590
29.63747,36595
29.64682,36145
29.65615,38440
29.66548,37958
29.67483,39003
29.68417,38119
29.69350,37780
29.70285,37591
29.71218,38800
29.72152,38207
29.73087,36878
29.74020,38803
29.74953,37207
29.75888,39334
29.76822,39455
29.77755,37560
29.78690,39316
29.79623,36175
29.80558,39495
29.81492,37756
29.82425,37511
29.83360,37865
29.84293,36809
29.85227,37444
29.86162,38070
29.87095,37360
29.88028,36115
29.88963,37687
29.89897,35902
29.90830,35751
29.91765,36770
29.92698,37550
29.93632,36825
29.94567,39152
29.95500,37433
29.96435,35610
29.97368,38445
29.98302,38682
29.99237,38345
30.00170,38913
30.01103,40673
30.02038,41606
30.02972,40478
30.03905,38323
30.04840,40303
30.05773,39290
30.06707,38602
30.07642,37814
30.08575,37873
30.09508,40212
30.10443,39058
30.11377,39558
30.12310,39231
30.13245,39587
30.14178,39578
30.15113,39345
30.16047,37605
30.16980,36935
30.17915,39547
30.18848,42158
30.19782,37078
30.20717,38176
30.21650,39283
30.22583,38928
30.23518,39154
30.24452,38678
30.25385,37233
30.26320,38295
30.27253,40147
30.28187,39223
30.29122,38490
30.30055,38273
30.30988,39366
30.31923,40357
30.32857,39783
30.33792,40217
30.34725,39253
30.35658,42732
30.36593,38943
30.37527,40835
30.38460,41098
30.39395,42531
30.40328,40592
30.41262,41430
30.42197,40373
30.43130,39114
30.44063,39384
30.44998,40128
30.45932,40558
30.46865,40644
30.47800,40471
30.48733,39885
30.49667,38562
30.50602,38361
30.51535,41352
30.52470,39910
30.53403,40238
30.54337,41116
30.55272,40673
30.56205,41916
30.57138,42295
30.58073,41389
30.59007,42441
30.59940,44722
30.60875,47246
30.61808,48121
30.62742,48810
30.63677,51937
30.64610,53076
30.65543,56051
30.66478,55694
30.67412,55865
30.68345,54847
30.69280,52611
30.70213,53865
30.71148,51115
30.72082,50592
30.73015,49402
30.73950,48934
30.74883,47581
30.75817,48372
30.76752,46692
30.77685,45787
30.78618,48659
30.79553,46522
30.80487,48144
30.81420,46347
30.82355,47438
30.83288,46307
30.84222,48143
30.85157,47964
30.86090,48641
30.87023,48586
30.87958,48650
30.88892,49817
30.89827,49100
30.90760,51340
30.91693,50633
30.92628,50007
30.93562,50939
30.94495,50037
30.95430,50163
30.96363,51009
30.97297,49962
30.98232,50125
30.99165,50193
31.00098,50182
31.01033,49073
31.01967,49522
31.02900,48522
31.03835,48922
31.04768,48604
31.05703,49217
31.06637,49160
31.07570,48988
31.08505,50139
31.09438,50565
31.10372,49485
31.11307,48943
31.12240,48746
31.13173,50242
31.14108,48432
31.15042,48928
31.15975,50348
31.16910,49783
31.17843,48570
31.18777,49549
31.19712,50066
31.20645,49311
31.21578,50629
31.22513,50262
31.23447,52237
31.24382,51919
31.25315,51682
31.26248,50779
31.27183,50210
31.28117,51306
31.29050,50331
31.29985,50497
31.30918,51467
31.31852,51360
31.32787,50791
31.33720,50600
31.34653,50402
31.35588,49346
31.36522,50747
