D:\数据\20220215\LCLN-ZS1E #000391.D Tue Feb 15 23:35:15 2022
Start of data points
0.09767,24296
0.10700,24196
0.11633,24336
0.12568,25098
0.13502,25530
0.14435,24789
0.15370,23700
0.16303,24502
0.17237,23121
0.18172,23649
0.19105,24059
0.20040,23043
0.20973,24132
0.21907,22619
0.22842,21707
0.23775,21271
0.24708,21933
0.25643,21491
0.26577,21403
0.27510,22664
0.28445,20932
0.29378,20863
0.30312,19592
0.31247,22338
0.32180,22484
0.33113,20450
0.34048,20886
0.34982,20935
0.35917,21229
0.36850,20407
0.37783,22405
0.38718,21115
0.39652,21071
0.40585,21717
0.41520,21092
0.42453,20854
0.43387,19709
0.44322,18532
0.45255,16951
0.46188,14496
0.47123,13152
0.48057,8323
0.48990,6180
0.49925,6555
0.50858,6218
0.51792,5389
0.52727,6123
0.53660,6027
0.54595,5825
0.55528,6160
0.56462,5460
0.57397,6109
0.58330,5495
0.59263,5598
0.60198,5374
0.61132,5505
0.62065,5997
0.63000,5010
0.63933,5388
0.64867,5664
0.65802,5336
0.66735,5426
0.67668,5339
0.68603,5667
0.69537,4960
0.70470,5422
0.71405,5159
0.72338,5055
0.73273,5710
0.74207,5530
0.75140,5848
0.76075,5128
0.77008,5139
0.77942,5155
0.78877,5148
0.79810,4326
0.80743,4826
0.81678,4427
0.82612,5164
0.83545,5557
0.84480,5022
0.85413,4965
0.86347,6127
0.87282,4791
0.88215,5394
0.89148,5406
0.90083,5456
0.91017,5817
0.91952,5244
0.92885,5415
0.93818,5275
0.94753,5667
0.95687,4154
0.96620,5205
0.97555,5046
0.98488,4841
0.99422,5954
1.00357,5223
1.01290,5354
1.02223,4483
1.03158,5098
1.04092,4975
1.05025,4958
1.05960,4954
1.06893,4951
1.07827,5005
1.08762,5176
1.09695,4552
1.10630,4691
1.11563,5347
1.12497,4668
1.13432,5559
1.14365,5316
1.15298,4855
1.16233,4396
1.17167,4796
1.18100,5133
1.19035,4411
1.19968,4935
1.20902,5264
1.21837,5141
1.22770,5136
1.23703,4872
1.24638,5207
1.25572,5224
1.26505,5116
1.27440,4760
1.28373,4759
1.29308,5264
1.30242,4659
1.31175,4841
1.32110,4430
1.33043,5048
1.33977,4957
1.34912,4749
1.35845,4298
1.36778,5113
1.37713,4807
1.38647,4504
1.39580,5003
1.40515,5065
1.41448,4592
1.42382,4419
1.43317,5024
1.44250,5206
1.45185,4446
1.46118,3961
1.47052,4493
1.47987,4262
1.48920,4413
1.49853,4844
1.50788,4336
1.51722,4786
1.52655,4318
1.53590,4303
1.54523,4767
1.55457,4044
1.56392,4385
1.57325,4453
1.58258,4844
1.59193,4465
1.60127,4223
1.61060,6870
1.61995,11372
1.62928,16415
1.63863,20445
1.64797,26474
1.65730,41482
1.66665,54655
1.67598,57408
1.68532,50793
1.69467,39697
1.70400,30333
1.71333,20351
1.72268,16191
1.73202,17660
1.74135,19049
1.75070,21835
1.76003,22034
1.76937,24427
1.77872,24886
1.78805,24924
1.79738,26445
1.80673,25223
1.81607,25882
1.82542,25690
1.83475,25919
1.84408,25617
1.85343,26208
1.86277,30247
1.87210,49511
1.88145,97362
1.89078,165617
1.90012,223460
1.90947,257376
1.91880,293841
1.92813,395965
1.93748,603243
1.94682,846833
1.95615,942912
1.96550,849079
1.97483,672602
1.98417,519169
1.99352,427452
2.00285,389665
2.01220,353889
2.02153,319606
2.03087,295354
2.04022,229492
2.04955,173668
2.05888,137986
2.06823,115880
2.07757,119521
2.08690,170635
2.09625,160713
2.10558,116383
2.11492,94862
2.12427,100056
2.13360,138412
2.14293,178445
2.15228,174816
2.16162,139646
2.17097,107837
2.18030,106590
2.18963,176220
2.19898,236036
2.20832,182544
2.21765,129850
2.22700,144770
2.23633,266988
2.24567,1016221
2.25502,3814994
2.26435,5672103
2.27368,4995076
2.28303,3336732
2.29237,1955538
2.30170,1583361
2.31105,4966247
2.32038,1.169407E+07
2.32972,1.206221E+07
2.33907,7096112
2.34840,3154001
2.35775,1343849
2.36708,645316
2.37642,372415
2.38577,255093
2.39510,184747
2.40443,153427
2.41378,140102
2.42312,127081
2.43245,109124
2.44180,91279
2.45113,83973
2.46047,93598
2.46982,113980
2.47915,112354
2.48848,92914
2.49783,77785
2.50717,67800
2.51650,63243
2.52585,62157
2.53518,67111
2.54453,80808
2.55387,109302
2.56320,232108
2.57255,275666
2.58188,219257
2.59122,159020
2.60057,128277
2.60990,134023
2.61923,160609
2.62858,154806
2.63792,137564
2.64725,132183
2.65660,120852
2.66593,93843
2.67527,75227
2.68462,62560
2.69395,55662
2.70328,57500
2.71263,78816
2.72197,117300
2.73132,149182
2.74065,176092
2.74998,211851
2.75933,238169
2.76867,234292
2.77800,233755
2.78735,234683
2.79668,182679
2.80602,154701
2.81537,152399
2.82470,138448
2.83403,108008
2.84338,100140
2.85272,138737
2.86205,198061
2.87140,193091
2.88073,138465
2.89007,101283
2.89942,82690
2.90875,75980
2.91810,69449
2.92743,64191
2.93677,58243
2.94612,52861
2.95545,50909
2.96478,49890
2.97413,49420
2.98347,51939
2.99280,64256
3.00215,79752
3.01148,87315
3.02082,76985
3.03017,76057
3.03950,78023
3.04883,75911
3.05818,86295
3.06752,107579
3.07687,104357
3.08620,80456
3.09553,58637
3.10488,50360
3.11422,46064
3.12355,47097
3.13290,49661
3.14223,52095
3.15157,60575
3.16092,73008
3.17025,69134
3.17958,58312
3.18893,54907
3.19827,49634
3.20760,46699
3.21695,43007
3.22628,41434
3.23562,42012
3.24497,43785
3.25430,43603
3.26365,45114
3.27298,42796
3.28232,42066
3.29167,48445
3.30100,55573
3.31033,53735
3.31968,49795
3.32902,43290
3.33835,44097
3.34770,42926
3.35703,43522
3.36637,41459
3.37572,39086
3.38505,37774
3.39438,39551
3.40373,42879
3.41307,46929
3.42240,56996
3.43175,65784
3.44108,69253
3.45043,64114
3.45977,57982
3.46910,51641
3.47845,55720
3.48778,51513
3.49712,47878
3.50647,46119
3.51580,43130
3.52513,42132
3.53448,44824
3.54382,73326
3.55315,185649
3.56250,371345
3.57183,436040
3.58117,323885
3.59052,189038
3.59985,123598
3.60918,98121
3.61853,78320
3.62787,65748
3.63722,58202
3.64655,55179
3.65588,54214
3.66523,57473
3.67457,58770
3.68390,53745
3.69325,47794
3.70258,44775
3.71192,50283
3.72127,59843
3.73060,62510
3.73993,54002
3.74928,46558
3.75862,40354
3.76795,38686
3.77730,38079
3.78663,39821
3.79598,47912
3.80532,75150
3.81465,116804
3.82400,123567
3.83333,94364
3.84267,64689
3.85202,54987
3.86135,47010
3.87068,46702
3.88003,46934
3.88937,51107
3.89870,57345
3.90805,60594
3.91738,63147
3.92672,80741
3.93607,99133
3.94540,97335
3.95473,84348
3.96408,72673
3.97342,55019
3.98277,48665
3.99210,48278
4.00143,45882
4.01078,45466
4.02012,55448
4.02945,91909
4.03880,166130
4.04813,196865
4.05747,160715
4.06682,109466
4.07615,92844
4.08548,96054
4.09483,95840
4.10417,82795
4.11350,65132
4.12285,53774
4.13218,46856
4.14152,44949
4.15087,45037
4.16020,45601
4.16955,43277
4.17888,40650
4.18822,38880
4.19757,43192
4.20690,49470
4.21623,48821
4.22558,45022
4.23492,40603
4.24425,39434
4.25360,47000
4.26293,52390
4.27227,56681
4.28162,53988
4.29095,49337
4.30028,44081
4.30963,45308
4.31897,50184
4.32830,54772
4.33765,52246
4.34698,50042
4.35633,44177
4.36567,41424
4.37500,41558
4.38435,39566
4.39368,38209
4.40302,34916
4.41237,36529
4.42170,35442
4.43103,36155
4.44038,35341
4.44972,37187
4.45905,42763
4.46840,52852
4.47773,62584
4.48707,61180
4.49642,53791
4.50575,45310
4.51508,40857
4.52443,39645
4.53377,41386
4.54312,40157
4.55245,38140
4.56178,38440
4.57113,39731
4.58047,39563
4.58980,38902
4.59915,37611
4.60848,36339
4.61782,36986
4.62717,39445
4.63650,47522
4.64583,51871
4.65518,50296
4.66452,45082
4.67385,42857
4.68320,46772
4.69253,57224
4.70188,66581
4.71122,69349
4.72055,69807
4.72990,59513
4.73923,50968
4.74857,43187
4.75792,42042
4.76725,41755
4.77658,45310
4.78593,45787
4.79527,43217
4.80460,43218
4.81395,42535
4.82328,45027
4.83262,42195
4.84197,40141
4.85130,41920
4.86063,54105
4.86998,79439
4.87932,91014
4.88867,79646
4.89800,67425
4.90733,57907
4.91668,53029
4.92602,48537
4.93535,47337
4.94470,44798
4.95403,41269
4.96337,38743
4.97272,36159
4.98205,36882
4.99138,39623
5.00073,44862
5.01007,47056
5.01940,47848
5.02875,48555
5.03808,45833
5.04742,42716
5.05677,41639
5.06610,39828
5.07545,40833
5.08478,44449
5.09412,42341
5.10347,41058
5.11280,39066
5.12213,36163
5.13148,42990
5.14082,48539
5.15015,47785
5.15950,44927
5.16883,41878
5.17817,42080
5.18752,39802
5.19685,37938
5.20618,36612
5.21553,35892
5.22487,38505
5.23420,41331
5.24355,44824
5.25288,42627
5.26223,53147
5.27157,101177
5.28090,202051
5.29025,277698
5.29958,245812
5.30892,157725
5.31827,106755
5.32760,86818
5.33693,69658
5.34628,51988
5.35562,42740
5.36495,40833
5.37430,42825
5.38363,50450
5.39297,59677
5.40232,61591
5.41165,55798
5.42100,50088
5.43033,45881
5.43967,38685
5.44902,36398
5.45835,38480
5.46768,37999
5.47703,39782
5.48637,41660
5.49570,42478
5.50505,42182
5.51438,45684
5.52372,52350
5.53307,56502
5.54240,54849
5.55173,50487
5.56108,44872
5.57042,41832
5.57975,38737
5.58910,38159
5.59843,34555
5.60778,34537
5.61712,35326
5.62645,34159
5.63580,34792
5.64513,35704
5.65447,38981
5.66382,43121
5.67315,45896
5.68248,42285
5.69183,41365
5.70117,43229
5.71050,46550
5.71985,47761
5.72918,45577
5.73852,48543
5.74787,61980
5.75720,74467
5.76653,68956
5.77588,57420
5.78522,44055
5.79457,37137
5.80390,36939
5.81323,41507
5.82258,48214
5.83192,51019
5.84125,48156
5.85060,41200
5.85993,40236
5.86927,41239
5.87862,41157
5.88795,41194
5.89728,39778
5.90663,53290
5.91597,99952
5.92530,139489
5.93465,138414
5.94398,104522
5.95332,74644
5.96267,53173
5.97200,44235
5.98135,40444
5.99068,40220
6.00002,38232
6.00937,37044
6.01870,35134
6.02803,32568
6.03738,29684
6.04672,26025
6.05605,28764
6.06540,30522
6.07473,28934
6.08407,27890
6.09342,26413
6.10275,24686
6.11208,27725
6.12143,34160
6.13077,46127
6.14010,49510
6.14945,36950
6.15878,26781
6.16813,23046
6.17747,21673
6.18680,20435
6.19615,20496
6.20548,20029
6.21482,24115
6.22417,27242
6.23350,30104
6.24283,28337
6.25218,25024
6.26152,27467
6.27085,28717
6.28020,26670
6.28953,21164
6.29887,16647
6.30822,16473
6.31755,15058
6.32688,14889
6.33623,14704
6.34557,14535
6.35492,16170
6.36425,17063
6.37358,23650
6.38293,38246
6.39227,65538
6.40160,161686
6.41095,355291
6.42028,432434
6.42962,282160
6.43897,111463
6.44830,42000
6.45763,26001
6.46698,22991
6.47632,20550
6.48565,19675
6.49500,18156
6.50433,20147
6.51368,20572
6.52302,21000
6.53235,18548
6.54170,18206
6.55103,17190
6.56037,15473
6.56972,16333
6.57905,17421
6.58838,18643
6.59773,21500
6.60707,22280
6.61640,21754
6.62575,21320
6.63508,22116
6.64442,20706
6.65377,20896
6.66310,21429
6.67243,22408
6.68178,24469
6.69112,25578
6.70047,27351
6.70980,27107
6.71913,24518
6.72848,20329
6.73782,17431
6.74715,16873
6.75650,16382
6.76583,17298
6.77517,18684
6.78452,23256
6.79385,36932
6.80318,47425
6.81253,42070
6.82187,27628
6.83120,21839
6.84055,21214
6.84988,19346
6.85922,19335
6.86857,17125
6.87790,17915
6.88725,18861
6.89658,19866
6.90592,21570
6.91527,23221
6.92460,23900
6.93393,19745
6.94328,20784
6.95262,20927
6.96195,22315
6.97130,21186
6.98063,20139
6.98997,19612
6.99932,19676
7.00865,21976
7.01798,22447
7.02733,19879
7.03667,17270
7.04600,15559
7.05535,14973
7.06468,14986
7.07403,16017
7.08337,16499
7.09270,19559
7.10205,21334
7.11138,23650
7.12072,23740
7.13007,20472
7.13940,19768
7.14873,17120
7.15808,14569
7.16742,14926
7.17675,14706
7.18610,16091
7.19543,17856
7.20477,17907
7.21412,19355
7.22345,26012
7.23280,47804
7.24213,69707
7.25147,64821
7.26082,46736
7.27015,31961
7.27948,27904
7.28883,27168
7.29817,23820
7.30750,20635
7.31685,17155
7.32618,14558
7.33552,15296
7.34487,15808
7.35420,14658
7.36353,15207
7.37288,16257
7.38222,21196
7.39155,41767
7.40090,83880
7.41023,126965
7.41958,121920
7.42892,83431
7.43825,47399
7.44760,29215
7.45693,22022
7.46627,20324
7.47562,21227
7.48495,19893
7.49428,18657
7.50363,16158
7.51297,16101
7.52230,14479
7.53165,15936
7.54098,14939
7.55032,17691
7.55967,21669
7.56900,24990
7.57833,27224
7.58768,26365
7.59702,25192
7.60637,24239
7.61570,25271
7.62503,27073
7.63438,25290
7.64372,22423
7.65305,20781
7.66240,20165
7.67173,19491
7.68107,19948
7.69042,19760
7.69975,18645
7.70908,21158
7.71843,21592
7.72777,25935
7.73710,29120
7.74645,28649
7.75578,24304
7.76512,22452
7.77447,21930
7.78380,24048
7.79315,21627
7.80248,18364
7.81182,17837
7.82117,19337
7.83050,20116
7.83983,21535
7.84918,30264
7.85852,54893
7.86785,84557
7.87720,88438
7.88653,62025
7.89587,37858
7.90522,37586
7.91455,57186
7.92388,69406
7.93323,60638
7.94257,43173
7.95190,32988
7.96125,35406
7.97058,41415
7.97993,53277
7.98927,54487
7.99860,41054
8.00795,31914
8.01728,29460
8.02662,29850
8.03597,34772
8.04530,42208
8.05463,40004
8.06398,32136
8.07332,26655
8.08265,29571
8.09200,38948
8.10133,39801
8.11067,30724
8.12002,23829
8.12935,20608
8.13870,20247
8.14803,18996
8.15737,18964
8.16672,19497
8.17605,19454
8.18538,18864
8.19473,20412
8.20407,22315
8.21340,22788
8.22275,22165
8.23208,23320
8.24142,26755
8.25077,25447
8.26010,24025
8.26943,20850
8.27878,18877
8.28812,18702
8.29745,19405
8.30680,18606
8.31613,19162
8.32548,17851
8.33482,17244
8.34415,17052
8.35350,18150
8.36283,20124
8.37217,19861
8.38152,23478
8.39085,25538
8.40018,27668
8.40953,28739
8.41887,28510
8.42820,31025
8.43755,29111
8.44688,27092
8.45622,26292
8.46557,25842
8.47490,24528
8.48423,23306
8.49358,22506
8.50292,36733
8.51227,49212
8.52160,47226
8.53093,43001
8.54028,39117
8.54962,38889
8.55895,38991
8.56830,33713
8.57763,29266
8.58697,26700
8.59632,26383
8.60565,24900
8.61498,24565
8.62433,24620
8.63367,23415
8.64300,23703
8.65235,22086
8.66168,21746
8.67102,23917
8.68037,24303
8.68970,24762
8.69905,24903
8.70838,25119
8.71772,24501
8.72707,23679
8.73640,27131
8.74573,38318
8.75508,48652
8.76442,46689
8.77375,36546
8.78310,32104
8.79243,40270
8.80177,68185
8.81112,105833
8.82045,102874
8.82978,67015
8.83913,39039
8.84847,28851
8.85782,26141
8.86715,26037
8.87648,28433
8.88583,28776
8.89517,29470
8.90450,28524
8.91385,27300
8.92318,25949
8.93252,27979
8.94187,27098
8.95120,25836
8.96053,23505
8.96988,25659
8.97922,26637
8.98855,26161
8.99790,26616
9.00723,26842
9.01657,27470
9.02592,23516
9.03525,25032
9.04460,26443
9.05393,29156
9.06327,30782
9.07262,35743
9.08195,43788
9.09128,47433
9.10063,44458
9.10997,37680
9.11930,46976
9.12865,79563
9.13798,110275
9.14732,97590
9.15667,57380
9.16600,32851
9.17533,25688
9.18468,24838
9.19402,24548
9.20335,27694
9.21270,32304
9.22203,45934
9.23138,71240
9.24072,83418
9.25005,65395
9.25940,42608
9.26873,28658
9.27807,24027
9.28742,21991
9.29675,21279
9.30608,23321
9.31543,29036
9.32477,45155
9.33410,64436
9.34345,62365
9.35278,76284
9.36212,153143
9.37147,244944
9.38080,244181
9.39013,159883
9.39948,86208
9.40882,55227
9.41817,45167
9.42750,44265
9.43683,38511
9.44618,30955
9.45552,26711
9.46485,21386
9.47420,22548
9.48353,24462
9.49287,29869
9.50222,33482
9.51155,28427
9.52088,27194
9.53023,28071
9.53957,30803
9.54890,37470
9.55825,52761
9.56758,68710
9.57692,65562
9.58627,47693
9.59560,43142
9.60495,46022
9.61428,42188
9.62362,36917
9.63297,31227
9.64230,28743
9.65163,27087
9.66098,25726
9.67032,26656
9.67965,26391
9.68900,25914
9.69833,23917
9.70767,22859
9.71702,40737
9.72635,167516
9.73568,641579
9.74503,1334872
9.75437,1524422
9.76370,1003256
9.77305,437202
9.78238,184385
9.79173,108882
9.80107,80319
9.81040,67864
9.81975,67443
9.82908,72968
9.83842,90846
9.84777,103992
9.85710,93679
9.86643,74043
9.87578,75197
9.88512,97753
9.89445,110740
9.90380,119052
9.91313,148811
9.92247,161086
9.93182,116565
9.94115,70604
9.95050,44824
9.95983,36420
9.96917,40239
9.97852,63082
9.98785,99243
9.99718,110900
10.00653,87694
10.01587,56100
10.02520,41730
10.03455,36518
10.04388,35741
10.05322,36862
10.06257,41282
10.07190,52502
10.08123,54784
10.09058,48541
10.09992,43292
10.10925,55262
10.11860,135225
10.12793,280568
10.13728,362122
10.14662,479278
10.15595,1272301
10.16530,2613320
10.17463,2852562
10.18397,1447216
10.19332,372894
10.20265,80546
10.21198,43596
10.22133,39935
10.23067,47113
10.24000,59164
10.24935,60281
10.25868,47119
10.26802,35254
10.27737,31085
10.28670,32327
10.29603,34228
10.30538,34359
10.31472,32920
10.32407,30321
10.33340,28930
10.34273,29316
10.35208,28613
10.36142,30371
10.37075,29758
10.38010,28000
10.38943,26453
10.39877,24737
10.40812,25970
10.41745,25930
10.42678,27887
10.43613,42064
10.44547,88797
10.45480,179685
10.46415,250595
10.47348,202605
10.48282,109658
10.49217,49902
10.50150,30290
10.51085,25760
10.52018,26361
10.52952,26769
10.53887,27489
10.54820,29281
10.55753,28856
10.56688,27423
10.57622,27177
10.58555,29226
10.59490,27636
10.60423,27050
10.61357,24954
10.62292,27154
10.63225,29763
10.64158,33542
10.65093,29410
10.66027,26591
10.66962,27506
10.67895,29959
10.68828,30770
10.69763,32178
10.70697,33003
10.71630,41555
10.72565,45563
10.73498,39639
10.74432,37147
10.75367,47881
10.76300,62255
10.77233,62524
10.78168,80948
10.79102,222257
10.80035,527058
10.80970,713989
10.81903,515714
10.82837,225278
10.83772,75775
10.84705,36791
10.85640,31143
10.86573,36330
10.87507,49445
10.88442,54948
10.89375,46809
10.90308,37420
10.91243,29116
10.92177,30858
10.93110,33499
10.94045,32662
10.94978,29911
10.95912,27084
10.96847,27698
10.97780,26338
10.98713,24682
10.99648,23938
11.00582,24371
11.01515,24518
11.02450,24509
11.03383,24295
11.04318,25073
11.05252,24718
11.06185,23872
11.07120,22598
11.08053,23116
11.08987,24694
11.09922,29708
11.10855,38475
11.11788,43977
11.12723,37827
11.13657,30118
11.14590,29059
11.15525,25877
11.16458,26734
11.17392,25397
11.18327,23553
11.19260,21589
11.20193,21633
11.21128,24704
11.22062,25596
11.22997,26022
11.23930,25884
11.24863,25459
11.25798,26339
11.26732,29675
11.27665,29247
11.28600,26390
11.29533,26099
11.30467,27637
11.31402,27289
11.32335,30830
11.33268,34572
11.34203,48134
11.35137,67849
11.36070,76769
11.37005,68327
11.37938,44460
11.38872,34260
11.39807,33476
11.40740,38068
11.41675,37824
11.42608,34587
11.43542,31289
11.44477,29596
11.45410,33367
11.46343,44524
11.47278,56857
11.48212,53162
11.49145,34829
11.50080,29606
11.51013,26401
11.51947,25203
11.52882,24709
11.53815,26840
11.54748,30157
11.55683,50666
11.56617,95875
11.57552,136350
11.58485,133931
11.59418,95789
11.60353,64499
11.61287,50770
11.62220,47229
11.63155,43216
11.64088,42300
11.65022,39278
11.65957,38092
11.66890,37534
11.67823,36427
11.68758,31355
11.69692,29756
11.70625,31492
11.71560,32905
11.72493,32974
11.73427,32256
11.74362,31913
11.75295,32057
11.76230,32181
11.77163,32369
11.78097,34841
11.79032,39534
11.79965,39956
11.80898,36160
11.81833,33074
11.82767,34887
11.83700,34256
11.84635,33167
11.85568,33279
11.86502,34278
11.87437,39016
11.88370,40418
11.89303,36798
11.90238,30543
11.91172,28620
11.92105,26394
11.93040,27210
11.93973,34685
11.94908,36063
11.95842,35587
11.96775,30167
11.97710,29061
11.98643,28435
11.99577,29123
12.00512,36975
12.01445,51325
12.02378,54124
12.03313,46564
12.04247,37994
12.05180,33500
12.06115,29501
12.07048,25994
12.07982,25209
12.08917,27419
12.09850,29815
12.10783,33334
12.11718,31066
12.12652,29895
12.13587,29729
12.14520,29095
12.15453,32486
12.16388,42741
12.17322,70376
12.18255,89792
12.19190,73540
12.20123,47443
12.21057,38878
12.21992,39864
12.22925,47603
12.23858,53945
12.24793,46422
12.25727,43229
12.26660,66432
12.27595,124149
12.28528,157925
12.29463,118180
12.30397,65442
12.31330,41223
12.32265,35060
12.33198,37712
12.34132,42125
12.35067,39108
12.36000,35185
12.36933,30734
12.37868,31480
12.38802,32944
12.39735,32207
12.40670,32476
12.41603,33481
12.42537,34343
12.43472,33536
12.44405,33909
12.45338,32280
12.46273,36432
12.47207,37873
12.48142,38460
12.49075,38980
12.50008,43140
12.50943,42155
12.51877,40812
12.52810,38306
12.53745,35912
12.54678,33907
12.55612,38071
12.56547,43226
12.57480,48236
12.58413,45405
12.59348,35723
12.60282,31670
12.61215,31121
12.62150,34530
12.63083,40138
12.64017,45498
12.64952,45835
12.65885,44986
12.66820,39800
12.67753,35147
12.68687,29410
12.69622,29265
12.70555,29832
12.71488,33419
12.72423,34975
12.73357,35110
12.74290,37043
12.75225,37743
12.76158,39902
12.77092,35725
12.78027,33692
12.78960,32336
12.79893,31043
12.80828,32912
12.81762,29782
12.82695,30698
12.83630,31355
12.84563,30977
12.85498,27588
12.86432,27833
12.87365,28049
12.88300,27013
12.89233,31399
12.90167,33165
12.91102,31422
12.92035,27372
12.92968,25277
12.93903,28095
12.94837,29885
12.95770,29768
12.96705,27542
12.97638,26083
12.98572,26383
12.99507,27027
13.00440,27106
13.01373,26860
13.02308,30794
13.03242,38433
13.04177,41044
13.05110,35687
13.06043,30280
13.06978,29436
13.07912,33390
13.08845,32703
13.09780,32364
13.10713,30528
13.11647,28875
13.12582,31065
13.13515,35632
13.14448,45195
13.15383,64564
13.16317,97524
13.17250,110448
13.18185,91018
13.19118,79669
13.20052,133308
13.20987,251341
13.21920,321626
13.22855,231563
13.23788,124174
13.24722,97629
13.25657,94174
13.26590,74476
13.27523,62737
13.28458,59798
13.29392,51861
13.30325,43508
13.31260,43512
13.32193,44211
13.33127,45553
13.34062,44552
13.34995,40335
13.35928,40084
13.36863,34890
13.37797,33512
13.38732,36063
13.39665,40486
13.40598,43613
13.41533,38261
13.42467,34590
13.43400,37973
13.44335,40484
13.45268,42258
13.46202,39059
13.47137,37577
13.48070,39740
13.49003,36228
13.49938,33844
13.50872,35838
13.51805,60500
13.52740,98013
13.53673,104106
13.54607,74069
13.55542,43803
13.56475,32225
13.57410,28429
13.58343,27853
13.59277,24272
13.60212,23617
13.61145,25668
13.62078,26043
13.63013,29785
13.63947,38143
13.64880,48092
13.65815,48819
13.66748,37930
13.67682,32114
13.68617,27968
13.69550,27047
13.70483,27257
13.71418,26423
13.72352,24631
13.73285,23136
13.74220,25619
13.75153,25059
13.76088,25795
13.77022,25588
13.77955,27127
13.78890,28901
13.79823,32668
13.80757,35626
13.81692,33972
13.82625,30078
13.83558,25396
13.84493,27191
13.85427,27639
13.86360,30844
13.87295,33843
13.88228,43362
13.89162,60705
13.90097,102663
13.91030,180567
13.91963,260660
13.92898,247577
13.93832,143006
13.94767,62755
13.95700,45683
13.96633,39899
13.97568,34854
13.98502,32277
13.99435,33974
14.00370,32063
14.01303,29756
14.02237,28808
14.03172,29809
14.04105,77822
14.05038,508277
14.05973,2300532
14.06907,5579476
14.07840,7463521
14.08775,4748899
14.09708,1433417
14.10643,227348
14.11577,55353
14.12510,40316
14.13445,36031
14.14378,36712
14.15312,39553
14.16247,40280
14.17180,42072
14.18113,46291
14.19048,63792
14.19982,75042
14.20915,64662
14.21850,41156
14.22783,27989
14.23717,25327
14.24652,23426
14.25585,24280
14.26518,25560
14.27453,25906
14.28387,25149
14.29322,24342
14.30255,24672
14.31188,25727
14.32123,33188
14.33057,42138
14.33990,42778
14.34925,35205
14.35858,29214
14.36792,26421
14.37727,25377
14.38660,24280
14.39593,24592
14.40528,24893
14.41462,23586
14.42395,21491
14.43330,24664
14.44263,25097
14.45197,31843
14.46132,37451
14.47065,40712
14.48000,36923
14.48933,31411
14.49867,27192
14.50802,24995
14.51735,23082
14.52668,23066
14.53603,24019
14.54537,26779
14.55470,27709
14.56405,28683
14.57338,28903
14.58272,26938
14.59207,24755
14.60140,22381
14.61073,23343
14.62008,26360
14.62942,37644
14.63875,59797
14.64810,92571
14.65743,110385
14.66678,92531
14.67612,60517
14.68545,36685
14.69480,29992
14.70413,28439
14.71347,26782
14.72282,27430
14.73215,28617
14.74148,29647
14.75083,31362
14.76017,30322
14.76950,31748
14.77885,35227
14.78818,32229
14.79752,29507
14.80687,27050
14.81620,26933
14.82553,27607
14.83488,27183
14.84422,25406
14.85357,26435
14.86290,29945
14.87223,40734
14.88158,44228
14.89092,40526
14.90025,33696
14.90960,28672
14.91893,27073
14.92827,28666
14.93762,27369
14.94695,24352
14.95628,26047
14.96563,26853
14.97497,29308
14.98430,28905
14.99365,28381
15.00298,31860
15.01233,36812
15.02167,34134
15.03100,30168
15.04035,29008
15.04968,31119
15.05902,31626
15.06837,31744
15.07770,30411
15.08703,26051
15.09638,24794
15.10572,23939
15.11505,26444
15.12440,31194
15.13373,35470
15.14307,35432
15.15242,29005
15.16175,26840
15.17108,24949
15.18043,29042
15.18977,32255
15.19912,43150
15.20845,60549
15.21778,77065
15.22713,72444
15.23647,58531
15.24580,43358
15.25515,33384
15.26448,29961
15.27382,29490
15.28317,28102
15.29250,28160
15.30183,26377
15.31118,26852
15.32052,28743
15.32985,31005
15.33920,34197
15.34853,33338
15.35787,32130
15.36722,37213
15.37655,39232
15.38590,38017
15.39523,29979
15.40457,24861
15.41392,28326
15.42325,32464
15.43258,33670
15.44193,33148
15.45127,29598
15.46060,26526
15.46995,27477
15.47928,27249
15.48862,28538
15.49797,32244
15.50730,49983
15.51663,77120
15.52598,88222
15.53532,72918
15.54465,46583
15.55400,33459
15.56333,26282
15.57268,25553
15.58202,24332
15.59135,25079
15.60070,25805
15.61003,27633
15.61937,29458
15.62872,31557
15.63805,34404
15.64738,34701
15.65673,37564
15.66607,40641
15.67540,41445
15.68475,35182
15.69408,36304
15.70342,42876
15.71277,47617
15.72210,40383
15.73145,33188
15.74078,32447
15.75012,39696
15.75947,46313
15.76880,49242
15.77813,43379
15.78748,37749
15.79682,37348
15.80615,64642
15.81550,162432
15.82483,328558
15.83417,458924
15.84352,449095
15.85285,305854
15.86218,153832
15.87153,76662
15.88087,56665
15.89020,63969
15.89955,71868
15.90888,68617
15.91823,54037
15.92757,42782
15.93690,35650
15.94625,31753
15.95558,32468
15.96492,38557
15.97427,50802
15.98360,64320
15.99293,72621
16.00228,65925
16.01162,50046
16.02095,36894
16.03030,32944
16.03963,32156
16.04897,32116
16.05832,34299
16.06765,34742
16.07698,32103
16.08633,30370
16.09567,31468
16.10502,34179
16.11435,42809
16.12368,51559
16.13303,48410
16.14237,42893
16.15170,35639
16.16105,36146
16.17038,33465
16.17972,35203
16.18907,33853
16.19840,35775
16.20773,42371
16.21708,47170
16.22642,47431
16.23575,42326
16.24510,41067
16.25443,41602
16.26377,43422
16.27312,58452
16.28245,101113
16.29180,202807
16.30113,303497
16.31047,275847
16.31982,154840
16.32915,65965
16.33848,38919
16.34783,32635
16.35717,27240
16.36650,24242
16.37585,24848
16.38518,24279
16.39452,27680
16.40387,27672
16.41320,27810
16.42253,29062
16.43188,27830
16.44122,30700
16.45055,34986
16.45990,42907
16.46923,44548
16.47858,44136
16.48792,44102
16.49725,43128
16.50660,39402
16.51593,37904
16.52527,37181
16.53462,34948
16.54395,32163
16.55328,30463
16.56263,28971
16.57197,29735
16.58130,34830
16.59065,35215
16.59998,34002
16.60932,30190
16.61867,33217
16.62800,40031
16.63733,43660
16.64668,43415
16.65602,37885
16.66537,33212
16.67470,30588
16.68403,36298
16.69338,43229
16.70272,47461
16.71205,45326
16.72140,33538
16.73073,33441
16.74007,50787
16.74942,88635
16.75875,108488
16.76808,78945
16.77743,45030
16.78677,32075
16.79610,30721
16.80545,32131
16.81478,38318
16.82413,39178
16.83347,43947
16.84280,44018
16.85215,37757
16.86148,35324
16.87082,30855
16.88017,30494
16.88950,31693
16.89883,34228
16.90818,39622
16.91752,50126
16.92685,49895
16.93620,42220
16.94553,41739
16.95487,43989
16.96422,51448
16.97355,49724
16.98288,42567
16.99223,35299
17.00157,32112
17.01092,33898
17.02025,39704
17.02958,63237
17.03893,83522
17.04827,74431
17.05760,50696
17.06695,36264
17.07628,33697
17.08562,33491
17.09497,33444
17.10430,30949
17.11363,30099
17.12298,31721
17.13232,35581
17.14165,41812
17.15100,37931
17.16033,31292
17.16967,28690
17.17902,27360
17.18835,28079
17.19770,28745
17.20703,27900
17.21637,25793
17.22572,26897
17.23505,25971
17.24438,26705
17.25373,27000
17.26307,30464
17.27240,33114
17.28175,39468
17.29108,40981
17.30042,40502
17.30977,38017
17.31910,41708
17.32843,44500
17.33778,40688
17.34712,33497
17.35645,32375
17.36580,36395
17.37513,72761
17.38448,147504
17.39382,185207
17.40315,137298
17.41250,74514
17.42183,42454
17.43117,36703
17.44052,37059
17.44985,36987
17.45918,40080
17.46853,36282
17.47787,38821
17.48720,86548
17.49655,413048
17.50588,1496148
17.51522,2878562
17.52457,2832970
17.53390,1341674
17.54325,339691
17.55258,73103
17.56192,44764
17.57127,43266
17.58060,47903
17.58993,49617
17.59928,43500
17.60862,37991
17.61795,34786
17.62730,34464
17.63663,35047
17.64597,36453
17.65532,39018
17.66465,44915
17.67398,49238
17.68333,50810
17.69267,53708
17.70200,52859
17.71135,47748
17.72068,42043
17.73003,39295
17.73937,37281
17.74870,39973
17.75805,45376
17.76738,47418
17.77672,47681
17.78607,44374
17.79540,40896
17.80473,40037
17.81408,35347
17.82342,32039
17.83275,30264
17.84210,31736
17.85143,36428
17.86077,46596
17.87012,51001
17.87945,47582
17.88878,42300
17.89813,37774
17.90747,34213
17.91682,31412
17.92615,30539
17.93548,32163
17.94483,32200
17.95417,31182
17.96350,31458
17.97285,31181
17.98218,31126
17.99152,29862
18.00087,31700
18.01020,33084
18.01953,33793
18.02888,32358
18.03822,31636
18.04755,34985
18.05690,40447
18.06623,38304
18.07557,33046
18.08492,29674
18.09425,28999
18.10360,31307
18.11293,35277
18.12227,37354
18.13162,36104
18.14095,37267
18.15028,35734
18.15963,36014
18.16897,35168
18.17830,35538
18.18765,34048
18.19698,31630
18.20632,30477
18.21567,31943
18.22500,31735
18.23433,33320
18.24368,32755
18.25302,31055
18.26235,30210
18.27170,35034
18.28103,40100
18.29038,44123
18.29972,47584
18.30905,48521
18.31840,47198
18.32773,43028
18.33707,47828
18.34642,52295
18.35575,56648
18.36508,57892
18.37443,50877
18.38377,50430
18.39310,54316
18.40245,62760
18.41178,67202
18.42112,55919
18.43047,45498
18.43980,43954
18.44915,50114
18.45848,48251
18.46782,41329
18.47717,38713
18.48650,40959
18.49583,53660
18.50518,71414
18.51452,77437
18.52385,74446
18.53320,60857
18.54253,52350
18.55187,50016
18.56122,49879
18.57055,45172
18.57988,42303
18.58923,37791
18.59857,40493
18.60790,44035
18.61725,49012
18.62658,50560
18.63593,47307
18.64527,49991
18.65460,47389
18.66395,44086
18.67328,41326
18.68262,38477
18.69197,39216
18.70130,40744
18.71063,43226
18.71998,46715
18.72932,45659
18.73865,44467
18.74800,44011
18.75733,40619
18.76667,36455
18.77602,33051
18.78535,31983
18.79468,32848
18.80403,34246
18.81337,37626
18.82272,40758
18.83205,40070
18.84138,36555
18.85073,35185
18.86007,31749
18.86940,32931
18.87875,32926
18.88808,32564
18.89742,32909
18.90677,40644
18.91610,48772
18.92543,50351
18.93478,47786
18.94412,47444
18.95345,52425
18.96280,56944
18.97213,60363
18.98147,53946
18.99082,46685
19.00015,41471
19.00950,40814
19.01883,38277
19.02817,37628
19.03752,46258
19.04685,73078
19.05618,105395
19.06553,132209
19.07487,155468
19.08420,197398
19.09355,182198
19.10288,121812
19.11222,71614
19.12157,44561
19.13090,38167
19.14023,33653
19.14958,31017
19.15892,30278
19.16825,30541
19.17760,32211
19.18693,37010
19.19628,42895
19.20562,47829
19.21495,48183
19.22430,45933
19.23363,43565
19.24297,38744
19.25232,37579
19.26165,36673
19.27098,39250
19.28033,46924
19.28967,49372
19.29900,55231
19.30835,68376
19.31768,85630
19.32702,83899
19.33637,64036
19.34570,46059
19.35505,38809
19.36438,34603
19.37372,33336
19.38307,34268
19.39240,36522
19.40173,41821
19.41108,41318
19.42042,37153
19.42975,32452
19.43910,31525
19.44843,31242
19.45777,34879
19.46712,37635
19.47645,42591
19.48578,46464
19.49513,50592
19.50447,50038
19.51380,42371
19.52315,37733
19.53248,38924
19.54183,38067
19.55117,37166
19.56050,36329
19.56985,40015
19.57918,42975
19.58852,47422
19.59787,46320
19.60720,42754
19.61653,41720
19.62588,44982
19.63522,52158
19.64455,54832
19.65390,47802
19.66323,40464
19.67257,38861
19.68192,41712
19.69125,42985
19.70058,42412
19.70993,45127
19.71927,57267
19.72862,80239
19.73795,92371
19.74728,82331
19.75663,59007
19.76597,48561
19.77530,52359
19.78465,51813
19.79398,48853
19.80332,43903
19.81267,38798
19.82200,39678
19.83133,38663
19.84068,37150
19.85002,35116
19.85935,38506
19.86870,50349
19.87803,69206
19.88737,77046
19.89672,62288
19.90605,49625
19.91540,46580
19.92473,41385
19.93407,40615
19.94342,46454
19.95275,64445
19.96208,95835
19.97143,126633
19.98077,122111
19.99010,87429
19.99945,62105
20.00878,55100
20.01812,55917
20.02747,55856
20.03680,56795
20.04613,55456
20.05548,53274
20.06482,52158
20.07415,53184
20.08350,49895
20.09283,47051
20.10218,43507
20.11152,38192
20.12085,35956
20.13020,34274
20.13953,38975
20.14887,49333
20.15822,54788
20.16755,53632
20.17688,48121
20.18623,42424
20.19557,37349
20.20490,37126
20.21425,40898
20.22358,40156
20.23292,38844
20.24227,35967
20.25160,36031
20.26095,35369
20.27028,34815
20.27962,37615
20.28897,38949
20.29830,38106
20.30763,34494
20.31698,34354
20.32632,33194
20.33565,33584
20.34500,32396
20.35433,35633
20.36367,39409
20.37302,38238
20.38235,35513
20.39168,35199
20.40103,33764
20.41037,32576
20.41970,34808
20.42905,36143
20.43838,34776
20.44773,35407
20.45707,36818
20.46640,42721
20.47575,50281
20.48508,48727
20.49442,40881
20.50377,34422
20.51310,33308
20.52243,34100
20.53178,35497
20.54112,37123
20.55045,42105
20.55980,68123
20.56913,162757
20.57847,286017
20.58782,284380
20.59715,172023
20.60648,74206
20.61583,45112
20.62517,40688
20.63452,43239
20.64385,49017
20.65318,52369
20.66253,45893
20.67187,39938
20.68120,37875
20.69055,39370
20.69988,38090
20.70922,37741
20.71857,38617
20.72790,39617
20.73723,38864
20.74658,37958
20.75592,36319
20.76525,35224
20.77460,34450
20.78393,37860
20.79327,39521
20.80262,43199
20.81195,42385
20.82130,40870
20.83063,36590
20.83997,34242
20.84932,33828
20.85865,34560
20.86798,32041
20.87733,33877
20.88667,35583
20.89600,36619
20.90535,39491
20.91468,38115
20.92402,34977
20.93337,33679
20.94270,31556
20.95203,32651
20.96138,31022
20.97072,31300
20.98007,30493
20.98940,31565
20.99873,30429
21.00808,32970
21.01742,32328
21.02675,33191
21.03610,32494
21.04543,31214
21.05477,32087
21.06412,34259
21.07345,32722
21.08278,33867
21.09213,33187
21.10147,35760
21.11080,37143
21.12015,37047
21.12948,36814
21.13882,37330
21.14817,34552
21.15750,35457
21.16685,41190
21.17618,53734
21.18552,63094
21.19487,62601
21.20420,50255
21.21353,39246
21.22288,35460
21.23222,34949
21.24155,34674
21.25090,34145
21.26023,34345
21.26957,40354
21.27892,43748
21.28825,51265
21.29758,48097
21.30693,41959
21.31627,38829
21.32560,34499
21.33495,33599
21.34428,33584
21.35363,36946
21.36297,34963
21.37230,33307
21.38165,34734
21.39098,35927
21.40032,36230
21.40967,38724
21.41900,41093
21.42833,39293
21.43768,38109
21.44702,35057
21.45635,34491
21.46570,34432
21.47503,36592
21.48437,38860
21.49372,39801
21.50305,38846
21.51238,37147
21.52173,36078
21.53107,35169
21.54042,33057
21.54975,35398
21.55908,44403
21.56843,55638
21.57777,62305
21.58710,56211
21.59645,46228
21.60578,38741
21.61512,40035
21.62447,36676
21.63380,39034
21.64313,36570
21.65248,34758
21.66182,36121
21.67115,39451
21.68050,44215
21.68983,46430
21.69917,44033
21.70852,40033
21.71785,44137
21.72720,45662
21.73653,44695
21.74587,39779
21.75522,36238
21.76455,32711
21.77388,35104
21.78323,35052
21.79257,35820
21.80190,39850
21.81125,46035
21.82058,47841
21.82992,47367
21.83927,42994
21.84860,38645
21.85793,36481
21.86728,36374
21.87662,39397
21.88595,44802
21.89530,47527
21.90463,45958
21.91398,40498
21.92332,38329
21.93265,35980
21.94200,37221
21.95133,36172
21.96067,41820
21.97002,46078
21.97935,53491
21.98868,58367
21.99803,61099
22.00737,52945
22.01670,45040
22.02605,41573
22.03538,44407
22.04472,49049
22.05407,48026
22.06340,46342
22.07275,46791
22.08208,46751
22.09142,45077
22.10077,41759
22.11010,40483
22.11943,39847
22.12878,37805
22.13812,38477
22.14745,43460
22.15680,51663
22.16613,62651
22.17547,69179
22.18482,60732
22.19415,49078
22.20348,42295
22.21283,42592
22.22217,45620
22.23150,45654
22.24085,47431
22.25018,44306
22.25953,42914
22.26887,45732
22.27820,55231
22.28755,62552
22.29688,65504
22.30622,57904
22.31557,48002
22.32490,39852
22.33423,39357
22.34358,42308
22.35292,47307
22.36225,52576
22.37160,54798
22.38093,49271
22.39027,49038
22.39962,44840
22.40895,41265
22.41828,39687
22.42763,41494
22.43697,43488
22.44632,44887
22.45565,46563
22.46498,42751
22.47433,41755
22.48367,42178
22.49300,39516
22.50235,37054
22.51168,39377
22.52102,38493
22.53037,38143
22.53970,36553
22.54903,38367
22.55838,39764
22.56772,44608
22.57705,46957
22.58640,49897
22.59573,49603
22.60507,52690
22.61442,53199
22.62375,52743
22.63310,48195
22.64243,45239
22.65177,38426
22.66112,36450
22.67045,37182
22.67978,41766
22.68913,49304
22.69847,48855
22.70780,49488
22.71715,44963
22.72648,46912
22.73582,55317
22.74517,60399
22.75450,63906
22.76383,63650
22.77318,55142
22.78252,47862
22.79187,45890
22.80120,49966
22.81053,54086
22.81988,51664
22.82922,47805
22.83855,46498
22.84790,44252
22.85723,43190
22.86657,41665
22.87592,43351
22.88525,43865
22.89458,43101
22.90393,43059
22.91327,46366
22.92260,46440
22.93195,47431
22.94128,45658
22.95062,42810
22.95997,42656
22.96930,42353
22.97865,37467
22.98798,35819
22.99732,36868
23.00667,37647
23.01600,36975
23.02533,36237
23.03468,38122
23.04402,39399
23.05335,40386
23.06270,38131
23.07203,38500
23.08137,39035
23.09072,37666
23.10005,37161
23.10938,33997
23.11873,34988
23.12807,35504
23.13740,36306
23.14675,38575
23.15608,36966
23.16543,37052
23.17477,35574
23.18410,38693
23.19345,35057
23.20278,36005
23.21212,35242
23.22147,34555
23.23080,36256
23.24013,43853
23.24948,48768
23.25882,52186
23.26815,53985
23.27750,49369
23.28683,43770
23.29617,39872
23.30552,38516
23.31485,39333
23.32418,47031
23.33353,55692
23.34287,57252
23.35222,49769
23.36155,42440
23.37088,37064
23.38023,38022
23.38957,38229
23.39890,39276
23.40825,39728
23.41758,39257
23.42692,39369
23.43627,40568
23.44560,40216
23.45493,40560
23.46428,40419
23.47362,40511
23.48295,38620
23.49230,37636
23.50163,37446
23.51097,36941
23.52032,36269
23.52965,38585
23.53900,37786
23.54833,37124
23.55767,36939
23.56702,36895
23.57635,37171
23.58568,40892
23.59503,39679
23.60437,37747
23.61370,36622
23.62305,34302
23.63238,33886
23.64172,34215
23.65107,35533
23.66040,36137
23.66973,34770
23.67908,38120
23.68842,40477
23.69777,40802
23.70710,42074
23.71643,41208
23.72578,43815
23.73512,43162
23.74445,41166
23.75380,38247
23.76313,35507
23.77247,33621
23.78182,35987
23.79115,34201
23.80048,32989
23.80983,34981
23.81917,32956
23.82850,32960
23.83785,35651
23.84718,33899
23.85652,32642
23.86587,34700
23.87520,33869
23.88455,35397
23.89388,37682
23.90322,36178
23.91257,37095
23.92190,36705
23.93123,36369
23.94058,36091
23.94992,37616
23.95925,37462
23.96860,34620
23.97793,36289
23.98727,34767
23.99662,35340
24.00595,37510
24.01528,38180
24.02463,36050
24.03397,37802
24.04330,33624
24.05265,33172
24.06198,36133
24.07133,36219
24.08067,35358
24.09000,36185
24.09935,36711
24.10868,35974
24.11802,34245
24.12737,33311
24.13670,34644
24.14603,34787
24.15538,35693
24.16472,36476
24.17405,36535
24.18340,37332
24.19273,35157
24.20207,35153
24.21142,34701
24.22075,34220
24.23008,38810
24.23943,36768
24.24877,36683
24.25812,38486
24.26745,36896
24.27678,37111
24.28613,36387
24.29547,36684
24.30480,35516
24.31415,38807
24.32348,39315
24.33282,39696
24.34217,37288
24.35150,36693
24.36083,37220
24.37018,35469
24.37952,35840
24.38885,39186
24.39820,35599
24.40753,35999
24.41688,36759
24.42622,37051
24.43555,34097
24.44490,37042
24.45423,35672
24.46357,36307
24.47292,36988
24.48225,37165
24.49158,37362
24.50093,38256
24.51027,37097
24.51960,37279
24.52895,36630
24.53828,38787
24.54762,39278
24.55697,38190
24.56630,38409
24.57563,38719
24.58498,36942
24.59432,36844
24.60367,38324
24.61300,38211
24.62233,39471
24.63168,38564
24.64102,34085
24.65035,38178
24.65970,40463
24.66903,43853
24.67837,39774
24.68772,37301
24.69705,37511
24.70638,36195
24.71573,36545
24.72507,38192
24.73440,36197
24.74375,35262
24.75308,37157
24.76242,35322
24.77177,36490
24.78110,33624
24.79045,35830
24.79978,35946
24.80912,35503
24.81847,36260
24.82780,35261
24.83713,37263
24.84648,36501
24.85582,36298
24.86515,37080
24.87450,37619
24.88383,38261
24.89317,38392
24.90252,38773
24.91185,37808
24.92118,37423
24.93053,38481
24.93987,38919
24.94920,38520
24.95855,39199
24.96788,41259
24.97723,39189
24.98657,38935
24.99590,38304
25.00525,36929
25.01458,35894
25.02392,37223
25.03327,36258
25.04260,36023
25.05193,35533
25.06128,36018
25.07062,37561
25.07995,37380
25.08930,38390
25.09863,38602
25.10797,37347
25.11732,36847
25.12665,37976
25.13598,41224
25.14533,42560
25.15467,42350
25.16402,40538
25.17335,38505
25.18268,38326
25.19203,39769
25.20137,40690
25.21070,39824
25.22005,39130
25.22938,38312
25.23872,37582
25.24807,39946
25.25740,43362
25.26673,44868
25.27608,45659
25.28542,45910
25.29475,45893
25.30410,47681
25.31343,58894
25.32278,90938
25.33212,128027
25.34145,141669
25.35080,112376
25.36013,85433
25.36947,70667
25.37882,63706
25.38815,58624
25.39748,60381
25.40683,57868
25.41617,55874
25.42550,55988
25.43485,57049
25.44418,56689
25.45352,59718
25.46287,60569
25.47220,64768
25.48153,69690
25.49088,72866
25.50022,71168
25.50957,70080
25.51890,69336
25.52823,67994
25.53758,66814
25.54692,68192
25.55625,66593
25.56560,65981
25.57493,60650
25.58427,62856
25.59362,60147
25.60295,57972
25.61228,57403
25.62163,57057
25.63097,56026
25.64030,58216
25.64965,58884
25.65898,57884
25.66832,58539
25.67767,55146
25.68700,52027
25.69635,51776
25.70568,54931
25.71502,51336
25.72437,52932
25.73370,54977
25.74303,55390
25.75238,54581
25.76172,53458
25.77105,54198
25.78040,51202
25.78973,51298
25.79907,52859
25.80842,54305
25.81775,54332
25.82708,53472
25.83643,55007
25.84577,50738
25.85510,50073
25.86445,48437
25.87378,48753
25.88313,47038
25.89247,47870
25.90180,45095
25.91115,48586
25.92048,49192
25.92982,49757
25.93917,48183
25.94850,52141
25.95783,52668
25.96718,51906
25.97652,49839
25.98585,47372
25.99520,47885
26.00453,46650
26.01387,49645
26.02322,47338
26.03255,46758
26.04190,49281
26.05123,48313
26.06057,48125
26.06992,47192
26.07925,47936
26.08858,48454
26.09793,48311
26.10727,47475
26.11660,49145
26.12595,50771
26.13528,53832
26.14462,57651
26.15397,56576
26.16330,53395
26.17263,50541
26.18198,47623
26.19132,48005
26.20065,47735
26.21000,45083
26.21933,46923
26.22868,44664
26.23802,46637
26.24735,45494
26.25670,47306
26.26603,45271
26.27537,44216
26.28472,47454
26.29405,46271
26.30338,46755
26.31273,46954
26.32207,47736
26.33140,48486
26.34075,48155
26.35008,47856
26.35942,47158
26.36877,47606
26.37810,44760
26.38743,48041
26.39678,48657
26.40612,48174
26.41547,46748
26.42480,47449
26.43413,48590
26.44348,50512
26.45282,53477
26.46215,57274
26.47150,54714
26.48083,55296
26.49017,53628
26.49952,54122
26.50885,55334
26.51818,59104
26.52753,62942
26.53687,68241
26.54620,72947
26.55555,72123
26.56488,65485
26.57422,65554
26.58357,65456
26.59290,67129
26.60225,67119
26.61158,69053
26.62092,66659
26.63027,66206
26.63960,64832
26.64893,64094
26.65828,64247
26.66762,63633
26.67695,64413
26.68630,62940
26.69563,60808
26.70497,59710
26.71432,60553
26.72365,59632
26.73298,59583
26.74233,59190
26.75167,60453
26.76100,61902
26.77035,63244
26.77968,65015
26.78903,65159
26.79837,64655
26.80770,63380
26.81705,62301
26.82638,62017
26.83572,61925
26.84507,62911
26.85440,61596
26.86373,64252
26.87308,61511
26.88242,61710
26.89175,57060
26.90110,56432
26.91043,57730
26.91977,53888
26.92912,55424
26.93845,55330
26.94778,55546
26.95713,54971
26.96647,57034
26.97582,56713
26.98515,56335
26.99448,56399
27.00383,58187
27.01317,57223
27.02250,57826
27.03185,58901
27.04118,60291
27.05052,59945
27.05987,61672
27.06920,61750
27.07853,60874
27.08788,60256
27.09722,57585
27.10655,56090
27.11590,57655
27.12523,59744
27.13458,63843
27.14392,64394
27.15325,63838
27.16260,59545
27.17193,59864
27.18127,54940
27.19062,54197
27.19995,54786
27.20928,55885
27.21863,55052
27.22797,56912
27.23730,57860
27.24665,62019
27.25598,65863
27.26532,64826
27.27467,61538
27.28400,57755
27.29333,55072
27.30268,55902
27.31202,54772
27.32137,52523
27.33070,53401
27.34003,54304
27.34938,53958
27.35872,53443
27.36805,57717
27.37740,61993
27.38673,63068
27.39607,59798
27.40542,57577
27.41475,59127
27.42408,64374
27.43343,66177
27.44277,65225
27.45210,61953
27.46145,60720
27.47078,57987
27.48012,59813
27.48947,58066
27.49880,59713
27.50815,60507
27.51748,62933
27.52682,58927
27.53617,60269
27.54550,57696
27.55483,56797
27.56418,55536
27.57352,57296
27.58285,55967
27.59220,55554
27.60153,55807
27.61087,54957
27.62022,56566
27.62955,57235
27.63888,58139
27.64823,60067
27.65757,65529
27.66690,86816
27.67625,116199
27.68558,134637
27.69493,122683
27.70427,92827
27.71360,80064
27.72295,73558
27.73228,69722
27.74162,68944
27.75097,67395
27.76030,66217
27.76963,66572
27.77898,67894
27.78832,65173
27.79765,64123
27.80700,63354
27.81633,63425
27.82567,61202
27.83502,61415
27.84435,63454
27.85370,61827
27.86303,60947
27.87237,59706
27.88172,62499
27.89105,64456
27.90038,63215
27.90973,61531
27.91907,64606
27.92840,67082
27.93775,69346
27.94708,68605
27.95642,67578
27.96577,66446
27.97510,64248
27.98443,66055
27.99378,63551
28.00312,64194
28.01245,63645
28.02180,62083
28.03113,61433
28.04048,62200
28.04982,61956
28.05915,61553
28.06850,63308
28.07783,61931
28.08717,60363
28.09652,60500
28.10585,63659
28.11518,63530
28.12453,65313
28.13387,66505
28.14320,66578
28.15255,66004
28.16188,66739
28.17122,65818
28.18057,64482
28.18990,64440
28.19923,64759
28.20858,67194
28.21792,66785
28.22727,66307
28.23660,64213
28.24593,66313
28.25528,65794
28.26462,62390
28.27395,62977
28.28330,61152
28.29263,63796
28.30197,62702
28.31132,63395
28.32065,61975
28.32998,62135
28.33933,63362
28.34867,63416
28.35800,63786
28.36735,64076
28.37668,64165
28.38602,63552
28.39537,64788
28.40470,64323
28.41405,65609
28.42338,64283
28.43272,66093
28.44207,66395
28.45140,67369
28.46073,67483
28.47008,67777
28.47942,67193
28.48875,67795
28.49810,68569
28.50743,66127
28.51677,64083
28.52612,68306
28.53545,67161
28.54478,67088
28.55413,67278
28.56347,66567
28.57280,71118
28.58215,74249
28.59148,77334
28.60083,78003
28.61017,77037
28.61950,77578
28.62885,72592
28.63818,69807
28.64752,70982
28.65687,78717
28.66620,102678
28.67553,139510
28.68488,160335
28.69422,138869
28.70355,103780
28.71290,84856
28.72223,76182
28.73157,74170
28.74092,72252
28.75025,72711
28.75958,72167
28.76893,70475
28.77827,70766
28.78762,72326
28.79695,71758
28.80628,69840
28.81563,71201
28.82497,71619
28.83430,72725
28.84365,71367
28.85298,72522
28.86232,69447
28.87167,73101
28.88100,73884
28.89033,76249
28.89968,75891
28.90902,80149
28.91835,81704
28.92770,81904
28.93703,83853
28.94638,82808
28.95572,84477
28.96505,87896
28.97440,87208
28.98373,87712
28.99307,85436
29.00242,84251
29.01175,78207
29.02108,82684
29.03043,82218
29.03977,80862
29.04910,78704
29.05845,78277
29.06778,77476
29.07712,80845
29.08647,78677
29.09580,79549
29.10513,76884
29.11448,77161
29.12382,75705
29.13317,76996
29.14250,77172
29.15183,75351
29.16118,75126
29.17052,73981
29.17985,78035
29.18920,79685
29.19853,79945
29.20787,81752
29.21722,81544
29.22655,78706
29.23588,76872
29.24523,76208
29.25457,78488
29.26390,76508
29.27325,78249
29.28258,76286
29.29192,77300
29.30127,77318
29.31060,75549
29.31995,78612
29.32928,74840
29.33862,75430
29.34797,75998
29.35730,76645
29.36663,74486
29.37598,78447
29.38532,76172
29.39465,77584
29.40400,77863
29.41333,74295
29.42267,78488
29.43202,77528
29.44135,79952
29.45068,83251
29.46003,89302
29.46937,94261
29.47870,95811
29.48805,88772
29.49738,84670
29.50673,82461
29.51607,79505
29.52540,78396
29.53475,78646
29.54408,79379
29.55342,79415
29.56277,75665
29.57210,75703
29.58143,75343
29.59078,74863
29.60012,76136
29.60945,77534
29.61880,75365
29.62813,78379
29.63747,77264
29.64682,77164
29.65615,77990
29.66550,76022
29.67483,77915
29.68417,77827
29.69352,77740
29.70285,77805
29.71218,76211
29.72153,81280
29.73087,80498
29.74020,80584
29.74955,81948
29.75888,81660
29.76822,79446
29.77757,76578
29.78690,78849
29.79623,79076
29.80558,75019
29.81492,77307
29.82425,77931
29.83360,77065
29.84293,74388
29.85228,74699
29.86162,74974
29.87095,77501
29.88030,77698
29.88963,76763
29.89897,77195
29.90832,76279
29.91765,81530
29.92698,81766
29.93633,81625
29.94567,82066
29.95500,82509
29.96435,80709
29.97368,89005
29.98302,98023
29.99237,102790
30.00170,105170
30.01103,96464
30.02038,91208
30.02972,89763
30.03907,88985
30.04840,85497
30.05773,86076
30.06708,85301
30.07642,86046
30.08575,85505
30.09510,86536
30.10443,83988
30.11377,83286
30.12312,82461
30.13245,84085
30.14178,81898
30.15113,84211
30.16047,84465
30.16980,84117
30.17915,83382
30.18848,83523
30.19782,81455
30.20717,82366
30.21650,80836
30.22585,83225
30.23518,81678
30.24452,81960
30.25387,83662
30.26320,80815
30.27253,83318
30.28188,83941
30.29122,86361
30.30055,89005
30.30990,87570
30.31923,86520
30.32857,88361
30.33792,86655
30.34725,88098
30.35658,89811
30.36593,89953
30.37527,92448
30.38460,95494
30.39395,99715
30.40328,105725
30.41263,102461
30.42197,101221
30.43130,97362
30.44065,100026
30.44998,99618
30.45932,98817
30.46867,100983
30.47800,102248
30.48733,102039
30.49668,103441
30.50602,101686
30.51535,100726
30.52470,99991
30.53403,99484
30.54337,101514
30.55272,99968
30.56205,102608
30.57138,100804
30.58073,102023
30.59007,102126
30.59942,103443
30.60875,104346
30.61808,108694
30.62743,109885
30.63677,110744
30.64610,117152
30.65545,115555
30.66478,115140
30.67412,110566
30.68347,110001
30.69280,108426
30.70213,107550
30.71148,105509
30.72082,105391
30.73015,101157
30.73950,101520
30.74883,99332
30.75818,99354
30.76752,100847
30.77685,99574
30.78620,99631
30.79553,102317
30.80487,99084
30.81422,99662
30.82355,101384
30.83288,98694
30.84223,99378
30.85157,98077
30.86090,101243
30.87025,98327
30.87958,100041
30.88892,98337
30.89827,99918
30.90760,97025
30.91693,101771
30.92628,98650
30.93562,105059
30.94497,103993
30.95430,103246
30.96363,104974
30.97298,103951
30.98232,102197
30.99165,103120
31.00100,101827
31.01033,101406
31.01967,99873
31.02902,100027
31.03835,97692
31.04768,97612
31.05703,99518
31.06637,98359
31.07570,96746
31.08505,95272
31.09438,94673
31.10372,97483
31.11307,93601
31.12240,94873
31.13175,94666
31.14108,94704
31.15042,92802
31.15977,93535
31.16910,94451
31.17843,94965
31.18778,93585
31.19712,93021
31.20645,91998
31.21580,93683
31.22513,93080
31.23447,91748
31.24382,92906
31.25315,94375
31.26248,94303
31.27183,93932
31.28117,91928
31.29050,91241
31.29985,92341
31.30918,92358
31.31853,93933
31.32787,92004
31.33720,90475
31.34655,93143
31.35588,91630
31.36522,90369
