D:\数据\20220215\LCLN-ZS1E #000377.D Tue Feb 15 22:48:25 2022
Start of data points
0.09760,24985
0.10693,25043
0.11628,26190
0.12562,25341
0.13495,26003
0.14430,25980
0.15363,24842
0.16298,25725
0.17232,24110
0.18165,24294
0.19100,24515
0.20033,23277
0.20967,23462
0.21902,23022
0.22835,23853
0.23768,22037
0.24703,21567
0.25637,21631
0.26570,22868
0.27505,21810
0.28438,22171
0.29372,21899
0.30307,22098
0.31240,22256
0.32173,21869
0.33108,22074
0.34042,21489
0.34977,21164
0.35910,21615
0.36843,21399
0.37778,22280
0.38712,21504
0.39645,21458
0.40580,22283
0.41513,20976
0.42447,20427
0.43382,19545
0.44315,16815
0.45248,16139
0.46183,13524
0.47117,9826
0.48050,7178
0.48985,7737
0.49918,6888
0.50852,7425
0.51787,7463
0.52720,6722
0.53655,6053
0.54588,7088
0.55522,6088
0.56457,6526
0.57390,6846
0.58323,6599
0.59258,6697
0.60192,6544
0.61125,6569
0.62060,6643
0.62993,6643
0.63927,5777
0.64862,6214
0.65795,5746
0.66728,5859
0.67663,6173
0.68597,6360
0.69532,6337
0.70465,5865
0.71398,5794
0.72333,5519
0.73267,5391
0.74200,5522
0.75135,5580
0.76068,5664
0.77002,5673
0.77937,5029
0.78870,5984
0.79803,5436
0.80738,5822
0.81672,6096
0.82605,5820
0.83540,5793
0.84473,5378
0.85407,5259
0.86342,5382
0.87275,5585
0.88210,5973
0.89143,5548
0.90077,5301
0.91012,5561
0.91945,5431
0.92878,5750
0.93813,5293
0.94747,5953
0.95680,5469
0.96615,5331
0.97548,6078
0.98482,5401
0.99417,5410
1.00350,5069
1.01283,5698
1.02218,5554
1.03152,5112
1.04085,6143
1.05020,5401
1.05953,5735
1.06888,5571
1.07822,5214
1.08755,5399
1.09690,5491
1.10623,5228
1.11557,5266
1.12492,5278
1.13425,5280
1.14358,5684
1.15293,5285
1.16227,5490
1.17160,5226
1.18095,5734
1.19028,5447
1.19962,4857
1.20897,5610
1.21830,4977
1.22763,5665
1.23698,5705
1.24632,4883
1.25567,5504
1.26500,5650
1.27433,5235
1.28368,5604
1.29302,5251
1.30235,5466
1.31170,5543
1.32103,5010
1.33037,4847
1.33972,4848
1.34905,5248
1.35838,5481
1.36773,4822
1.37707,5588
1.38640,5075
1.39575,4834
1.40508,4929
1.41442,5008
1.42377,5134
1.43310,5225
1.44245,5621
1.45178,6083
1.46112,4831
1.47047,4725
1.47980,5274
1.48913,4813
1.49848,4907
1.50782,5882
1.51715,4656
1.52650,5073
1.53583,4924
1.54517,5474
1.55452,4902
1.56385,5091
1.57318,4617
1.58253,4344
1.59187,5260
1.60122,5536
1.61055,6954
1.61988,13344
1.62923,17033
1.63857,22495
1.64790,26038
1.65725,36025
1.66658,45362
1.67592,47657
1.68527,43987
1.69460,37441
1.70393,27623
1.71328,22662
1.72262,20901
1.73195,22885
1.74130,22946
1.75063,23617
1.75997,25009
1.76932,26597
1.77865,27070
1.78800,28113
1.79733,28651
1.80667,27641
1.81602,28513
1.82535,28767
1.83468,28186
1.84403,29092
1.85337,28600
1.86270,36568
1.87205,64092
1.88138,127726
1.89072,198822
1.90007,232415
1.90940,241730
1.91873,288512
1.92808,514509
1.93742,1086371
1.94675,1811531
1.95610,2166506
1.96543,1979726
1.97478,1579834
1.98412,1225534
1.99345,993922
2.00280,870409
2.01213,756039
2.02147,622185
2.03082,480557
2.04015,340792
2.04948,233647
2.05883,173787
2.06817,135484
2.07750,158337
2.08685,287388
2.09618,341189
2.10552,237405
2.11487,147966
2.12420,119763
2.13353,131049
2.14288,153746
2.15222,154372
2.16157,127879
2.17090,100402
2.18023,103259
2.18958,175490
2.19892,233584
2.20825,174290
2.21760,122370
2.22693,140677
2.23627,280068
2.24562,1022046
2.25495,3890111
2.26428,6235569
2.27363,5579522
2.28297,3669851
2.29230,2079982
2.30165,1589487
2.31098,4547793
2.32033,1.044971E+07
2.32967,1.064102E+07
2.33900,6153809
2.34835,2710278
2.35768,1178787
2.36702,564900
2.37637,337482
2.38570,244074
2.39503,192691
2.40438,159192
2.41372,165466
2.42305,211842
2.43240,216219
2.44173,169126
2.45107,126898
2.46042,139928
2.46975,223364
2.47908,256347
2.48843,202735
2.49777,137449
2.50712,102354
2.51645,85567
2.52578,75712
2.53513,71661
2.54447,76743
2.55380,113128
2.56315,441460
2.57248,563235
2.58182,440510
2.59117,298068
2.60050,211893
2.60983,186173
2.61918,209327
2.62852,198945
2.63785,168163
2.64720,151455
2.65653,132350
2.66587,103630
2.67522,81042
2.68455,65941
2.69390,61778
2.70323,64490
2.71257,90408
2.72192,132984
2.73125,170762
2.74058,190538
2.74993,219481
2.75927,263277
2.76860,350326
2.77795,494266
2.78728,571386
2.79662,540201
2.80597,263238
2.81530,185253
2.82463,156822
2.83398,124297
2.84332,114287
2.85265,158822
2.86200,242173
2.87133,243856
2.88068,176256
2.89002,122474
2.89935,94922
2.90870,82366
2.91803,77527
2.92737,69924
2.93672,63233
2.94605,57503
2.95538,55626
2.96473,54000
2.97407,53387
2.98340,54614
2.99275,64471
3.00208,75920
3.01142,79857
3.02077,80336
3.03010,110725
3.03943,127978
3.04878,117938
3.05812,118294
3.06747,138445
3.07680,130364
3.08613,100700
3.09548,69130
3.10482,56656
3.11415,49950
3.12350,49923
3.13283,53352
3.14217,58570
3.15152,69391
3.16085,82598
3.17018,80083
3.17953,66537
3.18887,61219
3.19820,55807
3.20755,54748
3.21688,51996
3.22622,48489
3.23557,44622
3.24490,47963
3.25425,48678
3.26358,49853
3.27292,46564
3.28227,46348
3.29160,47685
3.30093,52383
3.31028,52993
3.31962,47997
3.32895,47372
3.33830,46411
3.34763,46025
3.35697,48138
3.36632,45963
3.37565,43349
3.38498,40523
3.39433,40204
3.40367,41974
3.41302,47213
3.42235,54840
3.43168,65279
3.44103,71911
3.45037,69406
3.45970,60824
3.46905,52745
3.47838,55719
3.48772,55333
3.49707,49405
3.50640,48748
3.51573,45999
3.52508,45063
3.53442,45713
3.54375,75427
3.55310,193577
3.56243,413969
3.57177,517864
3.58112,392060
3.59045,222830
3.59980,153440
3.60913,119673
3.61847,90801
3.62782,73971
3.63715,64533
3.64648,56628
3.65583,59021
3.66517,63474
3.67450,67947
3.68385,61254
3.69318,52870
3.70252,51296
3.71187,51794
3.72120,57881
3.73053,61848
3.73988,57892
3.74922,49377
3.75855,42535
3.76790,40016
3.77723,39282
3.78658,42031
3.79592,43942
3.80525,50632
3.81460,62942
3.82393,65829
3.83327,57241
3.84262,51103
3.85195,49296
3.86128,49376
3.87063,47442
3.87997,48202
3.88930,55331
3.89865,61402
3.90798,71594
3.91732,202470
3.92667,426366
3.93600,410219
3.94533,304985
3.95468,217189
3.96402,176753
3.97337,155477
3.98270,140761
3.99203,138297
4.00138,144808
4.01072,148977
4.02005,158963
4.02940,178983
4.03873,220009
4.04807,234867
4.05742,161174
4.06675,138902
4.07608,129710
4.08543,128442
4.09477,114684
4.10410,101624
4.11345,85290
4.12278,69448
4.13213,61284
4.14147,55609
4.15080,52962
4.16015,50087
4.16948,49244
4.17882,48165
4.18817,46265
4.19750,46836
4.20683,49957
4.21618,49267
4.22552,47895
4.23485,45551
4.24420,47051
4.25353,53229
4.26287,61395
4.27222,68100
4.28155,70335
4.29088,64637
4.30023,57409
4.30957,54157
4.31892,52107
4.32825,54993
4.33758,52327
4.34693,49462
4.35627,46322
4.36560,48422
4.37495,51036
4.38428,49927
4.39362,49455
4.40297,44155
4.41230,40645
4.42163,41277
4.43098,39359
4.44032,40438
4.44965,40208
4.45900,45639
4.46833,54414
4.47767,63791
4.48702,61607
4.49635,55203
4.50570,48546
4.51503,47261
4.52437,51730
4.53372,51074
4.54305,47672
4.55238,46326
4.56173,44557
4.57107,44383
4.58040,42995
4.58975,43420
4.59908,40967
4.60842,40508
4.61777,39427
4.62710,46585
4.63643,57084
4.64578,60932
4.65512,56596
4.66445,48524
4.67380,45962
4.68313,46656
4.69248,51731
4.70182,55993
4.71115,63192
4.72050,67820
4.72983,58098
4.73917,50717
4.74852,44091
4.75785,41953
4.76718,42580
4.77653,44396
4.78587,43487
4.79520,44246
4.80455,47241
4.81388,50334
4.82322,50758
4.83257,49277
4.84190,46039
4.85123,45223
4.86058,52516
4.86992,67024
4.87927,71974
4.88860,66625
4.89793,57665
4.90728,51039
4.91662,50156
4.92595,48952
4.93530,49882
4.94463,47949
4.95397,43651
4.96332,38969
4.97265,38023
4.98198,38119
4.99133,41510
5.00067,48575
5.01000,56145
5.01935,65450
5.02868,74745
5.03803,82360
5.04737,88324
5.05670,75040
5.06605,57277
5.07538,51000
5.08472,52513
5.09407,51332
5.10340,47381
5.11273,42109
5.12208,43706
5.13142,52997
5.14075,64499
5.15010,68935
5.15943,61297
5.16877,53464
5.17812,52667
5.18745,52414
5.19678,48976
5.20613,44273
5.21547,40840
5.22482,43892
5.23415,46951
5.24348,44609
5.25283,45343
5.26217,53981
5.27150,99785
5.28085,191669
5.29018,262120
5.29952,227150
5.30887,145339
5.31820,99367
5.32753,82086
5.33688,66862
5.34622,53253
5.35555,46924
5.36490,45497
5.37423,45290
5.38357,53658
5.39292,64047
5.40225,61653
5.41160,56299
5.42093,51023
5.43027,43550
5.43962,42562
5.44895,41012
5.45828,45814
5.46763,47540
5.47697,43812
5.48630,46791
5.49565,45974
5.50498,46909
5.51432,51224
5.52367,63591
5.53300,72204
5.54233,70533
5.55168,65505
5.56102,65148
5.57035,72275
5.57970,80544
5.58903,84829
5.59838,87897
5.60772,70930
5.61705,53407
5.62640,47326
5.63573,44493
5.64507,47380
5.65442,55709
5.66375,66006
5.67308,63366
5.68243,53983
5.69177,47405
5.70110,45465
5.71045,46940
5.71978,48674
5.72912,47708
5.73847,55548
5.74780,81356
5.75715,104193
5.76648,94636
5.77582,69791
5.78517,50131
5.79450,43364
5.80383,42196
5.81318,47963
5.82252,61618
5.83185,70993
5.84120,62129
5.85053,49475
5.85987,44884
5.86922,43071
5.87855,40005
5.88788,38111
5.89723,38339
5.90657,58763
5.91590,116886
5.92525,181872
5.93458,189374
5.94393,159500
5.95327,121770
5.96260,83945
5.97195,59639
5.98128,52860
5.99062,48196
5.99997,44727
6.00930,39989
6.01863,32839
6.02798,32687
6.03732,31389
6.04665,29164
6.05600,31372
6.06533,32885
6.07467,32700
6.08402,30662
6.09335,29700
6.10268,28011
6.11203,27388
6.12137,32660
6.13072,39305
6.14005,42570
6.14938,35943
6.15873,28461
6.16807,25062
6.17740,24697
6.18675,27274
6.19608,26574
6.20542,24231
6.21477,25539
6.22410,27152
6.23343,29086
6.24278,29663
6.25212,31217
6.26145,37493
6.27080,42485
6.28013,37325
6.28947,26751
6.29882,21065
6.30815,20601
6.31750,18200
6.32683,19477
6.33617,19521
6.34552,19873
6.35485,19104
6.36418,20673
6.37353,24887
6.38287,44195
6.39220,156083
6.40155,611934
6.41088,1429987
6.42022,1703067
6.42957,1096353
6.43890,416234
6.44823,121925
6.45758,49011
6.46692,33687
6.47625,28588
6.48560,27176
6.49493,23758
6.50428,22220
6.51362,23852
6.52295,24082
6.53230,21889
6.54163,20913
6.55097,18568
6.56032,17552
6.56965,18670
6.57898,19641
6.58833,22527
6.59767,25338
6.60700,25463
6.61635,25230
6.62568,23650
6.63502,25379
6.64437,25715
6.65370,25896
6.66303,30354
6.67238,36507
6.68172,35989
6.69107,35849
6.70040,37620
6.70973,39972
6.71908,46310
6.72842,50850
6.73775,45056
6.74710,33061
6.75643,26458
6.76577,27476
6.77512,27998
6.78445,31814
6.79378,38201
6.80313,47157
6.81247,41995
6.82180,32643
6.83115,29549
6.84048,31103
6.84983,28504
6.85917,23728
6.86850,21189
6.87785,22154
6.88718,21595
6.89652,22322
6.90587,29664
6.91520,36909
6.92453,42954
6.93388,50077
6.94322,57454
6.95255,67107
6.96190,61250
6.97123,40416
6.98057,31538
6.98992,30385
6.99925,31849
7.00858,36527
7.01793,34667
7.02727,28572
7.03662,22218
7.04595,19823
7.05528,19238
7.06463,19702
7.07397,22483
7.08330,22832
7.09265,23516
7.10198,26395
7.11132,27412
7.12067,25263
7.13000,24247
7.13933,20139
7.14868,20848
7.15802,19873
7.16735,20906
7.17670,19685
7.18603,22870
7.19537,24448
7.20472,24298
7.21405,24843
7.22340,35780
7.23273,62638
7.24207,92138
7.25142,85006
7.26075,54227
7.27008,34219
7.27943,31345
7.28877,27681
7.29810,25231
7.30745,22800
7.31678,20192
7.32612,18883
7.33547,17864
7.34480,17738
7.35413,18586
7.36348,18732
7.37282,18247
7.38215,26990
7.39150,56785
7.40083,120656
7.41018,179316
7.41952,169892
7.42885,110603
7.43820,60028
7.44753,35140
7.45687,29566
7.46622,28828
7.47555,25624
7.48488,23489
7.49423,21233
7.50357,17821
7.51290,17421
7.52225,17978
7.53158,19156
7.54092,19008
7.55027,22348
7.55960,27194
7.56895,37879
7.57828,51884
7.58762,54065
7.59697,43939
7.60630,37259
7.61563,35423
7.62498,32124
7.63432,30411
7.64365,27723
7.65300,26230
7.66233,25768
7.67167,28095
7.68102,27229
7.69035,25582
7.69968,23301
7.70903,24997
7.71837,24188
7.72770,26685
7.73705,29706
7.74638,31973
7.75573,31399
7.76507,29391
7.77440,27882
7.78375,28304
7.79308,27387
7.80242,23992
7.81177,21749
7.82110,21820
7.83043,23378
7.83978,25837
7.84912,36203
7.85845,66132
7.86780,96831
7.87713,96856
7.88647,67102
7.89582,42103
7.90515,45434
7.91448,71613
7.92383,91884
7.93317,86399
7.94252,69268
7.95185,60360
7.96118,55741
7.97053,55545
7.97987,64873
7.98920,64554
7.99855,48580
8.00788,38680
8.01722,33727
8.02657,36157
8.03590,40969
8.04523,48415
8.05458,46977
8.06392,36011
8.07325,33013
8.08260,50589
8.09193,73415
8.10127,70419
8.11062,47825
8.11995,29940
8.12930,23471
8.13863,21517
8.14797,21161
8.15732,21601
8.16665,22015
8.17598,22353
8.18533,23611
8.19467,24524
8.20400,26071
8.21335,27868
8.22268,27826
8.23202,27723
8.24137,25590
8.25070,24005
8.26003,23729
8.26938,23336
8.27872,22577
8.28805,24104
8.29740,24111
8.30673,24061
8.31608,24273
8.32542,22948
8.33475,21634
8.34410,21273
8.35343,21608
8.36277,25840
8.37212,31467
8.38145,32443
8.39078,32864
8.40013,34218
8.40947,33255
8.41880,31967
8.42815,30523
8.43748,30335
8.44682,28506
8.45617,27400
8.46550,27553
8.47485,27528
8.48418,25349
8.49352,23488
8.50287,25043
8.51220,25803
8.52153,31855
8.53088,33411
8.54022,33509
8.54955,33827
8.55890,32762
8.56823,31628
8.57757,29156
8.58692,26630
8.59625,27011
8.60558,27625
8.61493,28428
8.62427,29773
8.63360,25464
8.64295,24663
8.65228,25621
8.66163,25918
8.67097,26890
8.68030,27533
8.68965,25610
8.69898,27586
8.70832,28182
8.71767,27178
8.72700,27270
8.73633,27418
8.74568,36083
8.75502,47703
8.76435,45310
8.77370,38030
8.78303,33664
8.79237,33753
8.80172,33230
8.81105,36387
8.82038,37118
8.82973,33166
8.83907,28914
8.84842,26926
8.85775,26740
8.86708,29346
8.87643,32474
8.88577,33065
8.89510,31142
8.90445,30442
8.91378,29266
8.92312,27929
8.93247,30082
8.94180,30342
8.95113,32392
8.96048,37681
8.96982,39209
8.97915,37035
8.98850,32575
8.99783,34863
9.00717,33068
9.01652,29504
9.02585,28900
9.03520,26958
9.04453,28913
9.05387,30764
9.06322,30700
9.07255,35328
9.08188,40179
9.09123,45791
9.10057,42574
9.10990,37488
9.11925,30633
9.12858,34296
9.13792,36019
9.14727,34484
9.15660,30596
9.16593,27835
9.17528,26451
9.18462,26051
9.19397,26408
9.20330,31259
9.21263,47820
9.22198,89614
9.23132,127036
9.24065,129735
9.25000,90253
9.25933,55933
9.26867,40517
9.27802,36065
9.28735,33363
9.29668,32125
9.30603,28956
9.31537,33713
9.32470,51358
9.33405,69534
9.34338,73388
9.35272,88730
9.36207,189037
9.37140,292499
9.38075,284606
9.39008,182476
9.39942,97418
9.40877,61873
9.41810,51037
9.42743,50657
9.43678,45977
9.44612,36843
9.45545,29952
9.46480,25738
9.47413,25358
9.48347,28332
9.49282,35994
9.50215,36345
9.51148,33817
9.52083,30220
9.53017,33258
9.53950,37860
9.54885,46765
9.55818,58228
9.56753,74455
9.57687,64764
9.58620,46708
9.59555,46741
9.60488,57603
9.61422,59916
9.62357,50033
9.63290,39039
9.64223,33733
9.65158,29751
9.66092,31934
9.67025,28793
9.67960,29289
9.68893,28757
9.69827,26614
9.70762,26804
9.71695,47298
9.72628,201019
9.73563,743028
9.74497,1637544
9.75432,1929764
9.76365,1283107
9.77298,545786
9.78233,215129
9.79167,123778
9.80100,89730
9.81035,72744
9.81968,72483
9.82902,79606
9.83837,89288
9.84770,100871
9.85703,93966
9.86638,73973
9.87572,69806
9.88505,88097
9.89440,98787
9.90373,123461
9.91307,184984
9.92242,229710
9.93175,170583
9.94110,91680
9.95043,51728
9.95977,40770
9.96912,45435
9.97845,76609
9.98778,123202
9.99713,145373
10.00647,105645
10.01580,65139
10.02515,45465
10.03448,41085
10.04382,38824
10.05317,41650
10.06250,46805
10.07183,55810
10.08118,60188
10.09052,55201
10.09985,49883
10.10920,79866
10.11853,251629
10.12788,553163
10.13722,710450
10.14655,748544
10.15590,1692846
10.16523,3559008
10.17457,3990561
10.18392,2120501
10.19325,555932
10.20258,109800
10.21193,50986
10.22127,51666
10.23060,69919
10.23995,101101
10.24928,103136
10.25862,74120
10.26797,49941
10.27730,40178
10.28665,38044
10.29598,38112
10.30532,36910
10.31467,34121
10.32400,33499
10.33333,34507
10.34268,31679
10.35202,30323
10.36135,31344
10.37070,31449
10.38003,29839
10.38937,26990
10.39872,27104
10.40805,26816
10.41738,28534
10.42673,29279
10.43607,28597
10.44540,32135
10.45475,42247
10.46408,48988
10.47343,45506
10.48277,36641
10.49210,28983
10.50145,26041
10.51078,26226
10.52012,25825
10.52947,27777
10.53880,30005
10.54813,32229
10.55748,30925
10.56682,31432
10.57615,29521
10.58550,28883
10.59483,27487
10.60417,27263
10.61352,25895
10.62285,28861
10.63218,33639
10.64153,34977
10.65087,31735
10.66022,29551
10.66955,30721
10.67888,35200
10.68823,38492
10.69757,36724
10.70690,33167
10.71625,35659
10.72558,35151
10.73492,35292
10.74427,40969
10.75360,63742
10.76293,86290
10.77228,78992
10.78162,58573
10.79095,65453
10.80030,102638
10.80963,129572
10.81897,102903
10.82832,61432
10.83765,37179
10.84700,30783
10.85633,31922
10.86567,45079
10.87502,69067
10.88435,80227
10.89368,63775
10.90303,45963
10.91237,35584
10.92170,35263
10.93105,37628
10.94038,37139
10.94972,32370
10.95907,30820
10.96840,30506
10.97773,29176
10.98708,26868
10.99642,26835
11.00577,28661
11.01510,30456
11.02443,28920
11.03378,27768
11.04312,27572
11.05245,28786
11.06180,28021
11.07113,27766
11.08047,26328
11.08982,29951
11.09915,43930
11.10848,63230
11.11783,70101
11.12717,57586
11.13650,43475
11.14585,36002
11.15518,33334
11.16452,29280
11.17387,27984
11.18320,26106
11.19255,25868
11.20188,24670
11.21122,23757
11.22057,27044
11.22990,28261
11.23923,28497
11.24858,28683
11.25792,31897
11.26725,37259
11.27660,35178
11.28593,31347
11.29527,28538
11.30462,34087
11.31395,44024
11.32328,49742
11.33263,46574
11.34197,48925
11.35130,56822
11.36065,67498
11.36998,62088
11.37933,47743
11.38867,35680
11.39800,34841
11.40735,35037
11.41668,34992
11.42602,31034
11.43537,30905
11.44470,32779
11.45403,34568
11.46338,44091
11.47272,54584
11.48205,53833
11.49140,41414
11.50073,31658
11.51007,28619
11.51942,27589
11.52875,28710
11.53808,29140
11.54743,36973
11.55677,64304
11.56612,123841
11.57545,174424
11.58478,164566
11.59413,113037
11.60347,77199
11.61280,60507
11.62215,55934
11.63148,60317
11.64082,93759
11.65017,175893
11.65950,221367
11.66883,181709
11.67818,108797
11.68752,65315
11.69685,49765
11.70620,45693
11.71553,43475
11.72487,44525
11.73422,38635
11.74355,36093
11.75290,35516
11.76223,37274
11.77157,36810
11.78092,38070
11.79025,40610
11.79958,41118
11.80893,37500
11.81827,38057
11.82760,38850
11.83695,38254
11.84628,37056
11.85562,36175
11.86497,34420
11.87430,39297
11.88363,39676
11.89298,37457
11.90232,33306
11.91167,30773
11.92100,31405
11.93033,32077
11.93968,34676
11.94902,38587
11.95835,35528
11.96770,29566
11.97703,27492
11.98637,28323
11.99572,31968
12.00505,46342
12.01438,63437
12.02373,70226
12.03307,57094
12.04240,46617
12.05175,39678
12.06108,31801
12.07042,28084
12.07977,27821
12.08910,28672
12.09845,28041
12.10778,30315
12.11712,29794
12.12647,30351
12.13580,31438
12.14513,30035
12.15448,32703
12.16382,45784
12.17315,73963
12.18250,100940
12.19183,81254
12.20117,51508
12.21052,37405
12.21985,36412
12.22918,41236
12.23853,43276
12.24787,39662
12.25720,47525
12.26655,102734
12.27588,215247
12.28523,267402
12.29457,190071
12.30390,93149
12.31325,52432
12.32258,38826
12.33192,39080
12.34127,39013
12.35060,39747
12.35993,36497
12.36928,32187
12.37862,32828
12.38795,40384
12.39730,50240
12.40663,57249
12.41597,50596
12.42532,41843
12.43465,37605
12.44398,33810
12.45333,32961
12.46267,32989
12.47202,35330
12.48135,37715
12.49068,37706
12.50003,39117
12.50937,37659
12.51870,36231
12.52805,35281
12.53738,35254
12.54672,36921
12.55607,38286
12.56540,45067
12.57473,48312
12.58408,44470
12.59342,37016
12.60275,32113
12.61210,36607
12.62143,38977
12.63078,43109
12.64012,49041
12.64945,48920
12.65880,45847
12.66813,43413
12.67747,38194
12.68682,31796
12.69615,30373
12.70548,29822
12.71483,30712
12.72417,31021
12.73350,34215
12.74285,36656
12.75218,39785
12.76152,42300
12.77087,35781
12.78020,31683
12.78953,30865
12.79888,34210
12.80822,35612
12.81757,35884
12.82690,34103
12.83623,33468
12.84558,29929
12.85492,29624
12.86425,32630
12.87360,29321
12.88293,29752
12.89227,30499
12.90162,32287
12.91095,31262
12.92028,29990
12.92963,29382
12.93897,28632
12.94830,29440
12.95765,29545
12.96698,30354
12.97632,29238
12.98567,29210
12.99500,30899
13.00435,30448
13.01368,32489
13.02302,35317
13.03237,44352
13.04170,45716
13.05103,41238
13.06038,39123
13.06972,45042
13.07905,50015
13.08840,43001
13.09773,39036
13.10707,35594
13.11642,35658
13.12575,37730
13.13508,43051
13.14443,44208
13.15377,46394
13.16310,51969
13.17245,56240
13.18178,59761
13.19113,78248
13.20047,175976
13.20980,354896
13.21915,437416
13.22848,313176
13.23782,156101
13.24717,112437
13.25650,113864
13.26583,96079
13.27518,79132
13.28452,71930
13.29385,67866
13.30320,58268
13.31253,53422
13.32187,51089
13.33122,50621
13.34055,52615
13.34988,51287
13.35923,48413
13.36857,41882
13.37792,37758
13.38725,39596
13.39658,42609
13.40593,43397
13.41527,38883
13.42460,40128
13.43395,44215
13.44328,50048
13.45262,47864
13.46197,50081
13.47130,52142
13.48063,52766
13.48998,48383
13.49932,41192
13.50865,46132
13.51800,71980
13.52733,113908
13.53667,129243
13.54602,89086
13.55535,52847
13.56470,39928
13.57403,33997
13.58337,30028
13.59272,28287
13.60205,28608
13.61138,29310
13.62073,30122
13.63007,38805
13.63940,58045
13.64875,77649
13.65808,72569
13.66742,54616
13.67677,39844
13.68610,31879
13.69543,30409
13.70478,31994
13.71412,29942
13.72347,30109
13.73280,29258
13.74213,28067
13.75148,28717
13.76082,29753
13.77015,29772
13.77950,29656
13.78883,30280
13.79817,34317
13.80752,40586
13.81685,39787
13.82618,35577
13.83553,30350
13.84487,29383
13.85420,32312
13.86355,36113
13.87288,40990
13.88222,48177
13.89157,73478
13.90090,130457
13.91025,262044
13.91958,411463
13.92892,368277
13.93827,191954
13.94760,85444
13.95693,57449
13.96628,49534
13.97562,42279
13.98495,38027
13.99430,36501
14.00363,38395
14.01297,35794
14.02232,33452
14.03165,35162
14.04098,89926
14.05033,605204
14.05967,2722903
14.06900,6620271
14.07835,9488267
14.08768,7011018
14.09703,2271268
14.10637,351861
14.11570,70792
14.12505,44884
14.13438,42886
14.14372,44722
14.15307,49949
14.16240,55138
14.17173,57458
14.18108,72906
14.19042,118715
14.19975,148591
14.20910,118283
14.21843,62662
14.22777,36564
14.23712,30477
14.24645,28304
14.25578,28766
14.26513,30600
14.27447,30939
14.28382,30293
14.29315,28168
14.30248,29412
14.31183,31729
14.32117,40435
14.33050,47715
14.33985,50985
14.34918,45563
14.35852,38060
14.36787,32299
14.37720,30974
14.38653,29914
14.39588,28266
14.40522,29265
14.41455,27387
14.42390,25878
14.43323,27203
14.44258,29978
14.45192,37526
14.46125,47015
14.47060,48954
14.47993,43743
14.48927,37098
14.49862,30224
14.50795,27478
14.51728,27454
14.52663,26080
14.53597,27588
14.54530,32478
14.55465,33291
14.56398,35934
14.57332,33446
14.58267,31426
14.59200,28663
14.60133,27938
14.61068,27413
14.62002,29960
14.62937,36704
14.63870,58697
14.64803,85473
14.65738,94429
14.66672,79204
14.67605,51189
14.68540,36550
14.69473,34397
14.70407,30572
14.71342,27911
14.72275,31624
14.73208,31693
14.74143,30882
14.75077,33210
14.76010,36863
14.76945,42515
14.77878,44034
14.78812,41810
14.79747,35055
14.80680,32703
14.81615,32655
14.82548,32350
14.83482,30930
14.84417,29770
14.85350,28251
14.86283,37346
14.87218,45090
14.88152,51478
14.89085,45068
14.90020,36803
14.90953,32718
14.91887,31709
14.92822,30675
14.93755,29829
14.94688,31353
14.95623,33055
14.96557,35390
14.97490,37593
14.98425,34901
14.99358,34867
15.00293,33930
15.01227,36110
15.02160,35598
15.03095,32982
15.04028,33030
15.04962,35610
15.05897,35612
15.06830,36076
15.07763,35379
15.08698,33868
15.09632,30007
15.10565,30520
15.11500,33941
15.12433,35474
15.13367,41722
15.14302,40378
15.15235,34504
15.16168,31176
15.17103,31409
15.18037,35493
15.18972,47545
15.19905,59845
15.20838,76766
15.21773,93572
15.22707,89816
15.23640,74122
15.24575,57958
15.25508,46212
15.26442,37847
15.27377,35152
15.28310,35330
15.29243,35285
15.30178,34361
15.31112,33252
15.32045,34023
15.32980,35587
15.33913,38073
15.34848,37754
15.35782,39715
15.36715,42750
15.37650,40895
15.38583,39588
15.39517,32697
15.40452,29934
15.41385,31628
15.42318,35236
15.43253,38200
15.44187,36947
15.45120,34618
15.46055,31029
15.46988,31802
15.47922,33010
15.48857,36630
15.49790,38597
15.50723,45112
15.51658,59597
15.52592,68491
15.53527,59846
15.54460,46233
15.55393,35058
15.56328,29233
15.57262,29104
15.58195,29666
15.59130,28442
15.60063,31053
15.60997,34532
15.61932,35157
15.62865,41101
15.63798,42579
15.64733,42428
15.65667,40626
15.66600,42982
15.67535,41754
15.68468,39738
15.69402,45457
15.70337,57733
15.71270,61618
15.72205,52958
15.73138,38380
15.74072,38759
15.75007,48888
15.75940,58409
15.76873,56487
15.77808,48499
15.78742,41463
15.79675,44546
15.80610,98308
15.81543,268622
15.82477,525014
15.83412,667158
15.84345,549285
15.85278,319835
15.86213,146548
15.87147,77031
15.88080,65790
15.89015,66599
15.89948,70904
15.90883,65003
15.91817,53895
15.92750,46637
15.93685,39493
15.94618,37310
15.95552,34871
15.96487,39946
15.97420,50307
15.98353,73657
15.99288,94865
16.00222,91927
16.01155,64924
16.02090,45049
16.03023,37624
16.03957,36861
16.04892,38320
16.05825,37975
16.06760,38609
16.07693,40090
16.08627,36937
16.09562,38010
16.10495,40276
16.11428,45241
16.12363,48190
16.13297,46090
16.14230,43270
16.15165,37329
16.16098,39927
16.17032,41353
16.17967,41357
16.18900,40756
16.19833,44713
16.20768,49233
16.21702,58061
16.22635,61291
16.23570,56325
16.24503,53446
16.25438,48305
16.26372,44754
16.27305,60199
16.28240,116264
16.29173,262181
16.30107,378607
16.31042,324148
16.31975,167042
16.32908,70044
16.33843,42262
16.34777,35395
16.35710,32955
16.36645,31758
16.37578,30838
16.38512,30982
16.39447,33080
16.40380,35110
16.41313,33633
16.42248,33632
16.43182,33926
16.44117,33930
16.45050,38980
16.45983,45595
16.46918,48743
16.47852,49877
16.48785,54666
16.49720,53751
16.50653,47713
16.51587,44878
16.52522,43010
16.53455,42644
16.54388,37702
16.55323,37147
16.56257,35264
16.57190,34117
16.58125,34847
16.59058,34196
16.59992,35092
16.60927,33009
16.61860,35545
16.62795,40337
16.63728,46973
16.64662,47922
16.65597,43929
16.66530,39965
16.67463,37494
16.68398,42821
16.69332,50831
16.70265,54923
16.71200,48336
16.72133,37864
16.73067,38832
16.74002,63670
16.74935,107868
16.75868,124395
16.76803,89579
16.77737,52433
16.78670,39479
16.79605,39075
16.80538,42816
16.81473,47496
16.82407,48990
16.83340,52552
16.84275,52570
16.85208,48525
16.86142,43688
16.87077,41700
16.88010,38837
16.88943,38259
16.89878,40548
16.90812,47984
16.91745,57820
16.92680,55201
16.93613,52703
16.94547,50809
16.95482,59444
16.96415,64992
16.97350,62677
16.98283,51805
16.99217,43065
17.00152,38440
17.01085,37290
17.02018,49355
17.02953,79619
17.03887,106931
17.04820,88526
17.05755,56755
17.06688,43856
17.07622,40287
17.08557,39745
17.09490,39332
17.10423,38433
17.11358,35826
17.12292,36792
17.13225,38939
17.14160,41906
17.15093,39252
17.16028,34637
17.16962,33244
17.17895,34216
17.18830,33641
17.19763,32190
17.20697,30541
17.21632,31887
17.22565,31421
17.23498,31440
17.24433,33284
17.25367,36131
17.26300,38650
17.27235,42662
17.28168,49452
17.29102,52160
17.30037,46557
17.30970,42100
17.31903,45307
17.32838,49229
17.33772,45142
17.34707,40022
17.35640,39208
17.36573,46166
17.37508,94072
17.38442,188468
17.39375,228719
17.40310,177984
17.41243,99087
17.42177,67439
17.43112,52173
17.44045,46616
17.44978,45716
17.45913,45973
17.46847,41726
17.47780,45018
17.48715,105803
17.49648,506674
17.50582,1666973
17.51517,3117643
17.52450,3024578
17.53385,1446639
17.54318,362862
17.55252,80319
17.56187,49276
17.57120,49778
17.58053,55718
17.58988,55405
17.59922,50151
17.60855,43992
17.61790,41677
17.62723,42628
17.63657,42673
17.64592,42541
17.65525,46783
17.66458,48718
17.67393,58935
17.68327,71113
17.69260,77062
17.70195,67311
17.71128,57063
17.72063,49535
17.72997,42258
17.73930,40278
17.74865,43893
17.75798,49818
17.76732,53348
17.77667,53891
17.78600,49103
17.79533,46330
17.80468,44757
17.81402,39072
17.82335,34516
17.83270,35404
17.84203,37702
17.85137,46206
17.86072,53789
17.87005,60123
17.87940,58492
17.88873,49545
17.89807,41223
17.90742,37061
17.91675,35979
17.92608,37552
17.93543,40230
17.94477,35545
17.95410,37223
17.96345,37551
17.97278,34783
17.98212,36752
17.99147,35389
18.00080,35661
18.01013,36619
18.01948,36909
18.02882,38273
18.03815,38889
18.04750,41200
18.05683,42891
18.06618,41393
18.07552,38987
18.08485,35759
18.09420,39047
18.10353,45828
18.11287,57684
18.12222,59085
18.13155,53702
18.14088,49995
18.15023,47348
18.15957,46095
18.16890,44991
18.17825,45836
18.18758,44498
18.19692,41986
18.20627,41226
18.21560,40241
18.22493,42310
18.23428,39790
18.24362,40511
18.25297,35863
18.26230,37062
18.27163,38738
18.28098,44432
18.29032,52155
18.29965,55927
18.30900,57808
18.31833,54936
18.32767,50841
18.33702,52592
18.34635,58657
18.35568,61444
18.36503,59771
18.37437,56237
18.38370,58727
18.39305,72176
18.40238,87594
18.41172,96773
18.42107,77389
18.43040,54001
18.43975,50897
18.44908,54992
18.45842,51862
18.46777,46651
18.47710,41075
18.48643,46599
18.49578,58953
18.50512,72642
18.51445,77182
18.52380,71825
18.53313,60731
18.54247,49559
18.55182,51644
18.56115,55541
18.57048,52348
18.57983,47721
18.58917,46005
18.59850,45200
18.60785,50212
18.61718,54557
18.62653,57354
18.63587,54110
18.64520,52482
18.65455,48560
18.66388,44627
18.67322,44155
18.68257,44063
18.69190,44716
18.70123,48554
18.71058,53712
18.71992,55267
18.72925,55883
18.73860,58007
18.74793,60748
18.75727,61242
18.76662,50871
18.77595,40640
18.78530,35119
18.79463,36479
18.80397,38316
18.81332,38217
18.82265,38813
18.83198,37139
18.84133,37802
18.85067,37843
18.86000,34996
18.86935,36027
18.87868,35992
18.88802,36833
18.89737,35703
18.90670,44354
18.91603,48253
18.92538,50456
18.93472,47982
18.94405,48066
18.95340,53524
18.96273,64642
18.97208,73841
18.98142,68055
18.99075,52339
19.00010,45342
19.00943,42297
19.01877,40761
19.02812,41357
19.03745,46381
19.04678,63845
19.05613,83268
19.06547,112691
19.07480,161514
19.08415,217765
19.09348,205351
19.10282,129642
19.11217,69464
19.12150,44603
19.13083,36092
19.14018,34811
19.14952,35795
19.15887,32776
19.16820,32073
19.17753,35015
19.18688,36121
19.19622,41169
19.20555,42030
19.21490,43986
19.22423,46394
19.23357,46262
19.24292,42852
19.25225,42475
19.26158,38617
19.27093,43202
19.28027,52116
19.28960,56925
19.29895,58078
19.30828,70842
19.31762,82314
19.32697,81363
19.33630,61668
19.34565,50652
19.35498,43468
19.36432,38856
19.37367,37092
19.38300,36949
19.39233,37003
19.40168,38219
19.41102,38540
19.42035,36610
19.42970,36360
19.43903,35481
19.44837,36160
19.45772,38467
19.46705,41786
19.47638,46532
19.48573,50413
19.49507,49782
19.50442,48948
19.51375,43429
19.52308,42530
19.53243,40008
19.54177,40105
19.55110,40695
19.56045,39777
19.56978,41785
19.57912,43221
19.58847,44473
19.59780,43223
19.60713,40438
19.61648,41541
19.62582,42263
19.63515,47016
19.64450,50609
19.65383,46103
19.66317,41806
19.67252,39448
19.68185,43941
19.69120,52036
19.70053,57180
19.70987,56255
19.71922,58070
19.72855,65824
19.73788,72871
19.74723,60290
19.75657,52158
19.76590,48716
19.77525,49670
19.78458,48143
19.79392,46798
19.80327,42849
19.81260,40285
19.82193,37311
19.83128,37920
19.84062,37741
19.84995,37396
19.85930,41096
19.86863,52948
19.87798,69454
19.88732,73020
19.89665,58982
19.90600,45146
19.91533,40576
19.92467,40119
19.93402,40368
19.94335,49178
19.95268,66998
19.96203,104532
19.97137,165349
19.98070,241079
19.99005,247737
19.99938,161850
20.00872,102303
20.01807,82870
20.02740,75246
20.03673,73385
20.04608,66767
20.05542,64775
20.06477,62414
20.07410,62854
20.08343,61690
20.09278,59285
20.10212,52264
20.11145,47466
20.12080,47338
20.13013,46282
20.13947,49939
20.14882,55794
20.15815,65771
20.16748,63997
20.17683,55339
20.18617,49498
20.19550,47017
20.20485,46450
20.21418,46127
20.22352,46504
20.23287,45308
20.24220,45099
20.25155,41973
20.26088,42124
20.27022,41308
20.27957,43876
20.28890,47666
20.29823,47503
20.30758,45816
20.31692,42514
20.32625,39108
20.33560,40193
20.34493,40311
20.35427,40258
20.36362,44372
20.37295,43648
20.38228,44523
20.39163,40408
20.40097,40188
20.41030,41155
20.41965,40488
20.42898,43433
20.43833,40960
20.44767,42272
20.45700,45122
20.46635,53928
20.47568,63204
20.48502,59897
20.49437,47415
20.50370,40220
20.51303,38675
20.52238,39451
20.53172,41017
20.54105,43933
20.55040,52933
20.55973,80202
20.56907,184360
20.57842,325597
20.58775,322473
20.59710,191592
20.60643,87887
20.61577,52536
20.62512,48183
20.63445,51521
20.64378,57350
20.65313,59390
20.66247,49720
20.67180,44197
20.68115,41976
20.69048,41441
20.69982,42629
20.70917,43214
20.71850,44836
20.72783,44695
20.73718,41664
20.74652,44085
20.75585,41721
20.76520,42119
20.77453,41912
20.78388,46526
20.79322,54247
20.80255,54568
20.81190,51134
20.82123,47169
20.83057,41625
20.83992,39918
20.84925,39839
20.85858,37621
20.86793,37117
20.87727,36644
20.88660,40969
20.89595,43922
20.90528,44278
20.91462,44578
20.92397,41945
20.93330,38774
20.94263,36605
20.95198,37179
20.96132,36212
20.97067,35296
20.98000,36643
20.98933,35761
20.99868,37870
21.00802,39606
21.01735,39039
21.02670,38151
21.03603,37419
21.04537,39085
21.05472,39492
21.06405,40557
21.07338,40555
21.08273,38770
21.09207,39588
21.10140,39755
21.11075,38801
21.12008,42268
21.12942,42113
21.13877,42365
21.14810,39974
21.15745,40829
21.16678,46244
21.17612,59128
21.18547,70084
21.19480,64781
21.20413,53963
21.21348,44624
21.22282,39275
21.23215,38796
21.24150,37748
21.25083,39781
21.26017,40934
21.26952,43355
21.27885,52662
21.28818,62128
21.29753,60183
21.30687,50643
21.31622,42457
21.32555,40504
21.33488,38883
21.34423,39540
21.35357,41234
21.36290,40320
21.37225,41730
21.38158,42796
21.39092,41817
21.40027,44348
21.40960,47264
21.41893,47579
21.42828,44357
21.43762,42650
21.44695,41379
21.45630,39416
21.46563,39999
21.47497,42363
21.48432,44334
21.49365,45495
21.50300,45188
21.51233,44405
21.52167,42977
21.53102,41966
21.54035,41755
21.54968,45514
21.55903,61744
21.56837,80965
21.57770,90947
21.58705,79138
21.59638,57403
21.60572,44987
21.61507,46189
21.62440,44577
21.63373,49395
21.64308,47939
21.65242,47827
21.66175,44900
21.67110,49262
21.68043,55830
21.68978,58330
21.69912,52515
21.70845,51015
21.71780,51765
21.72713,54382
21.73647,50269
21.74582,44412
21.75515,42766
21.76448,39654
21.77383,40379
21.78317,42033
21.79250,46493
21.80185,52037
21.81118,59380
21.82052,61217
21.82987,58361
21.83920,50836
21.84853,46364
21.85788,43463
21.86722,46672
21.87657,51654
21.88590,56273
21.89523,61663
21.90458,62569
21.91392,54063
21.92325,47956
21.93260,42801
21.94193,43967
21.95127,48211
21.96062,52282
21.96995,58389
21.97928,65339
21.98863,72678
21.99797,76670
22.00730,70082
22.01665,60578
22.02598,53570
22.03532,54243
22.04467,63656
22.05400,67408
22.06335,64914
22.07268,59168
22.08202,55670
22.09137,52990
22.10070,49841
22.11003,49896
22.11938,46463
22.12872,46434
22.13805,44697
22.14740,51178
22.15673,65612
22.16607,80308
22.17542,84139
22.18475,75834
22.19408,60198
22.20343,54749
22.21277,57318
22.22212,63473
22.23145,70534
22.24078,67264
22.25013,59524
22.25947,54790
22.26880,67103
22.27815,85108
22.28748,99041
22.29682,97200
22.30617,84359
22.31550,64416
22.32483,55197
22.33418,50085
22.34352,57506
22.35285,70059
22.36220,78693
22.37153,82024
22.38087,82534
22.39022,79859
22.39955,66337
22.40890,58730
22.41823,54214
22.42757,60681
22.43692,69442
22.44625,66965
22.45558,61343
22.46493,56606
22.47427,52064
22.48360,51591
22.49295,48329
22.50228,48483
22.51162,49413
22.52097,46268
22.53030,46888
22.53963,46170
22.54898,47543
22.55832,50760
22.56765,60069
22.57700,68097
22.58633,66782
22.59568,69145
22.60502,68854
22.61435,71203
22.62370,67058
22.63303,63359
22.64237,58890
22.65172,52453
22.66105,48279
22.67038,48580
22.67973,57302
22.68907,67393
22.69840,72520
22.70775,64960
22.71708,60723
22.72642,62852
22.73577,72035
22.74510,75206
22.75443,79292
22.76378,73678
22.77312,70216
22.78247,63718
22.79180,69905
22.80113,84822
22.81048,91517
22.81982,81767
22.82915,72554
22.83850,63890
22.84783,58218
22.85717,54347
22.86652,56288
22.87585,57475
22.88518,60495
22.89453,61106
22.90387,59277
22.91320,62638
22.92255,67929
22.93188,71538
22.94123,63503
22.95057,59131
22.95990,57377
22.96925,52579
22.97858,49860
22.98792,46980
22.99727,47043
23.00660,46724
23.01593,45802
23.02528,48867
23.03462,48174
23.04395,50378
23.05330,49615
23.06263,48084
23.07197,47904
23.08132,47745
23.09065,46417
23.09998,42816
23.10933,43810
23.11867,43782
23.12802,44278
23.13735,46364
23.14668,46411
23.15603,47461
23.16537,49671
23.17470,51690
23.18405,49486
23.19338,43885
23.20272,42593
23.21207,41311
23.22140,41359
23.23073,47203
23.24008,51996
23.24942,58338
23.25875,61192
23.26810,59086
23.27743,54196
23.28677,50215
23.29612,44763
23.30545,43388
23.31480,45546
23.32413,55018
23.33347,63442
23.34282,69000
23.35215,61340
23.36148,52269
23.37083,47095
23.38017,48007
23.38950,49161
23.39885,48715
23.40818,44191
23.41752,45115
23.42687,45722
23.43620,45514
23.44553,49823
23.45488,47315
23.46422,45742
23.47355,44909
23.48290,46248
23.49223,43441
23.50158,42931
23.51092,43850
23.52025,49289
23.52960,51291
23.53893,51451
23.54827,50280
23.55762,45566
23.56695,44031
23.57628,47797
23.58563,51971
23.59497,52214
23.60430,49153
23.61365,46852
23.62298,44353
23.63232,46331
23.64167,42187
23.65100,41626
23.66033,42445
23.66968,44183
23.67902,46878
23.68837,50220
23.69770,55103
23.70703,57389
23.71638,54753
23.72572,57037
23.73505,54636
23.74440,53284
23.75373,47433
23.76307,44971
23.77242,43907
23.78175,43488
23.79108,43636
23.80043,43454
23.80977,43664
23.81910,45040
23.82845,43474
23.83778,42197
23.84712,44382
23.85647,42285
23.86580,42365
23.87515,41565
23.88448,44241
23.89382,45152
23.90317,49182
23.91250,47488
23.92183,45450
23.93118,44483
23.94052,43862
23.94985,46149
23.95920,44711
23.96853,41855
23.97787,44580
23.98722,45078
23.99655,41790
24.00588,45422
24.01523,46147
24.02457,46353
24.03392,44691
24.04325,43371
24.05258,41734
24.06193,44342
24.07127,45379
24.08060,46342
24.08995,45615
24.09928,44204
24.10862,42421
24.11797,42626
24.12730,42258
24.13663,42883
24.14598,42790
24.15532,41457
24.16465,41310
24.17400,43554
24.18333,41296
24.19267,41346
24.20202,41895
24.21135,42155
24.22070,43239
24.23003,43256
24.23937,42313
24.24872,44034
24.25805,44707
24.26738,43628
24.27673,44426
24.28607,42686
24.29540,44187
24.30475,44444
24.31408,47098
24.32342,46771
24.33277,48659
24.34210,47518
24.35143,44068
24.36078,44278
24.37012,45589
24.37945,48446
24.38880,49914
24.39813,48489
24.40748,46754
24.41682,46407
24.42615,47253
24.43550,44919
24.44483,46609
24.45417,45078
24.46352,43998
24.47285,43962
24.48218,45969
24.49153,43777
24.50087,45087
24.51020,42492
24.51955,43395
24.52888,46685
24.53822,45453
24.54757,48167
24.55690,49171
24.56623,47888
24.57558,46964
24.58492,43109
24.59427,45713
24.60360,46981
24.61293,49551
24.62228,51071
24.63162,48945
24.64095,45891
24.65030,46609
24.65963,54001
24.66897,58516
24.67832,58454
24.68765,52871
24.69698,48906
24.70633,44962
24.71567,46434
24.72500,46073
24.73435,45388
24.74368,41717
24.75303,44492
24.76237,45815
24.77170,43455
24.78105,42996
24.79038,43222
24.79972,42243
24.80907,45125
24.81840,43381
24.82773,43805
24.83708,42803
24.84642,42956
24.85575,46195
24.86510,44301
24.87443,47766
24.88377,47114
24.89312,46421
24.90245,46931
24.91178,46991
24.92113,47282
24.93047,47698
24.93982,46200
24.94915,46162
24.95848,48733
24.96783,46374
24.97717,46562
24.98650,45747
24.99585,46721
25.00518,45114
25.01452,43964
25.02387,44311
25.03320,45626
25.04253,45795
25.05188,44405
25.06122,44306
25.07055,44715
25.07990,44559
25.08923,45117
25.09857,45689
25.10792,45027
25.11725,45883
25.12660,46301
25.13593,47302
25.14527,46797
25.15462,47096
25.16395,46009
25.17328,43220
25.18263,45477
25.19197,46221
25.20130,44844
25.21065,46895
25.21998,45742
25.22932,45401
25.23867,45895
25.24800,47128
25.25733,49855
25.26668,53189
25.27602,53861
25.28535,56669
25.29470,57275
25.30403,58001
25.31338,71060
25.32272,105009
25.33205,172022
25.34140,221479
25.35073,189355
25.36007,135824
25.36942,104937
25.37875,88996
25.38808,80077
25.39743,75968
25.40677,72772
25.41610,74104
25.42545,74232
25.43478,71599
25.44412,73517
25.45347,71328
25.46280,73232
25.47213,74359
25.48148,79768
25.49082,84745
25.50017,84407
25.50950,82521
25.51883,76503
25.52818,80295
25.53752,82803
25.54685,78515
25.55620,76075
25.56553,76234
25.57487,75057
25.58422,70647
25.59355,72264
25.60288,70114
25.61223,68535
25.62157,67928
25.63090,69272
25.64025,68033
25.64958,70279
25.65892,72072
25.66827,68311
25.67760,68338
25.68695,67803
25.69628,62059
25.70562,66541
25.71497,64025
25.72430,65023
25.73363,65109
25.74298,66497
25.75232,65802
25.76165,65686
25.77100,65306
25.78033,65089
25.78967,66308
25.79902,71655
25.80835,77019
25.81768,76324
25.82703,69414
25.83637,63575
25.84572,63996
25.85505,61627
25.86438,59783
25.87373,58239
25.88307,59921
25.89240,60807
25.90175,58642
25.91108,61599
25.92042,60866
25.92977,61562
25.93910,65283
25.94843,66694
25.95778,70271
25.96712,66795
25.97645,61176
25.98580,60359
25.99513,57991
26.00447,57522
26.01382,58071
26.02315,60901
26.03250,66450
26.04183,65116
26.05117,63518
26.06052,61770
26.06985,62498
26.07918,62934
26.08853,61285
26.09787,63647
26.10720,61688
26.11655,62463
26.12588,61844
26.13522,65364
26.14457,69156
26.15390,70192
26.16323,68972
26.17258,67256
26.18192,62766
26.19125,61503
26.20060,59864
26.20993,57080
26.21928,58216
26.22862,55506
26.23795,57551
26.24730,60167
26.25663,56897
26.26597,59178
26.27532,59209
26.28465,58444
26.29398,59160
26.30333,60198
26.31267,62327
26.32200,60671
26.33135,58612
26.34068,60405
26.35002,57939
26.35937,57472
26.36870,59434
26.37803,57475
26.38738,58309
26.39672,60585
26.40607,58680
26.41540,57590
26.42473,59280
26.43408,59728
26.44342,60340
26.45275,66416
26.46210,68237
26.47143,67573
26.48077,67444
26.49012,67825
26.49945,69018
26.50878,69950
26.51813,72262
26.52747,76922
26.53680,80098
26.54615,79601
26.55548,76202
26.56483,74443
26.57417,71937
26.58350,73496
26.59285,76109
26.60218,76798
26.61152,79571
26.62087,76144
26.63020,71817
26.63953,71890
26.64888,70973
26.65822,77648
26.66755,76242
26.67690,76809
26.68623,72283
26.69557,68732
26.70492,69359
26.71425,69325
26.72358,68276
26.73293,67999
26.74227,67807
26.75162,68941
26.76095,69542
26.77028,69461
26.77963,70937
26.78897,71977
26.79830,71062
26.80765,72145
26.81698,69721
26.82632,67672
26.83567,70488
26.84500,70392
26.85433,73375
26.86368,72534
26.87302,72604
26.88235,68957
26.89170,68839
26.90103,65948
26.91037,66269
26.91972,65777
26.92905,66151
26.93840,66646
26.94773,64667
26.95707,64706
26.96642,66635
26.97575,66317
26.98508,66795
26.99443,67507
27.00377,67624
27.01310,65295
27.02245,67000
27.03178,68003
27.04112,70302
27.05047,75139
27.05980,72980
27.06913,74852
27.07848,71977
27.08782,68505
27.09715,70220
27.10650,67461
27.11583,71533
27.12518,77832
27.13452,81899
27.14385,82834
27.15320,81808
27.16253,73989
27.17187,72961
27.18122,66724
27.19055,64262
27.19988,65774
27.20923,67443
27.21857,64292
27.22790,67228
27.23725,71735
27.24658,75366
27.25592,87479
27.26527,88160
27.27460,80654
27.28393,68563
27.29328,68887
27.30262,68467
27.31197,67544
27.32130,66907
27.33063,65287
27.33998,66842
27.34932,65526
27.35865,67941
27.36800,73917
27.37733,76675
27.38667,77441
27.39602,75989
27.40535,73268
27.41468,71713
27.42403,78420
27.43337,80234
27.44270,79297
27.45205,74823
27.46138,73677
27.47073,71547
27.48007,74417
27.48940,72568
27.49875,72797
27.50808,72086
27.51742,74065
27.52677,75121
27.53610,73496
27.54543,72373
27.55478,69999
27.56412,71823
27.57345,72101
27.58280,70462
27.59213,70596
27.60147,71191
27.61082,69830
27.62015,71595
27.62948,73691
27.63883,74492
27.64817,77838
27.65752,87749
27.66685,115436
27.67618,159290
27.68553,189396
27.69487,167529
27.70420,133286
27.71355,109760
27.72288,100807
27.73222,93806
27.74157,90533
27.75090,85803
27.76023,86617
27.76958,87551
27.77892,85324
27.78825,86329
27.79760,87450
27.80693,85054
27.81627,83304
27.82562,80014
27.83495,79722
27.84430,80943
27.85363,79448
27.86297,77511
27.87232,78856
27.88165,82118
27.89098,81336
27.90033,80757
27.90967,82049
27.91900,85759
27.92835,94199
27.93768,98661
27.94702,101358
27.95637,94568
27.96570,90829
27.97503,89578
27.98438,89231
27.99372,84667
28.00305,85670
28.01240,83179
28.02173,83483
28.03108,80711
28.04042,81114
28.04975,84012
28.05910,82670
28.06843,84859
28.07777,83415
28.08712,81521
28.09645,80862
28.10578,81326
28.11513,83700
28.12447,82679
28.13380,83584
28.14315,84278
28.15248,85025
28.16182,85883
28.17117,84578
28.18050,86125
28.18985,85570
28.19918,84803
28.20852,81547
28.21787,82306
28.22720,82979
28.23653,84119
28.24588,82325
28.25522,81972
28.26455,79862
28.27390,80570
28.28323,79669
28.29257,80697
28.30192,81669
28.31125,80967
28.32058,80617
28.32993,79539
28.33927,78783
28.34860,81374
28.35795,80755
28.36728,83857
28.37663,82645
28.38597,84767
28.39530,87258
28.40465,86971
28.41398,88368
28.42332,87733
28.43267,89136
28.44200,88279
28.45133,86737
28.46068,87404
28.47002,88178
28.47935,87308
28.48870,84647
28.49803,86401
28.50737,86497
28.51672,86878
28.52605,87961
28.53538,89987
28.54473,88832
28.55407,89325
28.56342,90998
28.57275,92506
28.58208,99395
28.59143,111427
28.60077,111038
28.61010,110340
28.61945,107104
28.62878,101512
28.63812,92862
28.64747,91617
28.65680,105805
28.66613,146360
28.67548,213333
28.68482,243006
28.69415,202448
28.70350,144542
28.71283,108038
28.72217,94747
28.73152,95771
28.74085,90931
28.75020,88828
28.75953,87663
28.76887,90007
28.77822,86539
28.78755,88845
28.79688,84974
28.80623,88124
28.81557,87514
28.82490,91161
28.83425,89357
28.84358,93595
28.85292,92553
28.86227,91764
28.87160,95553
28.88093,97708
28.89028,100707
28.89962,100905
28.90895,106330
28.91830,105062
28.92763,103267
28.93698,103435
28.94632,109752
28.95565,118486
28.96500,128333
28.97433,132226
28.98367,128329
28.99302,113332
29.00235,107255
29.01168,104060
29.02103,105210
29.03037,103839
29.03970,101499
29.04905,102145
29.05838,98935
29.06772,100417
29.07707,99629
29.08640,97918
29.09573,99994
29.10508,99377
29.11442,95889
29.12377,98886
29.13310,95043
29.14243,99093
29.15178,97708
29.16112,96050
29.17045,96983
29.17980,94003
29.18913,97084
29.19847,101418
29.20782,104342
29.21715,101180
29.22648,95670
29.23583,95338
29.24517,97005
29.25450,100357
29.26385,101011
29.27318,100711
29.28253,98871
29.29187,97221
29.30120,96710
29.31055,95832
29.31988,94080
29.32922,95401
29.33857,94508
29.34790,97395
29.35723,93810
29.36658,98634
29.37592,97725
29.38525,97296
29.39460,95842
29.40393,96870
29.41327,96443
29.42262,95357
29.43195,97646
29.44128,99192
29.45063,100786
29.45997,104613
29.46932,109045
29.47865,114958
29.48798,110558
29.49733,105149
29.50667,102851
29.51600,100843
29.52535,98363
29.53468,101733
29.54402,100382
29.55337,97217
29.56270,98795
29.57203,94734
29.58138,96298
29.59072,94113
29.60005,94138
29.60940,95399
29.61873,94340
29.62807,93230
29.63742,94557
29.64675,93943
29.65610,94399
29.66543,96039
29.67477,94943
29.68412,91270
29.69345,95546
29.70278,96078
29.71213,98010
29.72147,97701
29.73080,105687
29.74015,103525
29.74948,106654
29.75882,101424
29.76817,100029
29.77750,98067
29.78683,97025
29.79618,96700
29.80552,95087
29.81485,92027
29.82420,90692
29.83353,89932
29.84288,90315
29.85222,93160
29.86155,93343
29.87090,94521
29.88023,97310
29.88957,97544
29.89892,99841
29.90825,97204
29.91758,101724
29.92693,104280
29.93627,110979
29.94560,110482
29.95495,110942
29.96428,117327
29.97362,140027
29.98297,177090
29.99230,201595
30.00165,204069
30.01098,187838
30.02032,168170
30.02967,151764
30.03900,143402
30.04833,138085
30.05768,130003
30.06702,128787
30.07635,123024
30.08570,119839
30.09503,117969
30.10437,117484
30.11372,117303
30.12305,115048
30.13238,115817
30.14173,114704
30.15107,113753
30.16040,115342
30.16975,109881
30.17908,109870
30.18843,107651
30.19777,110963
30.20710,111617
30.21645,111983
30.22578,114069
30.23512,113046
30.24447,114370
30.25380,109593
30.26313,108252
30.27248,113247
30.28182,116066
30.29115,121415
30.30050,118027
30.30983,117387
30.31917,114957
30.32852,112008
30.33785,110301
30.34718,110299
30.35653,111258
30.36587,108747
30.37522,111796
30.38455,110959
30.39388,115430
30.40323,116311
30.41257,115997
30.42190,117793
30.43125,115392
30.44058,112549
30.44992,116353
30.45927,118558
30.46860,116684
30.47793,118225
30.48728,118678
30.49662,118182
30.50595,118656
30.51530,115274
30.52463,115408
30.53397,117774
30.54332,117228
30.55265,115742
30.56200,118189
30.57133,118556
30.58067,118181
30.59002,117785
30.59935,122685
30.60868,126062
30.61803,131805
30.62737,140686
30.63670,154973
30.64605,161904
30.65538,172210
30.66472,160493
30.67407,144842
30.68340,138885
30.69273,128233
30.70208,124119
30.71142,121888
30.72075,122900
30.73010,118364
30.73943,118849
30.74878,118263
30.75812,117366
30.76745,117696
30.77680,118806
30.78613,117929
30.79547,116421
30.80482,116036
30.81415,114189
30.82348,112742
30.83283,115082
30.84217,114410
30.85150,114633
30.86085,114293
30.87018,114347
30.87952,117176
30.88887,114563
30.89820,115567
30.90753,114088
30.91688,118120
30.92622,117474
30.93557,119355
30.94490,120106
30.95423,117539
30.96358,119406
30.97292,113509
30.98225,114600
30.99160,113659
31.00093,114329
31.01027,112182
31.01962,112798
31.02895,113976
31.03828,110525
31.04763,112064
31.05697,109502
31.06630,110535
31.07565,107957
31.08498,109008
31.09433,112106
31.10367,110909
31.11300,109291
31.12235,111621
31.13168,110071
31.14102,108653
31.15037,111080
31.15970,110727
31.16903,108455
31.17838,112508
31.18772,111044
31.19705,111406
31.20640,108369
31.21573,112096
31.22507,112925
31.23442,113711
31.24375,114786
31.25308,116782
31.26243,115809
31.27177,111006
31.28112,111008
31.29045,112135
31.29978,109544
31.30913,107519
31.31847,108736
31.32780,107770
31.33715,108542
31.34648,106307
31.35582,106079
31.36517,108975
