D:\数据\20220111\ZS1E-Z-000285.D Tue Jan 11 18:56:24 2022
Start of data points
0.09767,23374
0.10700,23906
0.11635,23619
0.12568,24282
0.13502,23257
0.14437,23744
0.15370,23957
0.16303,24605
0.17238,23425
0.18172,23240
0.19105,23377
0.20040,22922
0.20973,22491
0.21907,22183
0.22842,21376
0.23775,22774
0.24708,22211
0.25643,21815
0.26577,22186
0.27510,22512
0.28445,22245
0.29378,22736
0.30313,21678
0.31247,22560
0.32180,22784
0.33115,22193
0.34048,22118
0.34982,23106
0.35917,21981
0.36850,23354
0.37783,21608
0.38718,21884
0.39652,22902
0.40585,21589
0.41520,21717
0.42453,21513
0.43387,21675
0.44322,21838
0.45255,21841
0.46190,18777
0.47123,15389
0.48057,12231
0.48992,8306
0.49925,5898
0.50858,5884
0.51793,5190
0.52727,6338
0.53660,5867
0.54595,5381
0.55528,5548
0.56462,5243
0.57397,5137
0.58330,5504
0.59263,4950
0.60198,4994
0.61132,5385
0.62065,4658
0.63000,4273
0.63933,5043
0.64868,5446
0.65802,4952
0.66735,4934
0.67670,5003
0.68603,5161
0.69537,4878
0.70472,4981
0.71405,4850
0.72338,5139
0.73273,4695
0.74207,4638
0.75140,4751
0.76075,4661
0.77008,4963
0.77942,4511
0.78877,4809
0.79810,5033
0.80743,4805
0.81678,5103
0.82612,4747
0.83547,5478
0.84480,4728
0.85413,4772
0.86348,5204
0.87282,5091
0.88215,4556
0.89150,4422
0.90083,4550
0.91017,4694
0.91952,5184
0.92885,4571
0.93818,4768
0.94753,4274
0.95687,4725
0.96620,4889
0.97555,4599
0.98488,3753
0.99422,4746
1.00357,4635
1.01290,4899
1.02225,4651
1.03158,4945
1.04092,4950
1.05027,4585
1.05960,4545
1.06893,5272
1.07828,5616
1.08762,4511
1.09695,4848
1.10630,4554
1.11563,4271
1.12497,4555
1.13432,4213
1.14365,4124
1.15298,4067
1.16233,4736
1.17167,4609
1.18102,5049
1.19035,4762
1.19968,4142
1.20903,4841
1.21837,4771
1.22770,4551
1.23705,4533
1.24638,4485
1.25572,4396
1.26507,4198
1.27440,5009
1.28373,4764
1.29308,4861
1.30242,4516
1.31175,4001
1.32110,4307
1.33043,4600
1.33977,4495
1.34912,4691
1.35845,4594
1.36780,4700
1.37713,4659
1.38647,4430
1.39582,4311
1.40515,4110
1.41448,3961
1.42383,4470
1.43317,4031
1.44250,4494
1.45185,4095
1.46118,4392
1.47052,3984
1.47987,3735
1.48920,4758
1.49853,4640
1.50788,4180
1.51722,4494
1.52655,4351
1.53590,4398
1.54523,4440
1.55458,3786
1.56392,4006
1.57325,4454
1.58260,4852
1.59193,4345
1.60127,4161
1.61062,4618
1.61995,7186
1.62928,13022
1.63863,19107
1.64797,22194
1.65730,31097
1.66665,44809
1.67598,55112
1.68532,57360
1.69467,53300
1.70400,41916
1.71333,30599
1.72268,19648
1.73202,17363
1.74137,19495
1.75070,20944
1.76003,22569
1.76938,24751
1.77872,25668
1.78805,27480
1.79740,27898
1.80673,27133
1.81607,27752
1.82542,26945
1.83475,27858
1.84408,25791
1.85343,27624
1.86277,27771
1.87210,30168
1.88145,36191
1.89078,48089
1.90012,62894
1.90947,80860
1.91880,97684
1.92815,123431
1.93748,157686
1.94682,201714
1.95617,233905
1.96550,232734
1.97483,205863
1.98418,159925
1.99352,126581
2.00285,107767
2.01220,98393
2.02153,99883
2.03087,106077
2.04022,97523
2.04955,80539
2.05888,67315
2.06823,57604
2.07757,60194
2.08692,71079
2.09625,75682
2.10558,60045
2.11493,51316
2.12427,58581
2.13360,140477
2.14295,272894
2.15228,255838
2.16162,184089
2.17097,123661
2.18030,94330
2.18963,105997
2.19898,114482
2.20832,87924
2.21765,69424
2.22700,79752
2.23633,120018
2.24567,165482
2.25502,634747
2.26435,1859586
2.27370,1934678
2.28303,1367450
2.29237,852402
2.30172,861040
2.31105,3238503
2.32038,7897003
2.32973,8017501
2.33907,4526121
2.34840,1966787
2.35775,826738
2.36708,386193
2.37642,214458
2.38577,149670
2.39510,120966
2.40443,105846
2.41378,97956
2.42312,83936
2.43245,73032
2.44180,62535
2.45113,59606
2.46048,53695
2.46982,53724
2.47915,49982
2.48850,48771
2.49783,45197
2.50717,43757
2.51652,41622
2.52585,42023
2.53518,44675
2.54453,50693
2.55387,56936
2.56320,62619
2.57255,366961
2.58188,387186
2.59122,298148
2.60057,216636
2.60990,158267
2.61923,132811
2.62858,114488
2.63792,97325
2.64727,94991
2.65660,91298
2.66593,81415
2.67528,64824
2.68462,57607
2.69395,51369
2.70330,48994
2.71263,51510
2.72197,57405
2.73132,66765
2.74065,72212
2.74998,76546
2.75933,79697
2.76867,81210
2.77800,101880
2.78735,130581
2.79668,140663
2.80603,116496
2.81537,91140
2.82470,76637
2.83405,68957
2.84338,64099
2.85272,69502
2.86207,76000
2.87140,71191
2.88073,74563
2.89008,70444
2.89942,63623
2.90875,56719
2.91810,54130
2.92743,51658
2.93677,47869
2.94612,42967
2.95545,40557
2.96478,40706
2.97413,40005
2.98347,43832
2.99282,60275
3.00215,90161
3.01148,95441
3.02083,80096
3.03017,59408
3.03950,47760
3.04885,52476
3.05818,61428
3.06752,74878
3.07687,75238
3.08620,62826
3.09553,51253
3.10488,42095
3.11422,38113
3.12355,38188
3.13290,39201
3.14223,38858
3.15157,40600
3.16092,43016
3.17025,43029
3.17960,39414
3.18893,37972
3.19827,36360
3.20762,34617
3.21695,36277
3.22628,36203
3.23563,36658
3.24497,36383
3.25430,36466
3.26365,36275
3.27298,36152
3.28232,34041
3.29167,36125
3.30100,35389
3.31033,36678
3.31968,36192
3.32902,35289
3.33835,34331
3.34770,33950
3.35703,33725
3.36638,34140
3.37572,33534
3.38505,32442
3.39440,33060
3.40373,35227
3.41307,39665
3.42242,42470
3.43175,40797
3.44108,39350
3.45043,40288
3.45977,38873
3.46910,36579
3.47845,36639
3.48778,38079
3.49712,39838
3.50647,39110
3.51580,34958
3.52513,35073
3.53448,36682
3.54382,50258
3.55317,103685
3.56250,213245
3.57183,285089
3.58118,242709
3.59052,149572
3.59985,87149
3.60920,60845
3.61853,49321
3.62787,44329
3.63722,46069
3.64655,43305
3.65588,42325
3.66523,40711
3.67457,41783
3.68390,42437
3.69325,38985
3.70258,37063
3.71193,36507
3.72127,39914
3.73060,41508
3.73995,36725
3.74928,37982
3.75862,36050
3.76797,35550
3.77730,34373
3.78663,33752
3.79598,33422
3.80532,37071
3.81465,42818
3.82400,44567
3.83333,41717
3.84267,39827
3.85202,35878
3.86135,36108
3.87068,35733
3.88003,34774
3.88937,37194
3.89872,40302
3.90805,40240
3.91738,41011
3.92673,41443
3.93607,42995
3.94540,46629
3.95475,55549
3.96408,64353
3.97342,58920
3.98277,47898
3.99210,39650
4.00143,37882
4.01078,35358
4.02012,34378
4.02945,34387
4.03880,36032
4.04813,37006
4.05747,35988
4.06682,36695
4.07615,44327
4.08550,57354
4.09483,63115
4.10417,58240
4.11352,48363
4.12285,40592
4.13218,37321
4.14153,36727
4.15087,36136
4.16020,35704
4.16955,36477
4.17888,34842
4.18822,33793
4.19757,33866
4.20690,36324
4.21623,36411
4.22558,36079
4.23492,34848
4.24425,32309
4.25360,32412
4.26293,33567
4.27228,35085
4.28162,38200
4.29095,38006
4.30030,36380
4.30963,34100
4.31897,35456
4.32832,35804
4.33765,35972
4.34698,36423
4.35633,36222
4.36567,33693
4.37500,32715
4.38435,33302
4.39368,32948
4.40302,32932
4.41237,34009
4.42170,32938
4.43105,31747
4.44038,31199
4.44972,31971
4.45907,32129
4.46840,33759
4.47773,37490
4.48708,40805
4.49642,38371
4.50575,36846
4.51510,34673
4.52443,33353
4.53377,32026
4.54312,32509
4.55245,34266
4.56178,34161
4.57113,35350
4.58047,34980
4.58980,33938
4.59915,33415
4.60848,32444
4.61783,32582
4.62717,31832
4.63650,31560
4.64585,32462
4.65518,33284
4.66452,35647
4.67387,36349
4.68320,35938
4.69253,33524
4.70188,32343
4.71122,31760
4.72055,31571
4.72990,29390
4.73923,31431
4.74857,35056
4.75792,37837
4.76725,38542
4.77658,36631
4.78593,34741
4.79527,35222
4.80462,34922
4.81395,32784
4.82328,33829
4.83263,33437
4.84197,34187
4.85130,31993
4.86065,32830
4.86998,32457
4.87932,34061
4.88867,34946
4.89800,37851
4.90733,41089
4.91668,39993
4.92602,37078
4.93535,37263
4.94470,35741
4.95403,33890
4.96337,33578
4.97272,32500
4.98205,31384
4.99140,30077
5.00073,31460
5.01007,32161
5.01942,32833
5.02875,34403
5.03808,34175
5.04743,35015
5.05677,33102
5.06610,34044
5.07545,33808
5.08478,35623
5.09412,36061
5.10347,35952
5.11280,32712
5.12213,31165
5.13148,33141
5.14082,35961
5.15015,37744
5.15950,37149
5.16883,33707
5.17818,30914
5.18752,30183
5.19685,32217
5.20620,33271
5.21553,33520
5.22487,32520
5.23422,34067
5.24355,35967
5.25288,36453
5.26223,38073
5.27157,50579
5.28090,94718
5.29025,147898
5.29958,152751
5.30892,117335
5.31827,80073
5.32760,65161
5.33695,55953
5.34628,46432
5.35562,39734
5.36497,39674
5.37430,39368
5.38363,41671
5.39298,49736
5.40232,51713
5.41165,50197
5.42100,43128
5.43033,40189
5.43967,36904
5.44902,34408
5.45835,33325
5.46768,34607
5.47703,35353
5.48637,33893
5.49570,35223
5.50505,35060
5.51438,38239
5.52373,42965
5.53307,47330
5.54240,47552
5.55175,40225
5.56108,36250
5.57042,34742
5.57977,34313
5.58910,33403
5.59843,33640
5.60778,34650
5.61712,32787
5.62645,32087
5.63580,32990
5.64513,32785
5.65447,34329
5.66382,33436
5.67315,33460
5.68248,35008
5.69183,33461
5.70117,37001
5.71052,37322
5.71985,36475
5.72918,37174
5.73853,41193
5.74787,49260
5.75720,57891
5.76655,53734
5.77588,41270
5.78522,36982
5.79457,35964
5.80390,34652
5.81323,36733
5.82258,36230
5.83192,39789
5.84125,37029
5.85060,36082
5.85993,34785
5.86927,33204
5.87862,28944
5.88795,24722
5.89730,24829
5.90663,32475
5.91597,67455
5.92532,126433
5.93465,142172
5.94398,98661
5.95333,69222
5.96267,64344
5.97200,56296
5.98135,45837
5.99068,38364
6.00002,33591
6.00937,27215
6.01870,23799
6.02803,19671
6.03738,17281
6.04672,14817
6.05607,14017
6.06540,16930
6.07473,17799
6.08408,16684
6.09342,14426
6.10275,13083
6.11210,13087
6.12143,16052
6.13077,20533
6.14012,23985
6.14945,21392
6.15878,16850
6.16813,14723
6.17747,13750
6.18680,14326
6.19615,14327
6.20548,13850
6.21482,15006
6.22417,14144
6.23350,16791
6.24285,18856
6.25218,17502
6.26152,14228
6.27087,14198
6.28020,14210
6.28953,16969
6.29888,17111
6.30822,15443
6.31755,13814
6.32690,12124
6.33623,13543
6.34557,13181
6.35492,12646
6.36425,13844
6.37358,15758
6.38293,18887
6.39227,26454
6.40160,56816
6.41095,133589
6.42028,196747
6.42963,158521
6.43897,81959
6.44830,35166
6.45765,21869
6.46698,19683
6.47632,18870
6.48567,17841
6.49500,15905
6.50433,17649
6.51368,18601
6.52302,17711
6.53235,16195
6.54170,15691
6.55103,15671
6.56037,15015
6.56972,14441
6.57905,14598
6.58838,16122
6.59773,17269
6.60707,17690
6.61642,17832
6.62575,17308
6.63508,16229
6.64443,16587
6.65377,14291
6.66310,16579
6.67245,15950
6.68178,16614
6.69112,16109
6.70047,14549
6.70980,16005
6.71913,15606
6.72848,16241
6.73782,14834
6.74715,16505
6.75650,13923
6.76583,15444
6.77517,14467
6.78452,15397
6.79385,17054
6.80320,19420
6.81253,17877
6.82187,16920
6.83122,15404
6.84055,14524
6.84988,14777
6.85923,14187
6.86857,15306
6.87790,14697
6.88725,14136
6.89658,15027
6.90592,15017
6.91527,16995
6.92460,16240
6.93393,15289
6.94328,13377
6.95262,14207
6.96197,13219
6.97130,14429
6.98063,14704
6.98998,14376
6.99932,14506
7.00865,13288
7.01800,13781
7.02733,13351
7.03667,12058
7.04602,14000
7.05535,11741
7.06468,12062
7.07403,11641
7.08337,12046
7.09270,12118
7.10205,14611
7.11138,14389
7.12072,15429
7.13007,14394
7.13940,14041
7.14875,13672
7.15808,13102
7.16742,13438
7.17677,13255
7.18610,12559
7.19543,11504
7.20478,12718
7.21412,13903
7.22345,15811
7.23280,27467
7.24213,45212
7.25147,52746
7.26082,38253
7.27015,24539
7.27948,20089
7.28883,18845
7.29817,17951
7.30750,17233
7.31685,14057
7.32618,12809
7.33553,11594
7.34487,12192
7.35420,11836
7.36355,11118
7.37288,12014
7.38222,13650
7.39157,23180
7.40090,45331
7.41023,75617
7.41958,85434
7.42892,63440
7.43825,39427
7.44760,22629
7.45693,15225
7.46627,13464
7.47562,12889
7.48495,14508
7.49428,17222
7.50363,18288
7.51297,16935
7.52232,14012
7.53165,13805
7.54098,12588
7.55033,12962
7.55967,13192
7.56900,15613
7.57835,15933
7.58768,15380
7.59702,13824
7.60637,12652
7.61570,12792
7.62503,13718
7.63438,13516
7.64372,14847
7.65305,14485
7.66240,13730
7.67173,11402
7.68108,11985
7.69042,12743
7.69975,12169
7.70910,13718
7.71843,14105
7.72777,14050
7.73712,12899
7.74645,13041
7.75578,13588
7.76513,14722
7.77447,16320
7.78380,15491
7.79315,15151
7.80248,14653
7.81182,12436
7.82117,12811
7.83050,13036
7.83983,13436
7.84918,16874
7.85852,27287
7.86787,47667
7.87720,55835
7.88653,42480
7.89588,28834
7.90522,26366
7.91455,36676
7.92390,50500
7.93323,47684
7.94257,33854
7.95192,22482
7.96125,23653
7.97058,30473
7.97993,38418
7.98927,42580
7.99860,37791
8.00795,27821
8.01728,22091
8.02662,20056
8.03597,23602
8.04530,30078
8.05465,30848
8.06398,23350
8.07332,16450
8.08267,14527
8.09200,19488
8.10133,28889
8.11068,32840
8.12002,27590
8.12935,20657
8.13870,17492
8.14803,15395
8.15737,13698
8.16672,14323
8.17605,14787
8.18538,14334
8.19473,12935
8.20407,14020
8.21340,13980
8.22275,13564
8.23208,12308
8.24143,13996
8.25077,14496
8.26010,15112
8.26945,15541
8.27878,13579
8.28812,13528
8.29747,14244
8.30680,13696
8.31613,12968
8.32548,13299
8.33482,12606
8.34415,13598
8.35350,13253
8.36283,13419
8.37217,13092
8.38152,12671
8.39085,13475
8.40018,13246
8.40953,15395
8.41887,16043
8.42822,17402
8.43755,18581
8.44688,17238
8.45623,15988
8.46557,18250
8.47490,17484
8.48425,17415
8.49358,17597
8.50292,16914
8.51227,16504
8.52160,14872
8.53093,15082
8.54028,14754
8.54962,16177
8.55895,18805
8.56830,18812
8.57763,17822
8.58698,16732
8.59632,16300
8.60565,17887
8.61500,20173
8.62433,18062
8.63367,18367
8.64302,18036
8.65235,16366
8.66168,17896
8.67103,17643
8.68037,17157
8.68970,17157
8.69905,18739
8.70838,18229
8.71772,16225
8.72707,17055
8.73640,17613
8.74573,23683
8.75508,31543
8.76442,32832
8.77377,26419
8.78310,20097
8.79243,18847
8.80178,22232
8.81112,30840
8.82045,33796
8.82980,28037
8.83913,21386
8.84847,17513
8.85782,17121
8.86715,19274
8.87648,19767
8.88583,20708
8.89517,19857
8.90450,18923
8.91385,18877
8.92318,19399
8.93252,19629
8.94187,21293
8.95120,19651
8.96055,16947
8.96988,15640
8.97922,16723
8.98857,17416
8.99790,17155
9.00723,17117
9.01658,17448
9.02592,17301
9.03525,18060
9.04460,18124
9.05393,18192
9.06327,20035
9.07262,23406
9.08195,27993
9.09128,32335
9.10063,30987
9.10997,26333
9.11930,22509
9.12865,28657
9.13798,37082
9.14733,37843
9.15667,29894
9.16600,22598
9.17535,19560
9.18468,18892
9.19402,18730
9.20337,20082
9.21270,20679
9.22203,27963
9.23138,45016
9.24072,54859
9.25005,46381
9.25940,28718
9.26873,19088
9.27807,16695
9.28742,17085
9.29675,16806
9.30610,17115
9.31543,21249
9.32477,33202
9.33412,49497
9.34345,46344
9.35278,35176
9.36213,39558
9.37147,74513
9.38080,113136
9.39015,110490
9.39948,79287
9.40882,49114
9.41817,38161
9.42750,32694
9.43683,28159
9.44618,21697
9.45552,18401
9.46485,17265
9.47420,17089
9.48353,17367
9.49288,21247
9.50222,23743
9.51155,22068
9.52090,18795
9.53023,18684
9.53957,19452
9.54892,24614
9.55825,38323
9.56758,52903
9.57693,50126
9.58627,34980
9.59560,31316
9.60495,38675
9.61428,36927
9.62362,26082
9.63297,20024
9.64230,19025
9.65163,18003
9.66098,17305
9.67032,18106
9.67967,19409
9.68900,19890
9.69833,18760
9.70768,16745
9.71702,15584
9.72635,23647
9.73570,59403
9.74503,136599
9.75437,211125
9.76372,192176
9.77305,127953
9.78238,81688
9.79173,56689
9.80107,47904
9.81040,40636
9.81975,43674
9.82908,50619
9.83842,59870
9.84777,71710
9.85710,66150
9.86645,52085
9.87578,39933
9.88512,47556
9.89447,62005
9.90380,97512
9.91313,188021
9.92248,279517
9.93182,231025
9.94115,128201
9.95050,62644
9.95983,39932
9.96917,36125
9.97852,61658
9.98785,111099
9.99718,133806
10.00653,94548
10.01587,50997
10.02520,33860
10.03455,29529
10.04388,27741
10.05323,28292
10.06257,31581
10.07190,34699
10.08125,35875
10.09058,31001
10.09992,27722
10.10927,38173
10.11860,95040
10.12793,209161
10.13728,278849
10.14662,404930
10.15595,1298753
10.16530,3093918
10.17463,3721612
10.18397,2179105
10.19332,625564
10.20265,118605
10.21198,42594
10.22133,33841
10.23067,41700
10.24002,69291
10.24935,91729
10.25868,80675
10.26803,49307
10.27737,32918
10.28670,28082
10.29605,29894
10.30538,25648
10.31472,23927
10.32407,23191
10.33340,21569
10.34273,21277
10.35208,19886
10.36142,20793
10.37075,20302
10.38010,19736
10.38943,19054
10.39878,18988
10.40812,18577
10.41745,17359
10.42680,20134
10.43613,18382
10.44547,19986
10.45482,21372
10.46415,25074
10.47348,23294
10.48283,20879
10.49217,17635
10.50150,16561
10.51085,16358
10.52018,17694
10.52952,16847
10.53887,18169
10.54820,18844
10.55753,16949
10.56688,17473
10.57622,18800
10.58557,18907
10.59490,18960
10.60423,18173
10.61358,17984
10.62292,17463
10.63225,19802
10.64160,22931
10.65093,19647
10.66027,19378
10.66962,20600
10.67895,19525
10.68828,22115
10.69763,20703
10.70697,21739
10.71630,26398
10.72565,29188
10.73498,26687
10.74432,21652
10.75367,24866
10.76300,33916
10.77235,42184
10.78168,43556
10.79102,51800
10.80037,84255
10.80970,119330
10.81903,105089
10.82838,58791
10.83772,32716
10.84705,22970
10.85640,19893
10.86573,21182
10.87507,22842
10.88442,26448
10.89375,28176
10.90308,24397
10.91243,21906
10.92177,23683
10.93110,28965
10.94045,26614
10.94978,22374
10.95913,19901
10.96847,19295
10.97780,19805
10.98715,16305
10.99648,16995
11.00582,16803
11.01517,15744
11.02450,17485
11.03383,16158
11.04318,17060
11.05252,16400
11.06185,14673
11.07120,15796
11.08053,15915
11.08987,16911
11.09922,17489
11.10855,18012
11.11790,20028
11.12723,19733
11.13657,18853
11.14592,17525
11.15525,17362
11.16458,17197
11.17393,17590
11.18327,17892
11.19260,17806
11.20195,17151
11.21128,16982
11.22062,17807
11.22997,18119
11.23930,17452
11.24863,16843
11.25798,17568
11.26732,17922
11.27665,18015
11.28600,17722
11.29533,16924
11.30468,16920
11.31402,17422
11.32335,15817
11.33270,18104
11.34203,21349
11.35137,24441
11.36072,27122
11.37005,27754
11.37938,23431
11.38873,20741
11.39807,22296
11.40740,26325
11.41675,26456
11.42608,26116
11.43542,22327
11.44477,20200
11.45410,19134
11.46343,24129
11.47278,31081
11.48212,34033
11.49147,25129
11.50080,18717
11.51013,16778
11.51948,16097
11.52882,15670
11.53815,15646
11.54750,15712
11.55683,17240
11.56617,23771
11.57552,37162
11.58485,49630
11.59418,55209
11.60353,47803
11.61287,39487
11.62220,33108
11.63155,32468
11.64088,27006
11.65022,23995
11.65957,21851
11.66890,20194
11.67825,20735
11.68758,20478
11.69692,19572
11.70627,19580
11.71560,20317
11.72493,19538
11.73428,19617
11.74362,19962
11.75295,18812
11.76230,18827
11.77163,19766
11.78097,20754
11.79032,20971
11.79965,19812
11.80898,18329
11.81833,17713
11.82767,19265
11.83700,19045
11.84635,22170
11.85568,21901
11.86503,19218
11.87437,19970
11.88370,20509
11.89305,19084
11.90238,19888
11.91172,18197
11.92107,17016
11.93040,19081
11.93973,23481
11.94908,28624
11.95842,29118
11.96775,24026
11.97710,19469
11.98643,17524
11.99577,19902
12.00512,26260
12.01445,37292
12.02380,40878
12.03313,34058
12.04247,23384
12.05182,21783
12.06115,19236
12.07048,18544
12.07983,17887
12.08917,17048
12.09850,18097
12.10785,18328
12.11718,19623
12.12652,18405
12.13587,18685
12.14520,17674
12.15453,20781
12.16388,32899
12.17322,66937
12.18255,102668
12.19190,87800
12.20123,47406
12.21058,24653
12.21992,21260
12.22925,23182
12.23860,26264
12.24793,23510
12.25727,29058
12.26662,73386
12.27595,211868
12.28528,341369
12.29463,290827
12.30397,146667
12.31330,60803
12.32265,37837
12.33198,29856
12.34132,28365
12.35067,26399
12.36000,21921
12.36933,21321
12.37868,20811
12.38802,21404
12.39737,22639
12.40670,22957
12.41603,21575
12.42538,20693
12.43472,20753
12.44405,19985
12.45340,20492
12.46273,22164
12.47207,22950
12.48142,23563
12.49075,21629
12.50008,22173
12.50943,22641
12.51877,22195
12.52810,21658
12.53745,23534
12.54678,21943
12.55612,24284
12.56547,24892
12.57480,29483
12.58415,28064
12.59348,22437
12.60282,20509
12.61217,20494
12.62150,20484
12.63083,21919
12.64018,26041
12.64952,27512
12.65885,28035
12.66820,26913
12.67753,23207
12.68687,19390
12.69622,18753
12.70555,17174
12.71488,18766
12.72423,18249
12.73357,19738
12.74292,21233
12.75225,22739
12.76158,22556
12.77093,21310
12.78027,18768
12.78960,18725
12.79895,19085
12.80828,18316
12.81762,19330
12.82697,19873
12.83630,18902
12.84563,19497
12.85498,18572
12.86432,17569
12.87365,19712
12.88300,18364
12.89233,18700
12.90167,19839
12.91102,20065
12.92035,19121
12.92970,18552
12.93903,17393
12.94837,18709
12.95772,19589
12.96705,19296
12.97638,17453
12.98573,17080
12.99507,15175
13.00440,14910
13.01375,16548
13.02308,20427
13.03242,24458
13.04177,28738
13.05110,25493
13.06043,20954
13.06978,19022
13.07912,21124
13.08845,22174
13.09780,22251
13.10713,20992
13.11648,19691
13.12582,21410
13.13515,24812
13.14450,24890
13.15383,22645
13.16317,20765
13.17252,19974
13.18185,21996
13.19118,32077
13.20053,80826
13.20987,166830
13.21920,218119
13.22855,168923
13.23788,90958
13.24722,67157
13.25657,67014
13.26590,49285
13.27523,29973
13.28458,24425
13.29392,22195
13.30327,20665
13.31260,20914
13.32193,23100
13.33128,23620
13.34062,24712
13.34995,25356
13.35930,24312
13.36863,23445
13.37797,22751
13.38732,20992
13.39665,24073
13.40598,25288
13.41533,23582
13.42467,21036
13.43400,22275
13.44335,25924
13.45268,26461
13.46202,24227
13.47137,24141
13.48070,26608
13.49005,26403
13.49938,22737
13.50872,24125
13.51807,46927
13.52740,81189
13.53673,102263
13.54608,77469
13.55542,41992
13.56475,25955
13.57410,21970
13.58343,18513
13.59277,19597
13.60212,19674
13.61145,19165
13.62078,18716
13.63013,19329
13.63947,19918
13.64880,20385
13.65815,22699
13.66748,22873
13.67683,20079
13.68617,19209
13.69550,16622
13.70485,16703
13.71418,16235
13.72352,16633
13.73287,15474
13.74220,16373
13.75153,16561
13.76088,18977
13.77022,17932
13.77955,18779
13.78890,21223
13.79823,27157
13.80757,32741
13.81692,29917
13.82625,26088
13.83560,20704
13.84493,17508
13.85427,19048
13.86362,19805
13.87295,22093
13.88228,25891
13.89163,35872
13.90097,65874
13.91030,147777
13.91965,256012
13.92898,271397
13.93832,152840
13.94767,62374
13.95700,33918
13.96633,28004
13.97568,24515
13.98502,23692
13.99435,22945
14.00370,22980
14.01303,23153
14.02238,21102
14.03172,23379
14.04105,62200
14.05040,410178
14.05973,2002401
14.06907,5320159
14.07842,7626672
14.08775,5424704
14.09708,1700445
14.10643,282416
14.11577,59498
14.12510,37228
14.13445,32569
14.14378,31107
14.15312,33927
14.16247,37101
14.17180,41357
14.18113,52518
14.19048,91796
14.19982,137660
14.20917,127019
14.21850,77593
14.22783,38451
14.23718,27780
14.24652,24052
14.25585,21829
14.26520,22479
14.27453,23097
14.28387,21137
14.29322,19915
14.30255,19846
14.31188,21577
14.32123,24763
14.33057,30224
14.33990,36239
14.34925,30539
14.35858,26855
14.36792,20730
14.37727,20090
14.38660,19746
14.39595,19193
14.40528,19108
14.41462,19246
14.42397,17316
14.43330,18519
14.44263,18737
14.45198,22706
14.46132,27803
14.47065,32845
14.48000,32698
14.48933,26102
14.49867,20901
14.50802,19779
14.51735,20405
14.52668,17806
14.53603,17954
14.54537,17593
14.55472,18671
14.56405,19370
14.57338,19322
14.58273,19702
14.59207,18301
14.60140,16916
14.61075,17648
14.62008,17272
14.62942,18096
14.63877,19799
14.64810,22202
14.65743,27174
14.66678,30354
14.67612,27227
14.68545,24388
14.69480,21760
14.70413,19452
14.71347,18318
14.72282,19393
14.73215,18811
14.74150,20132
14.75083,19094
14.76017,19573
14.76952,18560
14.77885,18634
14.78818,18354
14.79753,17833
14.80687,18526
14.81620,18555
14.82555,18932
14.83488,17788
14.84422,18966
14.85357,17976
14.86290,22379
14.87223,29630
14.88158,31706
14.89092,27402
14.90025,20825
14.90960,18923
14.91893,18033
14.92828,18600
14.93762,17650
14.94695,17507
14.95630,16749
14.96563,18579
14.97497,21294
14.98432,21370
14.99365,20370
15.00298,22589
15.01233,24460
15.02167,24475
15.03100,20413
15.04035,20472
15.04968,21174
15.05902,21351
15.06837,21978
15.07770,22329
15.08703,19389
15.09638,18346
15.10572,17212
15.11507,18877
15.12440,20964
15.13373,23950
15.14308,25278
15.15242,20463
15.16175,17294
15.17110,17216
15.18043,17249
15.18977,19389
15.19912,23721
15.20845,34107
15.21778,46911
15.22713,47041
15.23647,39620
15.24580,27280
15.25515,21496
15.26448,20146
15.27382,19515
15.28317,20285
15.29250,18697
15.30185,19639
15.31118,20141
15.32052,19584
15.32987,21453
15.33920,21093
15.34853,22101
15.35788,22118
15.36722,22909
15.37655,23939
15.38590,22308
15.39523,20069
15.40457,19444
15.41392,19608
15.42325,20943
15.43258,21679
15.44193,19887
15.45127,19067
15.46062,18636
15.46995,18224
15.47928,19984
15.48863,21020
15.49797,24262
15.50730,27252
15.51665,33336
15.52598,39510
15.53532,34747
15.54467,25916
15.55400,22083
15.56333,19284
15.57268,18530
15.58202,19202
15.59135,19105
15.60070,20592
15.61003,20578
15.61937,21732
15.62872,23792
15.63805,24128
15.64740,23158
15.65673,25181
15.66607,26314
15.67542,25088
15.68475,22286
15.69408,23717
15.70343,29577
15.71277,33842
15.72210,29215
15.73145,23108
15.74078,22316
15.75012,23687
15.75947,26624
15.76880,25038
15.77813,25878
15.78748,23493
15.79682,21411
15.80615,20645
15.81550,21322
15.82483,28097
15.83418,56073
15.84352,90605
15.85285,100164
15.86220,67488
15.87153,37449
15.88087,28904
15.89022,29473
15.89955,33144
15.90888,34354
15.91823,29546
15.92757,24217
15.93690,22389
15.94625,21429
15.95558,19368
15.96492,21453
15.97427,23369
15.98360,29362
15.99293,37221
16.00228,39567
16.01162,33568
16.02097,25782
16.03030,22292
16.03963,21268
16.04898,20395
16.05832,21754
16.06765,23066
16.07700,22470
16.08633,19978
16.09567,19810
16.10502,20496
16.11435,23453
16.12368,23234
16.13303,24014
16.14237,22283
16.15170,20578
16.16105,20706
16.17038,20045
16.17973,20851
16.18907,20189
16.19840,23238
16.20775,24486
16.21708,23836
16.22642,26468
16.23577,28539
16.24510,29307
16.25443,28203
16.26378,24595
16.27312,32259
16.28245,62776
16.29180,151660
16.30113,232765
16.31047,217123
16.31982,120937
16.32915,48944
16.33848,27283
16.34783,21154
16.35717,19374
16.36652,19270
16.37585,18420
16.38518,19718
16.39453,18211
16.40387,20258
16.41320,19538
16.42255,19539
16.43188,19180
16.44122,20354
16.45057,23587
16.45990,26778
16.46923,26288
16.47858,24510
16.48792,24677
16.49725,24556
16.50660,22885
16.51593,24025
16.52527,24754
16.53462,22683
16.54395,21199
16.55330,20177
16.56263,19283
16.57197,19965
16.58132,20460
16.59065,20320
16.59998,20179
16.60933,19241
16.61867,20414
16.62800,23431
16.63735,25583
16.64668,25394
16.65602,25353
16.66537,23119
16.67470,22730
16.68403,24840
16.69338,27757
16.70272,27957
16.71205,25271
16.72140,22618
16.73073,22966
16.74008,35266
16.74942,63690
16.75875,76285
16.76810,56797
16.77743,31599
16.78677,23047
16.79612,19636
16.80545,19893
16.81478,20312
16.82413,23621
16.83347,26127
16.84280,25449
16.85215,22965
16.86148,20992
16.87082,19954
16.88017,18918
16.88950,19452
16.89883,19530
16.90818,23549
16.91752,26780
16.92687,28417
16.93620,25633
16.94553,25650
16.95488,28565
16.96422,32081
16.97355,31428
16.98290,25904
16.99223,22858
17.00157,20570
17.01092,21671
17.02025,27525
17.02958,42902
17.03893,60770
17.04827,53420
17.05760,36220
17.06695,25974
17.07628,23890
17.08563,22452
17.09497,22177
17.10430,22371
17.11365,20807
17.12298,20286
17.13232,23058
17.14167,24140
17.15100,24431
17.16033,21109
17.16968,18791
17.17902,20431
17.18835,18559
17.19770,19618
17.20703,19021
17.21637,18714
17.22572,19227
17.23505,19942
17.24438,19006
17.25373,18735
17.26307,20149
17.27242,22818
17.28175,23994
17.29108,25841
17.30043,24640
17.30977,24855
17.31910,24736
17.32845,25766
17.33778,24251
17.34712,22112
17.35647,22936
17.36580,24921
17.37513,42382
17.38448,86888
17.39382,123862
17.40315,95850
17.41250,52094
17.42183,30089
17.43117,25880
17.44052,24983
17.44985,24479
17.45920,25082
17.46853,24528
17.47787,26446
17.48722,54027
17.49655,267622
17.50588,1004068
17.51523,1965610
17.52457,1895675
17.53390,953779
17.54325,253939
17.55258,60129
17.56192,32270
17.57127,30228
17.58060,31037
17.58993,31033
17.59928,29644
17.60862,26079
17.61795,23839
17.62730,22920
17.63663,22321
17.64598,22684
17.65532,24815
17.66465,26268
17.67400,29021
17.68333,31700
17.69267,34162
17.70202,34312
17.71135,31002
17.72068,28774
17.73003,25479
17.73937,23000
17.74870,23667
17.75805,26479
17.76738,29638
17.77672,27877
17.78607,27933
17.79540,26072
17.80475,25939
17.81408,23428
17.82342,21563
17.83277,20483
17.84210,20564
17.85143,24507
17.86078,28477
17.87012,31568
17.87945,30978
17.88880,27522
17.89813,25819
17.90747,21917
17.91682,21018
17.92615,20868
17.93548,20373
17.94483,21092
17.95417,20850
17.96350,20102
17.97285,20392
17.98218,21294
17.99153,21498
18.00087,19700
18.01020,20236
18.01955,20101
18.02888,20417
18.03822,20070
18.04757,20593
18.05690,21323
18.06623,22356
18.07558,20583
18.08492,19700
18.09425,20591
18.10360,20388
18.11293,20341
18.12227,22563
18.13162,22038
18.14095,22260
18.15028,21243
18.15963,21636
18.16897,21644
18.17832,21179
18.18765,20596
18.19698,20992
18.20633,20316
18.21567,19484
18.22500,20174
18.23435,21299
18.24368,20542
18.25302,21141
18.26237,20471
18.27170,20827
18.28103,22037
18.29038,23715
18.29972,24280
18.30905,25930
18.31840,24855
18.32773,25148
18.33707,27116
18.34642,29433
18.35575,31333
18.36510,32314
18.37443,27413
18.38377,27595
18.39312,32877
18.40245,49763
18.41178,63881
18.42113,65020
18.43047,50429
18.43980,38714
18.44915,34370
18.45848,31646
18.46782,26735
18.47717,23649
18.48650,26108
18.49583,29525
18.50518,37251
18.51452,41318
18.52385,41711
18.53320,34421
18.54253,29737
18.55188,26858
18.56122,26844
18.57055,25340
18.57990,22802
18.58923,22250
18.59857,22233
18.60792,24889
18.61725,26779
18.62658,26784
18.63593,25263
18.64527,25245
18.65460,22511
18.66395,24687
18.67328,25478
18.68262,26313
18.69197,26679
18.70130,27979
18.71063,27758
18.71998,28657
18.72932,28792
18.73867,26838
18.74800,26377
18.75733,22849
18.76668,21791
18.77602,21840
18.78535,20492
18.79470,20303
18.80403,22222
18.81337,22543
18.82272,22832
18.83205,22319
18.84138,21926
18.85073,21415
18.86007,20651
18.86940,21117
18.87875,20054
18.88808,19833
18.89743,20968
18.90677,22723
18.91610,26009
18.92545,28549
18.93478,25546
18.94412,26640
18.95347,29110
18.96280,28321
18.97213,29505
18.98148,27295
18.99082,25960
19.00015,24501
19.00950,23523
19.01883,23275
19.02817,22359
19.03752,25388
19.04685,36427
19.05618,50703
19.06553,64265
19.07487,76376
19.08422,99695
19.09355,104626
19.10288,73514
19.11223,42440
19.12157,29603
19.13090,23973
19.14025,21857
19.14958,21176
19.15892,20807
19.16827,19421
19.17760,21665
19.18693,23651
19.19628,26009
19.20562,26213
19.21495,26213
19.22430,24836
19.23363,24665
19.24297,22699
19.25232,22280
19.26165,22944
19.27100,22531
19.28033,26073
19.28967,27008
19.29902,27637
19.30835,32925
19.31768,35846
19.32703,35600
19.33637,29736
19.34570,24342
19.35505,21874
19.36438,21071
19.37372,20533
19.38307,20194
19.39240,20502
19.40173,22388
19.41108,23759
19.42042,21440
19.42975,22097
19.43910,20895
19.44843,21921
19.45778,21894
19.46712,21078
19.47645,22059
19.48580,23606
19.49513,24359
19.50447,23815
19.51382,21779
19.52315,22062
19.53248,22287
19.54183,22608
19.55117,23535
19.56050,21668
19.56985,23362
19.57918,25040
19.58852,26338
19.59787,25204
19.60720,23589
19.61655,22106
19.62588,22380
19.63522,26234
19.64457,28200
19.65390,27571
19.66323,23290
19.67258,22853
19.68192,22918
19.69125,22878
19.70060,24270
19.70993,23526
19.71927,30251
19.72862,37260
19.73795,45211
19.74728,39249
19.75663,31172
19.76597,25857
19.77530,27377
19.78465,26583
19.79398,26039
19.80333,25131
19.81267,23833
19.82200,21843
19.83135,22105
19.84068,21696
19.85002,20216
19.85937,22143
19.86870,29168
19.87803,38003
19.88738,41398
19.89672,33785
19.90605,27608
19.91540,24745
19.92473,24216
19.93407,23075
19.94342,25110
19.95275,35295
19.96208,45074
19.97143,48447
19.98077,37087
19.99012,28956
19.99945,25542
20.00878,23745
20.01813,26478
20.02747,26463
20.03680,26845
20.04615,26241
20.05548,26124
20.06482,26415
20.07417,25448
20.08350,25927
20.09283,25771
20.10218,22385
20.11152,22844
20.12085,21913
20.13020,20695
20.13953,21228
20.14887,24852
20.15822,30370
20.16755,29771
20.17690,28967
20.18623,23703
20.19557,22217
20.20492,21772
20.21425,22591
20.22358,23327
20.23293,23055
20.24227,21717
20.25160,22483
20.26095,21511
20.27028,22272
20.27962,22372
20.28897,23353
20.29830,22167
20.30763,22397
20.31698,20555
20.32632,20537
20.33565,20619
20.34500,21262
20.35433,21765
20.36368,22980
20.37302,23080
20.38235,22318
20.39170,22362
20.40103,20151
20.41037,20772
20.41972,19833
20.42905,22017
20.43838,23044
20.44773,21628
20.45707,23276
20.46640,24832
20.47575,29143
20.48508,27655
20.49442,24936
20.50377,23768
20.51310,22775
20.52245,20588
20.53178,21095
20.54112,20679
20.55047,21329
20.55980,33514
20.56913,69914
20.57848,138268
20.58782,164203
20.59715,108378
20.60650,49996
20.61583,28688
20.62517,25502
20.63452,24245
20.64385,26226
20.65318,26384
20.66253,26651
20.67187,26387
20.68120,24471
20.69055,25002
20.69988,24028
20.70923,24001
20.71857,24650
20.72790,24002
20.73725,23328
20.74658,23922
20.75592,24056
20.76527,22357
20.77460,21655
20.78393,23444
20.79328,25192
20.80262,26176
20.81195,26222
20.82130,26723
20.83063,23765
20.83997,24104
20.84932,22840
20.85865,22615
20.86798,22174
20.87733,22164
20.88667,22959
20.89602,23506
20.90535,23988
20.91468,23088
20.92403,22937
20.93337,22654
20.94270,22663
20.95205,20629
20.96138,20692
20.97072,21652
20.98007,21379
20.98940,21119
20.99873,21612
21.00808,22017
21.01742,21891
21.02675,20949
21.03610,21111
21.04543,20790
21.05477,20589
21.06412,21059
21.07345,21509
21.08280,20276
21.09213,21305
21.10147,20569
21.11082,21913
21.12015,23334
21.12948,22129
21.13883,21399
21.14817,22491
21.15750,22294
21.16685,24170
21.17618,27224
21.18552,32768
21.19487,35961
21.20420,33276
21.21353,29703
21.22288,26271
21.23222,26529
21.24157,23397
21.25090,22494
21.26023,23472
21.26958,25157
21.27892,23944
21.28825,26566
21.29760,27129
21.30693,26023
21.31627,25050
21.32562,22646
21.33495,23554
21.34428,23053
21.35363,23488
21.36297,23033
21.37230,23076
21.38165,22353
21.39098,22866
21.40032,23611
21.40967,25224
21.41900,25452
21.42835,25920
21.43768,23843
21.44702,23831
21.45637,22562
21.46570,22266
21.47503,24011
21.48438,23176
21.49372,23945
21.50305,23596
21.51240,24136
21.52173,24125
21.53107,22453
21.54042,21308
21.54975,22446
21.55908,23969
21.56843,29080
21.57777,30619
21.58710,30703
21.59645,26648
21.60578,24519
21.61513,24028
21.62447,24560
21.63380,22990
21.64315,23436
21.65248,24147
21.66182,23268
21.67117,22136
21.68050,24360
21.68983,27023
21.69918,27552
21.70852,25549
21.71785,25104
21.72720,25902
21.73653,25379
21.74587,24714
21.75522,24422
21.76455,23477
21.77388,23195
21.78323,22196
21.79257,22599
21.80192,22269
21.81125,23339
21.82058,24607
21.82993,25699
21.83927,25556
21.84860,25557
21.85795,24575
21.86728,24374
21.87662,24526
21.88597,26702
21.89530,30216
21.90463,31141
21.91398,29686
21.92332,28610
21.93265,27794
21.94200,26326
21.95133,27667
21.96067,28366
21.97002,32107
21.97935,31820
21.98870,35104
21.99803,38802
22.00737,35690
22.01672,32432
22.02605,29994
22.03538,30302
22.04473,30999
22.05407,31648
22.06340,31627
22.07275,30392
22.08208,32099
22.09142,30710
22.10077,29613
22.11010,27999
22.11943,28380
22.12878,27336
22.13812,27589
22.14747,28364
22.15680,29775
22.16613,31813
22.17548,34067
22.18482,33467
22.19415,30653
22.20350,28647
22.21283,30106
22.22217,32109
22.23152,34483
22.24085,33620
22.25018,33288
22.25953,33280
22.26887,35660
22.27820,35191
22.28755,38252
22.29688,39579
22.30622,41586
22.31557,39878
22.32490,39309
22.33425,38323
22.34358,40559
22.35292,44089
22.36227,46495
22.37160,47044
22.38093,47391
22.39028,51449
22.39962,53071
22.40895,54279
22.41830,54509
22.42763,55818
22.43697,57446
22.44632,62068
22.45565,63035
22.46498,61879
22.47433,63960
22.48367,65800
22.49300,63914
22.50235,63533
22.51168,65578
22.52103,67496
22.53037,66000
22.53970,65985
22.54905,66196
22.55838,67446
22.56772,66496
22.57707,67582
22.58640,67044
22.59573,67330
22.60508,64224
22.61442,62149
22.62375,60165
22.63310,59449
22.64243,57185
22.65177,56465
22.66112,52503
22.67045,51168
22.67978,52807
22.68913,54059
22.69847,52199
22.70782,49785
22.71715,44886
22.72648,42817
22.73583,41836
22.74517,41703
22.75450,39707
22.76385,41952
22.77318,38499
22.78252,35724
22.79187,32356
22.80120,32257
22.81053,30980
22.81988,29747
22.82922,28831
22.83855,28557
22.84790,29407
22.85723,27520
22.86658,28678
22.87592,28660
22.88525,29401
22.89460,28768
22.90393,26668
22.91327,27057
22.92262,27860
22.93195,27363
22.94128,25246
22.95063,26272
22.95997,26325
22.96930,26275
22.97865,24176
22.98798,25296
22.99732,24917
23.00667,25617
23.01600,25534
23.02533,24793
23.03468,24332
23.04402,25583
23.05337,25254
23.06270,25378
23.07203,25530
23.08138,25533
23.09072,24666
23.10005,24296
23.10940,23904
23.11873,23484
23.12807,24807
23.13742,24435
23.14675,24815
23.15608,23425
23.16543,23957
23.17477,23602
23.18410,23983
23.19345,24148
23.20278,23805
23.21212,22850
23.22147,24870
23.23080,23205
23.24015,25135
23.24948,25668
23.25882,26286
23.26817,26970
23.27750,26188
23.28683,25830
23.29618,25388
23.30552,24351
23.31485,24828
23.32420,27563
23.33353,32459
23.34287,34305
23.35222,32479
23.36155,28122
23.37088,24668
23.38023,26075
23.38957,25250
23.39890,23750
23.40825,25196
23.41758,24190
23.42693,24654
23.43627,24506
23.44560,24833
23.45495,24443
23.46428,26012
23.47362,24830
23.48297,25124
23.49230,24578
23.50163,25548
23.51098,24842
23.52032,24552
23.52965,26989
23.53900,25712
23.54833,25474
23.55767,24623
23.56702,24741
23.57635,24244
23.58568,24899
23.59503,25379
23.60437,25488
23.61372,24000
23.62305,23968
23.63238,24783
23.64173,24154
23.65107,23831
23.66040,23655
23.66975,23465
23.67908,23965
23.68842,24788
23.69777,25813
23.70710,26103
23.71643,27294
23.72578,26534
23.73512,26296
23.74445,25107
23.75380,24000
23.76313,26419
23.77247,24671
23.78182,25159
23.79115,24477
23.80050,23840
23.80983,24945
23.81917,24766
23.82852,25337
23.83785,24315
23.84718,23616
23.85653,24138
23.86587,23198
23.87520,24808
23.88455,24342
23.89388,24050
23.90322,24074
23.91257,24029
23.92190,26118
23.93123,25016
23.94058,23333
23.94992,25188
23.95927,24050
23.96860,24118
23.97793,22636
23.98728,24111
23.99662,25044
24.00595,24420
24.01530,24297
24.02463,25524
24.03397,25010
24.04332,23583
24.05265,23844
24.06198,22942
24.07133,23686
24.08067,23576
24.09000,24475
24.09935,23758
24.10868,24464
24.11802,23700
24.12737,24264
24.13670,24183
24.14605,24385
24.15538,23500
24.16472,24188
24.17407,24735
24.18340,24156
24.19273,25640
24.20208,24721
24.21142,24737
24.22075,25058
24.23010,24314
24.23943,25300
24.24877,25376
24.25812,26243
24.26745,24224
24.27678,24873
24.28613,24026
24.29547,25284
24.30480,24991
24.31415,25587
24.32348,24368
24.33283,26317
24.34217,25007
24.35150,26380
24.36085,24298
24.37018,24849
24.37952,24771
24.38887,25875
24.39820,25200
24.40753,24723
24.41688,25965
24.42622,25242
24.43555,26095
24.44490,25525
24.45423,23744
24.46357,23784
24.47292,24048
24.48225,24323
24.49158,24755
24.50093,25009
24.51027,25811
24.51962,23916
24.52895,25593
24.53828,25405
24.54763,25856
24.55697,26192
24.56630,24348
24.57565,24934
24.58498,24888
24.59432,25201
24.60367,25481
24.61300,26351
24.62233,27350
24.63168,26599
24.64102,26371
24.65035,26493
24.65970,26399
24.66903,25738
24.67838,27575
24.68772,25984
24.69705,26642
24.70640,25712
24.71573,25014
24.72507,25601
24.73442,25265
24.74375,24886
24.75308,26142
24.76243,24293
24.77177,24244
24.78110,24007
24.79045,24473
24.79978,26158
24.80912,24730
24.81847,26280
24.82780,25371
24.83713,25810
24.84648,23950
24.85582,25049
24.86517,25609
24.87450,26866
24.88383,28779
24.89318,27368
24.90252,26571
24.91185,27090
24.92120,27452
24.93053,25922
24.93987,27045
24.94922,27248
24.95855,27152
24.96788,26892
24.97723,27911
24.98657,27571
24.99590,26232
25.00525,26686
25.01458,27343
25.02392,25545
25.03327,26445
25.04260,25894
25.05195,26644
25.06128,25997
25.07062,26687
25.07997,25133
25.08930,25806
25.09863,27260
25.10798,24886
25.11732,26535
25.12665,26430
25.13600,27138
25.14533,26916
25.15467,27679
25.16402,28520
25.17335,28739
25.18268,28337
25.19203,26412
25.20137,27545
25.21070,27056
25.22005,27928
25.22938,27206
25.23873,26716
25.24807,26960
25.25740,27352
25.26675,27623
25.27608,28478
25.28542,27833
25.29477,27367
25.30410,27854
25.31343,32301
25.32278,46902
25.33212,54983
25.34145,54564
25.35080,44528
25.36013,37335
25.36947,35009
25.37882,34665
25.38815,33490
25.39748,34616
25.40683,34319
25.41617,34694
25.42552,34386
25.43485,35203
25.44418,34627
25.45353,35893
25.46287,35438
25.47220,37445
25.48155,38454
25.49088,40681
25.50022,41393
25.50957,39921
25.51890,40087
25.52823,42401
25.53758,38846
25.54692,40247
25.55625,37174
25.56560,37918
25.57493,37763
25.58428,36669
25.59362,35485
25.60295,35187
25.61230,33520
25.62163,33693
25.63097,32147
25.64032,33750
25.64965,34467
25.65898,34603
25.66833,33603
25.67767,33028
25.68700,32170
25.69635,31857
25.70568,31747
25.71502,32932
25.72437,32409
25.73370,32893
25.74303,35447
25.75238,33806
25.76172,33623
25.77107,32983
25.78040,33626
25.78973,32624
25.79908,33491
25.80842,37173
25.81775,35230
25.82710,36161
25.83643,36074
25.84577,34522
25.85512,33349
25.86445,32102
25.87378,31992
25.88313,31576
25.89247,31282
25.90180,30721
25.91115,31030
25.92048,31405
25.92982,31918
25.93917,31112
25.94850,30889
25.95785,31469
25.96718,31304
25.97652,30899
25.98587,30110
25.99520,30644
26.00453,31576
26.01388,31007
26.02322,31494
26.03255,30144
26.04190,30656
26.05123,32723
26.06057,32047
26.06992,29997
26.07925,31273
26.08858,29712
26.09793,31387
26.10727,31480
26.11660,31930
26.12595,31305
26.13528,32875
26.14463,33446
26.15397,32793
26.16330,32907
26.17265,32716
26.18198,32632
26.19132,32573
26.20067,33000
26.21000,33122
26.21933,33253
26.22868,34483
26.23802,33954
26.24735,35171
26.25670,36269
26.26603,34506
26.27537,35564
26.28472,34617
26.29405,35088
26.30340,34239
26.31273,33896
26.32207,34117
26.33142,31701
26.34075,32078
26.35008,30622
26.35943,31246
26.36877,31527
26.37810,30166
26.38745,31092
26.39678,30701
26.40612,29464
26.41547,31718
26.42480,31056
26.43413,31624
26.44348,31619
26.45282,31613
26.46215,33145
26.47150,32594
26.48083,34844
26.49018,33327
26.49952,34904
26.50885,35239
26.51820,32923
26.52753,33405
26.53687,34611
26.54622,34896
26.55555,34803
26.56488,32258
26.57423,32336
26.58357,32564
26.59290,32986
26.60225,33691
26.61158,33681
26.62092,34878
26.63027,32834
26.63960,33428
26.64893,32369
26.65828,34849
26.66762,32734
26.67697,32811
26.68630,32830
26.69563,32492
26.70498,31303
26.71432,29738
26.72365,31018
26.73300,31995
26.74233,31616
26.75167,31414
26.76102,33501
26.77035,31393
26.77968,32224
26.78903,32132
26.79837,31965
26.80770,32625
26.81705,32121
26.82638,33502
26.83572,32801
26.84507,36332
26.85440,35655
26.86375,36128
26.87308,35193
26.88242,32494
26.89177,32142
26.90110,32184
26.91043,33620
26.91978,33563
26.92912,32217
26.93845,33764
26.94780,35484
26.95713,31740
26.96647,33231
26.97582,32542
26.98515,34765
26.99448,33743
27.00383,35843
27.01317,34170
27.02250,34137
27.03185,33453
27.04118,34064
27.05053,33020
27.05987,34200
27.06920,33565
27.07855,32044
27.08788,33787
27.09722,32548
27.10657,32759
27.11590,34956
27.12523,34405
27.13458,34299
27.14392,33602
27.15325,32463
27.16260,34028
27.17193,34686
27.18127,35491
27.19062,32738
27.19995,34106
27.20928,34138
27.21863,33332
27.22797,36869
27.23732,33883
27.24665,35139
27.25598,36807
27.26533,37558
27.27467,35451
27.28400,34977
27.29335,36279
27.30268,36141
27.31202,35209
27.32137,36057
27.33070,36763
27.34003,34496
27.34938,35492
27.35872,33562
27.36805,35895
27.37740,36898
27.38673,34125
27.39608,36300
27.40542,36861
27.41475,37143
27.42410,36045
27.43343,36359
27.44277,39717
27.45212,44595
27.46145,53404
27.47078,66965
27.48013,90867
27.48947,126663
27.49880,176597
27.50815,230312
27.51748,299692
27.52682,350488
27.53617,382080
27.54550,371508
27.55483,332412
27.56418,287044
27.57352,240831
27.58287,196314
27.59220,162115
27.60153,132266
27.61088,108355
27.62022,91390
27.62955,80034
27.63890,71369
27.64823,65072
27.65757,62034
27.66692,61615
27.67625,65580
27.68558,69302
27.69493,62651
27.70427,56084
27.71360,53494
27.72295,52296
27.73228,47919
27.74162,46507
27.75097,45590
27.76030,45845
27.76965,43482
27.77898,44165
27.78832,44588
27.79767,45984
27.80700,43670
27.81633,42520
27.82568,42868
27.83502,43203
27.84435,41407
27.85370,40893
27.86303,41108
27.87237,40915
27.88172,38629
27.89105,41627
27.90038,40543
27.90973,40523
27.91907,39971
27.92840,39620
27.93775,40533
27.94708,40949
27.95643,41052
27.96577,41422
27.97510,40846
27.98445,41277
27.99378,39980
28.00312,39549
28.01247,42175
28.02180,39799
28.03113,41123
28.04048,41812
28.04982,40245
28.05915,40714
28.06850,40258
28.07783,39681
28.08717,40067
28.09652,40174
28.10585,43222
28.11520,43277
28.12453,47243
28.13387,49825
28.14322,48620
28.15255,41192
28.16188,42675
28.17123,41854
28.18057,41505
28.18990,41613
28.19925,44012
28.20858,42156
28.21792,40704
28.22727,43137
28.23660,40756
28.24593,43353
28.25528,43199
28.26462,43095
28.27395,41372
28.28330,40816
28.29263,42204
28.30198,42111
28.31132,40567
28.32065,41554
28.33000,41110
28.33933,41083
28.34867,41297
28.35802,40842
28.36735,40716
28.37668,41049
28.38603,40263
28.39537,40479
28.40470,41451
28.41405,40539
28.42338,42164
28.43272,40746
28.44207,42665
28.45140,43188
28.46073,43438
28.47008,41871
28.47942,42317
28.48877,42559
28.49810,44114
28.50743,43270
28.51678,44140
28.52612,44140
28.53545,43721
28.54480,45238
28.55413,45515
28.56347,44654
28.57282,44153
28.58215,46430
28.59148,45754
28.60083,44968
28.61017,46427
28.61950,45895
28.62885,44572
28.63818,43872
28.64752,45028
28.65687,46678
28.66620,47098
28.67555,52508
28.68488,55715
28.69422,55347
28.70357,51839
28.71290,48986
28.72223,46897
28.73158,45177
28.74092,47074
28.75025,47093
28.75960,50259
28.76893,45035
28.77827,45476
28.78762,45382
28.79695,47523
28.80628,44812
28.81563,46044
28.82497,45958
28.83430,46141
28.84365,46030
28.85298,47224
28.86233,49452
28.87167,45657
28.88100,49009
28.89035,47859
28.89968,45710
28.90902,49801
28.91837,48444
28.92770,49387
28.93703,46627
28.94638,48166
28.95572,47063
28.96505,47814
28.97440,48412
28.98373,47612
28.99307,47697
29.00242,48476
29.01175,47581
29.02110,47333
29.03043,47021
29.03977,48534
29.04912,49547
29.05845,48966
29.06778,47798
29.07713,47605
29.08647,50746
29.09580,52533
29.10515,48970
29.11448,51348
29.12382,49316
29.13317,51333
29.14250,52127
29.15183,52550
29.16118,53771
29.17052,57571
29.17985,60752
29.18920,65184
29.19853,70751
29.20788,81877
29.21722,78545
29.22655,70562
29.23590,64125
29.24523,59251
29.25457,57505
29.26392,55672
29.27325,56597
29.28258,54299
29.29193,52386
29.30127,52893
29.31060,51050
29.31995,50944
29.32928,53145
29.33862,51805
29.34797,52780
29.35730,50497
29.36663,52367
29.37598,51686
29.38532,50865
29.39467,51264
29.40400,53576
29.41333,54452
29.42268,55808
29.43202,59469
29.44135,55867
29.45070,58407
29.46003,62472
29.46937,65612
29.47872,67692
29.48805,63234
29.49738,56358
29.50673,56348
29.51607,53793
29.52540,55220
29.53475,55901
29.54408,52949
29.55342,54990
29.56277,54197
29.57210,53041
29.58145,51874
29.59078,51467
29.60012,50830
29.60947,51986
29.61880,54081
29.62813,52528
29.63748,53510
29.64682,53439
29.65615,53819
29.66550,52850
29.67483,51274
29.68417,53134
29.69352,53314
29.70285,52692
29.71218,53121
29.72153,54492
29.73087,53922
29.74022,53721
29.74955,52689
29.75888,53386
29.76823,55766
29.77757,54725
29.78690,53296
29.79625,54439
29.80558,53354
29.81492,54460
29.82427,52569
29.83360,52432
29.84293,51168
29.85228,52227
29.86162,51733
29.87095,52323
29.88030,52608
29.88963,52768
29.89897,51388
29.90832,50615
29.91765,52297
29.92700,53693
29.93633,52533
29.94567,54694
29.95502,52162
29.96435,52587
29.97368,54612
29.98303,54870
29.99237,53595
30.00170,56121
30.01105,54528
30.02038,53803
30.02972,52726
30.03907,52547
30.04840,52271
30.05773,54850
30.06708,53699
30.07642,59852
30.08575,63796
30.09510,77546
30.10443,95660
30.11378,126321
30.12312,172041
30.13245,223994
30.14180,279864
30.15113,326134
30.16047,376423
30.16982,386496
30.17915,385879
30.18848,354321
30.19783,315652
30.20717,269715
30.21650,226661
30.22585,189938
30.23518,154999
30.24452,133051
30.25387,119777
30.26320,106946
30.27253,97683
30.28188,90504
30.29122,85947
30.30057,81384
30.30990,79076
30.31923,77659
30.32858,76033
30.33792,73357
30.34725,73599
30.35660,74059
30.36593,71316
30.37527,76109
30.38462,81224
30.39395,92905
30.40328,105020
30.41263,105436
30.42197,98792
30.43130,87709
30.44065,78355
30.44998,74160
30.45932,66539
30.46867,65756
30.47800,63079
30.48735,64303
30.49668,62356
30.50602,61459
30.51537,59731
30.52470,61081
30.53403,58690
30.54338,60371
30.55272,60914
30.56205,60662
30.57140,61427
30.58073,61671
30.59007,61641
30.59942,63295
30.60875,62651
30.61808,64977
30.62743,66053
30.63677,67245
30.64610,70212
30.65545,70655
30.66478,70879
30.67413,70430
30.68347,70910
30.69280,67060
30.70215,67033
30.71148,66475
30.72082,66094
30.73017,65601
30.73950,65261
30.74883,65675
30.75818,63417
30.76752,64798
30.77685,60735
30.78620,60296
30.79553,63268
30.80487,63820
30.81422,62405
30.82355,62716
30.83290,64991
30.84223,65249
30.85157,64475
30.86092,66857
30.87025,66145
30.87958,64567
30.88893,68374
30.89827,67071
30.90760,67588
30.91695,69403
30.92628,70779
30.93562,68629
30.94497,70778
30.95430,71654
30.96363,67900
30.97298,70936
30.98232,70418
30.99165,69826
31.00100,69553
31.01033,68025
31.01968,67257
31.02902,67494
31.03835,67300
31.04770,68016
31.05703,65932
31.06637,64322
31.07572,67769
31.08505,64659
31.09438,66710
31.10373,66424
31.11307,66779
31.12240,66908
31.13175,66655
31.14108,66987
31.15042,71125
31.15977,69809
31.16910,67765
31.17843,67958
31.18778,70338
31.19712,71555
31.20647,69019
31.21580,68593
31.22513,70024
31.23448,69869
31.24382,67203
31.25315,69908
31.26250,66746
31.27183,68871
31.28117,70269
31.29052,67757
31.29985,70293
31.30918,66837
31.31853,65689
31.32787,66859
31.33720,67619
31.34655,67850
31.35588,66772
31.36523,66573
