D:\数据\20220221\LCLN-ZS1E #000437.D Mon Feb 21 22:03:00 2022
Start of data points
0.09763,18109
0.10697,17906
0.11630,18833
0.12565,19523
0.13498,19628
0.14432,19405
0.15367,18893
0.16300,18664
0.17233,18245
0.18168,18787
0.19102,18600
0.20037,18206
0.20970,18329
0.21903,17485
0.22838,17952
0.23772,17458
0.24705,16747
0.25640,16910
0.26573,16697
0.27507,17145
0.28442,17159
0.29375,16642
0.30308,17414
0.31243,16408
0.32177,16580
0.33110,16328
0.34045,16357
0.34978,15951
0.35912,16883
0.36847,16362
0.37780,16672
0.38715,16317
0.39648,15471
0.40582,12949
0.41517,12186
0.42450,11556
0.43383,9791
0.44318,5805
0.45252,4158
0.46185,3537
0.47120,3970
0.48053,3381
0.48987,3823
0.49922,4051
0.50855,3282
0.51788,3047
0.52723,3834
0.53657,3368
0.54590,3106
0.55525,3121
0.56458,3091
0.57393,3774
0.58327,3543
0.59260,3405
0.60195,3176
0.61128,3339
0.62062,2655
0.62997,2999
0.63930,3010
0.64863,3129
0.65798,3009
0.66732,3132
0.67665,3010
0.68600,3126
0.69533,3308
0.70467,3016
0.71402,3296
0.72335,3147
0.73268,2897
0.74203,2911
0.75137,3103
0.76072,3014
0.77005,3453
0.77938,3266
0.78873,3401
0.79807,2906
0.80740,3031
0.81675,3074
0.82608,3425
0.83542,2910
0.84477,3037
0.85410,3273
0.86343,2569
0.87278,3072
0.88212,3140
0.89145,2722
0.90080,3118
0.91013,2568
0.91948,2903
0.92882,2767
0.93815,3370
0.94750,3095
0.95683,2854
0.96617,2753
0.97552,3119
0.98485,3308
0.99418,3173
1.00353,3102
1.01287,2782
1.02220,2661
1.03155,2864
1.04088,2290
1.05022,2698
1.05957,2849
1.06890,2967
1.07823,3008
1.08758,2825
1.09692,3173
1.10627,2737
1.11560,2703
1.12493,2305
1.13428,3135
1.14362,3163
1.15295,2977
1.16230,3180
1.17163,2676
1.18097,2554
1.19032,2637
1.19965,3051
1.20898,3265
1.21833,3094
1.22767,2759
1.23700,2696
1.24635,2586
1.25568,2853
1.26502,2890
1.27437,2504
1.28370,2777
1.29305,2382
1.30238,2992
1.31172,2878
1.32107,2697
1.33040,3116
1.33973,2902
1.34908,2827
1.35842,3065
1.36775,2548
1.37710,2508
1.38643,2668
1.39577,2837
1.40512,2573
1.41445,2709
1.42378,2842
1.43313,2586
1.44247,2960
1.45180,2669
1.46115,2505
1.47048,2680
1.47983,2743
1.48917,2518
1.49850,2764
1.50785,2992
1.51718,2670
1.52652,2602
1.53587,2684
1.54520,2728
1.55453,2603
1.56388,2841
1.57322,2753
1.58255,3181
1.59190,5746
1.60123,10037
1.61057,14585
1.61992,18106
1.62925,23906
1.63858,32550
1.64793,37912
1.65727,38276
1.66662,32897
1.67595,28593
1.68528,25590
1.69463,20377
1.70397,16521
1.71330,12745
1.72265,14096
1.73198,16056
1.74132,17609
1.75067,18298
1.76000,19631
1.76933,19940
1.77868,21185
1.78802,21616
1.79735,20855
1.80670,22667
1.81603,22516
1.82538,21903
1.83472,21711
1.84405,21708
1.85340,21703
1.86273,21492
1.87207,26168
1.88142,45659
1.89075,84267
1.90008,132099
1.90943,161353
1.91877,171249
1.92810,218059
1.93745,354973
1.94678,583151
1.95612,787330
1.96547,813557
1.97480,683115
1.98413,516333
1.99348,381694
2.00282,297935
2.01217,253635
2.02150,221968
2.03083,195202
2.04018,154416
2.04952,113881
2.05885,87938
2.06820,72010
2.07753,66005
2.08687,79448
2.09622,116097
2.10555,105444
2.11488,76831
2.12423,88644
2.13357,168836
2.14290,302560
2.15225,357001
2.16158,283472
2.17092,190179
2.18027,127096
2.18960,117264
2.19895,134356
2.20828,116643
2.21762,82455
2.22697,75557
2.23630,106248
2.24563,201391
2.25498,892959
2.26432,2966592
2.27365,3823536
2.28300,2971375
2.29233,1791302
2.30167,977219
2.31102,726759
2.32035,1118064
2.32968,1389921
2.33903,938599
2.34837,457998
2.35770,230401
2.36705,139737
2.37638,122023
2.38573,115432
2.39507,102241
2.40440,84884
2.41375,82377
2.42308,77664
2.43242,68115
2.44177,56704
2.45110,52345
2.46043,50447
2.46978,56782
2.47912,67619
2.48845,67801
2.49780,58009
2.50713,49667
2.51647,43758
2.52582,42108
2.53515,39088
2.54450,42284
2.55383,51230
2.56317,303849
2.57252,748561
2.58185,731251
2.59118,502137
2.60053,305424
2.60987,199376
2.61920,164200
2.62855,156118
2.63788,127229
2.64722,101253
2.65657,87656
2.66590,71024
2.67523,57579
2.68458,48340
2.69392,43876
2.70325,42143
2.71260,50261
2.72193,74248
2.73128,104205
2.74062,133660
2.74995,156969
2.75930,188336
2.76863,235709
2.77797,314864
2.78732,428244
2.79665,483430
2.80598,477411
2.81533,483183
2.82467,311801
2.83400,149170
2.84335,108643
2.85268,95792
2.86202,118608
2.87137,140974
2.88070,126614
2.89003,97076
2.89938,78483
2.90872,69677
2.91807,62228
2.92740,58391
2.93673,53677
2.94608,49466
2.95542,45100
2.96475,43350
2.97410,42764
2.98343,41728
2.99277,43755
3.00212,47179
3.01145,49491
3.02078,49096
3.03013,55008
3.03947,69550
3.04880,73090
3.05815,71137
3.06748,85737
3.07682,101736
3.08617,95788
3.09550,69967
3.10485,49834
3.11418,41960
3.12352,37824
3.13287,38756
3.14220,38279
3.15153,44240
3.16088,55974
3.17022,62370
3.17955,57152
3.18890,46743
3.19823,41394
3.20757,37882
3.21692,37260
3.22625,34557
3.23558,33424
3.24493,31992
3.25427,34244
3.26360,38245
3.27295,37720
3.28228,34760
3.29163,33988
3.30097,34077
3.31030,35043
3.31965,35634
3.32898,33738
3.33832,33544
3.34767,32844
3.35700,30986
3.36633,33133
3.37568,32099
3.38502,29895
3.39435,31465
3.40370,30858
3.41303,34343
3.42237,40300
3.43172,45729
3.44105,45035
3.45040,44907
3.45973,41269
3.46907,38602
3.47842,38754
3.48775,40695
3.49708,42089
3.50643,36706
3.51577,34326
3.52510,33142
3.53445,30278
3.54378,34105
3.55312,54925
3.56247,138363
3.57180,266254
3.58113,305924
3.59048,222727
3.59982,157709
3.60915,124784
3.61850,94630
3.62783,68514
3.63718,53162
3.64652,46018
3.65585,41006
3.66520,39885
3.67453,40200
3.68387,40658
3.69322,40139
3.70255,35576
3.71188,34497
3.72123,37864
3.73057,40530
3.73990,41722
3.74925,38706
3.75858,33223
3.76792,30264
3.77727,29870
3.78660,30713
3.79593,33030
3.80528,36121
3.81462,36915
3.82397,41463
3.83330,42351
3.84263,42528
3.85198,42574
3.86132,42284
3.87065,37857
3.88000,34482
3.88933,35724
3.89867,40972
3.90802,48105
3.91735,51187
3.92668,51557
3.93603,59952
3.94537,72348
3.95470,75783
3.96405,79119
3.97338,83054
3.98272,85765
3.99207,87425
4.00140,93361
4.01075,98854
4.02008,106076
4.02942,116113
4.03877,136538
4.04810,162749
4.05743,175227
4.06678,137204
4.07612,97119
4.08545,87759
4.09480,89159
4.10413,92555
4.11347,84495
4.12282,64129
4.13215,49683
4.14148,44124
4.15083,39938
4.16017,39717
4.16952,37848
4.17885,36409
4.18818,34034
4.19753,34667
4.20687,36709
4.21620,38675
4.22555,38161
4.23488,36409
4.24422,35672
4.25357,37430
4.26290,38344
4.27223,40983
4.28158,44056
4.29092,45792
4.30025,41956
4.30960,35664
4.31893,39289
4.32827,42437
4.33762,42253
4.34695,40458
4.35630,37428
4.36563,34891
4.37497,34209
4.38432,34356
4.39365,35246
4.40298,34745
4.41233,33157
4.42167,29590
4.43100,30885
4.44035,30251
4.44968,30154
4.45902,32314
4.46837,42987
4.47770,74429
4.48703,113986
4.49638,113614
4.50572,79392
4.51505,49743
4.52440,37970
4.53373,34243
4.54308,33018
4.55242,32677
4.56175,30571
4.57110,30495
4.58043,32949
4.58977,31952
4.59912,31044
4.60845,30795
4.61778,29988
4.62713,30040
4.63647,31362
4.64580,37024
4.65515,40798
4.66448,38080
4.67382,35163
4.68317,33839
4.69250,32098
4.70183,34867
4.71118,50514
4.72052,59885
4.72987,54344
4.73920,45014
4.74853,37007
4.75788,32733
4.76722,32752
4.77655,35174
4.78590,37406
4.79523,37413
4.80457,37886
4.81392,46602
4.82325,54684
4.83258,48390
4.84193,39366
4.85127,36301
4.86060,39702
4.86995,59548
4.87928,90473
4.88862,102173
4.89797,81879
4.90730,62126
4.91665,51348
4.92598,44872
4.93532,40619
4.94467,39734
4.95400,37288
4.96333,34342
4.97268,31437
4.98202,30537
4.99135,33203
5.00070,36475
5.01003,42162
5.01937,47581
5.02872,55041
5.03805,59602
5.04738,54810
5.05673,43773
5.06607,37448
5.07542,38039
5.08475,39371
5.09408,40352
5.10343,38225
5.11277,34864
5.12210,34021
5.13145,34122
5.14078,38230
5.15012,43230
5.15947,43647
5.16880,41885
5.17813,56932
5.18748,66036
5.19682,58794
5.20615,46121
5.21550,34421
5.22483,31360
5.23417,31705
5.24352,34049
5.25285,34857
5.26220,34348
5.27153,50874
5.28087,118284
5.29022,227520
5.29955,288793
5.30888,221235
5.31823,131115
5.32757,89624
5.33690,69450
5.34625,52729
5.35558,40414
5.36492,35442
5.37427,34784
5.38360,39381
5.39293,52640
5.40228,62647
5.41162,60062
5.42095,50715
5.43030,44122
5.43963,34778
5.44898,30791
5.45832,30819
5.46765,31468
5.47700,33214
5.48633,33972
5.49567,34362
5.50502,34788
5.51435,35526
5.52368,37416
5.53303,41767
5.54237,45564
5.55170,46539
5.56105,47836
5.57038,51945
5.57972,56414
5.58907,53713
5.59840,44108
5.60773,35984
5.61708,34631
5.62642,32642
5.63577,33428
5.64510,33201
5.65443,34199
5.66378,37475
5.67312,38724
5.68245,37670
5.69180,35410
5.70113,35139
5.71047,35064
5.71982,34705
5.72915,34793
5.73848,36137
5.74783,42696
5.75717,53204
5.76650,56330
5.77585,48248
5.78518,37547
5.79453,32578
5.80387,31945
5.81320,32383
5.82255,38544
5.83188,47362
5.84122,43908
5.85057,40912
5.85990,33945
5.86923,32380
5.87858,34157
5.88792,32979
5.89725,34015
5.90660,45237
5.91593,97771
5.92527,199729
5.93462,261350
5.94395,226492
5.95328,158434
5.96263,94417
5.97197,54058
5.98132,36280
5.99065,27412
5.99998,25594
6.00933,24869
6.01867,24567
6.02800,28963
6.03735,28929
6.04668,29295
6.05602,29774
6.06537,29998
6.07470,29608
6.08403,25643
6.09338,21293
6.10272,17561
6.11205,16844
6.12140,16028
6.13073,19356
6.14007,23642
6.14942,22483
6.15875,19703
6.16810,16418
6.17743,16739
6.18677,15681
6.19612,15068
6.20545,13690
6.21478,12884
6.22413,13956
6.23347,16380
6.24280,16829
6.25215,18212
6.26148,26268
6.27082,38019
6.28017,37919
6.28950,25219
6.29883,17735
6.30818,13756
6.31752,13598
6.32685,12645
6.33620,12229
6.34553,12270
6.35488,11579
6.36422,11864
6.37355,12924
6.38290,16757
6.39223,28534
6.40157,94189
6.41092,252263
6.42025,385106
6.42958,310850
6.43893,145147
6.44827,49283
6.45760,23296
6.46695,18386
6.47628,16113
6.48562,14610
6.49497,14293
6.50430,13349
6.51363,14393
6.52298,14478
6.53232,14786
6.54167,13045
6.55100,12595
6.56033,11804
6.56968,11382
6.57902,13177
6.58835,15493
6.59770,17305
6.60703,18379
6.61637,18200
6.62572,16666
6.63505,17220
6.64438,17198
6.65373,16216
6.66307,18183
6.67240,20058
6.68175,20394
6.69108,21836
6.70042,23532
6.70977,27364
6.71910,26792
6.72845,20406
6.73778,17807
6.74712,14277
6.75647,14253
6.76580,14317
6.77513,15373
6.78448,17916
6.79382,22491
6.80315,27848
6.81250,26831
6.82183,20667
6.83117,16348
6.84052,15557
6.84985,15048
6.85918,14300
6.86853,13770
6.87787,14407
6.88722,16441
6.89655,17246
6.90588,23592
6.91523,29407
6.92457,29346
6.93390,23479
6.94325,19120
6.95258,18791
6.96192,17500
6.97127,16545
6.98060,15618
6.98993,14827
6.99928,15575
7.00862,15955
7.01795,16348
7.02730,15603
7.03663,13242
7.04597,13029
7.05532,10938
7.06465,12894
7.07400,11994
7.08333,12233
7.09267,14621
7.10202,16588
7.11135,17159
7.12068,17803
7.13003,16570
7.13937,14796
7.14870,14124
7.15805,12627
7.16738,13113
7.17672,13527
7.18607,15255
7.19540,15408
7.20473,15825
7.21408,14935
7.22342,19895
7.23275,35486
7.24210,60593
7.25143,69210
7.26078,47756
7.27012,28654
7.27945,21772
7.28880,20241
7.29813,19942
7.30747,17641
7.31682,15259
7.32615,11913
7.33548,10766
7.34483,12918
7.35417,12301
7.36350,11365
7.37285,11622
7.38218,15757
7.39152,34205
7.40087,81001
7.41020,136542
7.41953,149242
7.42888,110966
7.43822,60786
7.44757,34175
7.45690,24096
7.46623,21265
7.47558,17287
7.48492,14715
7.49425,14568
7.50360,12982
7.51293,12403
7.52227,12260
7.53162,13098
7.54095,12314
7.55028,13723
7.55963,16136
7.56897,17832
7.57830,20334
7.58765,19962
7.59698,19115
7.60633,19769
7.61567,20092
7.62500,20365
7.63435,19999
7.64368,18765
7.65302,16454
7.66237,15854
7.67170,14952
7.68103,15544
7.69038,17888
7.69972,18395
7.70905,17366
7.71840,16209
7.72773,15890
7.73707,16313
7.74642,17471
7.75575,16972
7.76508,15546
7.77443,16807
7.78377,18465
7.79312,17874
7.80245,15561
7.81178,13826
7.82113,12389
7.83047,13231
7.83980,14584
7.84915,19529
7.85848,33540
7.86782,55934
7.87717,66371
7.88650,51252
7.89583,32834
7.90518,31799
7.91452,56766
7.92385,79273
7.93320,80900
7.94253,63552
7.95187,46906
7.96122,37953
7.97055,40891
7.97990,49375
7.98923,49908
7.99857,35455
8.00792,25468
8.01725,22255
8.02658,23439
8.03593,30725
8.04527,37229
8.05460,41767
8.06395,31707
8.07328,22298
8.08262,30302
8.09197,47734
8.10130,52673
8.11063,38094
8.11998,23998
8.12932,16630
8.13865,15294
8.14800,14335
8.15733,13335
8.16668,14456
8.17602,13563
8.18535,16802
8.19470,21223
8.20403,22183
8.21337,22344
8.22272,18849
8.23205,17209
8.24138,16883
8.25073,15328
8.26007,15721
8.26940,14574
8.27875,15969
8.28808,14515
8.29742,14394
8.30677,14411
8.31610,14752
8.32543,13922
8.33478,13828
8.34412,13895
8.35347,13535
8.36280,16576
8.37213,17249
8.38148,18388
8.39082,17796
8.40015,20456
8.40950,23095
8.41883,25414
8.42817,26051
8.43752,22247
8.44685,19701
8.45618,18100
8.46553,18671
8.47487,19089
8.48420,17627
8.49355,20541
8.50288,27648
8.51223,31322
8.52157,29606
8.53090,24862
8.54025,22941
8.54958,21954
8.55892,21674
8.56827,21104
8.57760,19660
8.58693,17894
8.59628,18711
8.60562,19459
8.61495,19516
8.62430,17390
8.63363,16374
8.64297,15940
8.65232,16474
8.66165,16575
8.67098,16612
8.68033,17682
8.68967,18104
8.69902,18767
8.70835,19661
8.71768,18719
8.72703,18042
8.73637,19171
8.74570,24483
8.75505,35591
8.76438,36863
8.77372,29616
8.78307,24424
8.79240,22704
8.80173,29046
8.81108,38171
8.82042,39809
8.82975,31330
8.83910,20846
8.84843,16383
8.85777,16319
8.86712,18787
8.87645,20785
8.88580,20492
8.89513,22192
8.90447,22611
8.91382,21876
8.92315,21891
8.93248,22790
8.94183,23368
8.95117,22242
8.96050,22603
8.96985,23039
8.97918,22657
8.98852,21261
8.99787,20293
9.00720,21031
9.01653,21026
9.02588,19251
9.03522,19241
9.04455,20705
9.05390,22250
9.06323,23961
9.07258,25085
9.08192,30530
9.09125,35650
9.10060,33871
9.10993,26906
9.11927,23572
9.12862,22263
9.13795,24474
9.14728,25550
9.15663,21111
9.16597,19820
9.17530,19165
9.18465,19884
9.19398,19808
9.20332,20330
9.21267,23851
9.22200,37389
9.23135,59543
9.24068,71007
9.25002,55852
9.25937,34328
9.26870,23943
9.27803,21808
9.28738,18963
9.29672,17575
9.30605,16710
9.31540,23442
9.32473,40155
9.33407,58569
9.34342,61346
9.35275,62083
9.36208,106953
9.37143,175036
9.38077,184137
9.39010,136870
9.39945,96093
9.40878,71479
9.41813,57757
9.42747,54062
9.43680,48512
9.44615,34788
9.45548,22496
9.46482,18913
9.47417,17409
9.48350,20124
9.49283,24006
9.50218,26811
9.51152,25115
9.52085,21491
9.53020,26575
9.53953,35059
9.54887,45254
9.55822,56855
9.56755,71715
9.57688,66418
9.58623,51440
9.59557,45856
9.60492,47069
9.61425,45328
9.62358,33609
9.63293,26129
9.64227,22827
9.65160,20847
9.66095,21185
9.67028,20022
9.67962,20147
9.68897,20732
9.69830,18063
9.70763,18170
9.71698,27473
9.72632,90558
9.73565,332548
9.74500,692413
9.75433,808801
9.76367,560400
9.77302,289855
9.78235,156502
9.79170,109992
9.80103,86344
9.81037,66738
9.81972,61204
9.82905,63478
9.83838,74935
9.84773,82611
9.85707,83073
9.86640,61924
9.87575,57953
9.88508,70681
9.89442,96820
9.90377,164254
9.91310,250321
9.92243,252037
9.93178,159018
9.94112,81688
9.95045,47748
9.95980,36921
9.96913,38392
9.97848,65003
9.98782,111305
9.99715,126991
10.00650,90063
10.01583,55732
10.02517,39859
10.03452,32983
10.04385,31392
10.05318,39631
10.06253,61775
10.07187,97299
10.08120,107267
10.09055,77293
10.09988,48707
10.10922,43560
10.11857,89756
10.12790,182608
10.13723,234138
10.14658,400018
10.15592,1324982
10.16527,2988783
10.17460,3388193
10.18393,1866415
10.19328,503979
10.20262,98981
10.21195,40080
10.22130,37763
10.23063,54531
10.23997,83533
10.24932,87168
10.25865,60667
10.26798,37938
10.27733,30543
10.28667,29185
10.29600,28852
10.30535,26722
10.31468,24690
10.32403,21883
10.33337,21176
10.34270,22415
10.35205,21116
10.36138,22229
10.37072,21642
10.38007,22100
10.38940,20084
10.39873,18433
10.40808,19029
10.41742,21110
10.42675,20236
10.43610,22767
10.44543,24008
10.45477,26791
10.46412,28490
10.47345,26176
10.48278,21359
10.49213,18491
10.50147,18300
10.51082,18328
10.52015,19424
10.52948,20652
10.53883,22069
10.54817,21527
10.55750,20047
10.56685,20712
10.57618,19506
10.58552,20611
10.59487,19380
10.60420,20987
10.61353,19154
10.62288,18945
10.63222,22473
10.64155,22823
10.65090,23364
10.66023,25638
10.66957,33777
10.67892,44304
10.68825,42307
10.69760,36992
10.70693,28570
10.71627,31863
10.72562,33421
10.73495,31583
10.74428,42086
10.75363,75348
10.76297,102120
10.77230,87922
10.78165,61903
10.79098,84638
10.80032,164875
10.80967,225935
10.81900,177371
10.82833,87976
10.83768,39151
10.84702,27781
10.85637,30009
10.86570,46695
10.87503,68844
10.88438,69769
10.89372,52848
10.90305,36734
10.91240,32626
10.92173,30720
10.93107,32275
10.94042,29811
10.94975,26931
10.95908,25481
10.96843,26983
10.97777,26450
10.98710,24689
10.99645,22333
11.00578,21177
11.01512,19858
11.02447,18325
11.03380,18872
11.04315,18799
11.05248,19128
11.06182,18480
11.07117,18130
11.08050,17912
11.08983,18175
11.09918,25636
11.10852,32910
11.11785,35803
11.12720,31353
11.13653,25702
11.14587,21508
11.15522,20161
11.16455,18327
11.17388,18689
11.18323,18923
11.19257,18436
11.20190,17798
11.21125,18721
11.22058,23358
11.22993,25636
11.23927,24237
11.24860,23841
11.25795,30855
11.26728,36318
11.27662,32725
11.28597,27170
11.29530,26895
11.30463,32681
11.31398,32938
11.32332,31074
11.33265,31347
11.34200,35466
11.35133,40922
11.36067,42755
11.37002,41731
11.37935,34784
11.38868,29893
11.39803,32177
11.40737,39534
11.41672,37972
11.42605,28725
11.43538,21251
11.44473,19740
11.45407,19624
11.46340,27124
11.47275,42121
11.48208,45305
11.49142,35442
11.50077,23069
11.51010,17360
11.51943,16934
11.52878,17594
11.53812,19252
11.54745,24042
11.55680,39228
11.56613,71572
11.57547,106654
11.58482,101666
11.59415,78395
11.60350,55443
11.61283,41018
11.62217,35783
11.63152,30117
11.64085,29162
11.65018,31307
11.65953,36398
11.66887,37666
11.67820,34057
11.68755,30165
11.69688,27160
11.70622,25977
11.71557,29592
11.72490,29718
11.73423,30607
11.74358,28981
11.75292,26963
11.76225,26301
11.77160,28668
11.78093,34674
11.79028,41793
11.79962,38677
11.80895,34427
11.81830,33173
11.82763,35792
11.83697,33556
11.84632,28546
11.85565,25690
11.86498,22566
11.87433,24388
11.88367,26484
11.89300,24286
11.90235,23686
11.91168,20949
11.92102,21624
11.93037,25714
11.93970,39903
11.94905,51173
11.95838,50811
11.96772,36905
11.97707,25447
11.98640,23466
11.99573,25618
12.00508,33334
12.01442,45556
12.02375,46510
12.03310,37193
12.04243,27908
12.05177,23945
12.06112,20804
12.07045,19895
12.07978,20612
12.08913,23446
12.09847,24158
12.10780,23358
12.11715,20155
12.12648,19522
12.13583,20120
12.14517,22840
12.15450,23764
12.16385,40769
12.17318,78539
12.18252,105505
12.19187,87986
12.20120,45388
12.21053,27050
12.21988,22669
12.22922,24985
12.23855,26858
12.24790,24266
12.25723,38420
12.26657,106799
12.27592,249807
12.28525,310714
12.29458,213283
12.30393,93588
12.31327,44371
12.32262,31766
12.33195,28575
12.34128,26945
12.35063,26351
12.35997,26412
12.36930,25354
12.37865,28347
12.38798,28588
12.39732,26062
12.40667,24004
12.41600,23205
12.42533,23608
12.43468,22958
12.44402,21569
12.45335,22721
12.46270,24130
12.47203,25103
12.48137,25282
12.49072,24327
12.50005,26056
12.50940,25059
12.51873,25351
12.52807,25045
12.53742,25252
12.54675,26794
12.55608,32696
12.56543,37215
12.57477,37962
12.58410,31188
12.59345,25369
12.60278,22600
12.61212,21776
12.62147,23552
12.63080,30270
12.64013,40888
12.64948,49280
12.65882,44064
12.66817,35664
12.67750,24371
12.68683,20666
12.69618,18426
12.70552,18326
12.71485,19879
12.72420,21815
12.73353,21595
12.74287,22696
12.75222,24910
12.76155,24932
12.77088,22541
12.78023,20499
12.78957,19816
12.79890,19906
12.80825,20985
12.81758,22308
12.82692,22248
12.83627,21935
12.84560,20853
12.85495,19944
12.86428,18725
12.87362,19281
12.88297,18827
12.89230,20801
12.90163,22361
12.91098,22579
12.92032,20405
12.92965,19701
12.93900,19706
12.94833,20017
12.95767,21561
12.96702,21370
12.97635,17671
12.98568,17111
12.99503,17684
13.00437,18867
13.01370,22065
13.02305,25652
13.03238,31350
13.04173,29297
13.05107,26709
13.06040,21381
13.06975,22015
13.07908,22679
13.08842,22224
13.09777,22343
13.10710,22642
13.11643,19925
13.12578,21592
13.13512,25059
13.14445,27893
13.15380,29173
13.16313,34004
13.17247,37043
13.18182,36372
13.19115,44856
13.20048,97300
13.20983,200653
13.21917,248743
13.22852,182357
13.23785,99060
13.24718,79042
13.25653,77861
13.26587,61784
13.27520,47341
13.28455,40047
13.29388,33840
13.30322,28132
13.31257,29469
13.32190,31175
13.33123,30982
13.34058,33840
13.34992,35506
13.35925,32179
13.36860,27193
13.37793,24980
13.38727,23329
13.39662,27093
13.40595,30111
13.41530,26052
13.42463,23840
13.43397,25110
13.44332,30402
13.45265,29804
13.46198,27869
13.47133,28290
13.48067,29447
13.49000,26710
13.49935,24304
13.50868,32031
13.51802,60506
13.52737,106160
13.53670,116716
13.54603,81473
13.55538,43618
13.56472,28923
13.57407,23519
13.58340,21392
13.59273,19550
13.60208,18648
13.61142,19539
13.62075,21969
13.63010,34222
13.63943,57423
13.64877,74944
13.65812,71208
13.66745,47921
13.67678,31173
13.68613,25895
13.69547,22033
13.70480,19998
13.71415,19970
13.72348,17926
13.73282,18470
13.74217,19126
13.75150,20253
13.76085,19450
13.77018,20261
13.77952,20531
13.78887,21326
13.79820,24418
13.80753,25820
13.81688,27115
13.82622,22355
13.83555,20237
13.84490,19399
13.85423,20715
13.86357,21337
13.87292,24462
13.88225,30674
13.89158,48262
13.90093,83377
13.91027,152449
13.91960,224052
13.92895,205352
13.93828,114618
13.94763,51050
13.95697,34613
13.96630,31114
13.97565,27323
13.98498,24179
13.99432,25174
14.00367,24405
14.01300,23320
14.02233,23056
14.03168,22408
14.04102,63198
14.05035,408412
14.05970,1863874
14.06903,4435760
14.07837,5743843
14.08772,3582058
14.09705,1010218
14.10638,163086
14.11573,45433
14.12507,33530
14.13442,30381
14.14375,30147
14.15308,31982
14.16243,36178
14.17177,46090
14.18110,85473
14.19045,189191
14.19978,270426
14.20912,203758
14.21847,94176
14.22780,42408
14.23713,26359
14.24648,22680
14.25582,22455
14.26515,20827
14.27450,22854
14.28383,22711
14.29318,22058
14.30252,21756
14.31185,23519
14.32120,27185
14.33053,31627
14.33987,34852
14.34922,31286
14.35855,26021
14.36788,22499
14.37723,20397
14.38657,21287
14.39590,21048
14.40525,18367
14.41458,18557
14.42392,19799
14.43327,18178
14.44260,20045
14.45193,21721
14.46128,26176
14.47062,26259
14.47997,24658
14.48930,21845
14.49863,20330
14.50798,19914
14.51732,18391
14.52665,18595
14.53600,19674
14.54533,19488
14.55467,21882
14.56402,21877
14.57335,21578
14.58268,21329
14.59203,20573
14.60137,19120
14.61070,18405
14.62005,19057
14.62938,21187
14.63872,23136
14.64807,31226
14.65740,35098
14.66675,32054
14.67608,26403
14.68542,24358
14.69477,21364
14.70410,19813
14.71343,19659
14.72278,20991
14.73212,20478
14.74145,21965
14.75080,21324
14.76013,21341
14.76947,22255
14.77882,24695
14.78815,24954
14.79748,21987
14.80683,21420
14.81617,20319
14.82550,21408
14.83485,20430
14.84418,18361
14.85353,18998
14.86287,23543
14.87220,27738
14.88155,29822
14.89088,26340
14.90022,22577
14.90957,20406
14.91890,19812
14.92823,16807
14.93758,18524
14.94692,17219
14.95625,17729
14.96560,17823
14.97493,19280
14.98427,20430
14.99362,21076
15.00295,22998
15.01228,25740
15.02163,24345
15.03097,21342
15.04032,19678
15.04965,22468
15.05898,22666
15.06833,20829
15.07767,20026
15.08700,19893
15.09635,19354
15.10568,18991
15.11502,19228
15.12437,22345
15.13370,25066
15.14303,23626
15.15238,21610
15.16172,18504
15.17105,19259
15.18040,17419
15.18973,19775
15.19907,26669
15.20842,38854
15.21775,50633
15.22710,43503
15.23643,35669
15.24577,29702
15.25512,25706
15.26445,22594
15.27378,21745
15.28313,22729
15.29247,21370
15.30180,20249
15.31115,21067
15.32048,22413
15.32982,24420
15.33917,25687
15.34850,24462
15.35783,24106
15.36718,27984
15.37652,28563
15.38587,26895
15.39520,21748
15.40453,19820
15.41388,19797
15.42322,21946
15.43255,23522
15.44190,23008
15.45123,20705
15.46057,20211
15.46992,20227
15.47925,22929
15.48858,28073
15.49793,31675
15.50727,32276
15.51660,32998
15.52595,37240
15.53528,34072
15.54462,26618
15.55397,22466
15.56330,21595
15.57265,19772
15.58198,19070
15.59132,20616
15.60067,21520
15.61000,21587
15.61933,22520
15.62868,23809
15.63802,25036
15.64735,24566
15.65670,25294
15.66603,25510
15.67537,24891
15.68472,27492
15.69405,32243
15.70338,36421
15.71273,40097
15.72207,33924
15.73140,27391
15.74075,26813
15.75008,31367
15.75943,35437
15.76877,36145
15.77810,30284
15.78745,23281
15.79678,23540
15.80612,32820
15.81547,65390
15.82480,130576
15.83413,209333
15.84348,235795
15.85282,187281
15.86215,109303
15.87150,58534
15.88083,44513
15.89017,41852
15.89952,43921
15.90885,41931
15.91818,36022
15.92753,29843
15.93687,25332
15.94622,23850
15.95555,23077
15.96488,25491
15.97423,31866
15.98357,41493
15.99290,51956
16.00225,53058
16.01158,41297
16.02092,28124
16.03027,24191
16.03960,24330
16.04893,24408
16.05828,24498
16.06762,26125
16.07695,24396
16.08630,22331
16.09563,22018
16.10498,25116
16.11432,29671
16.12365,32601
16.13300,31653
16.14233,27886
16.15167,24478
16.16102,24458
16.17035,23893
16.17968,23010
16.18903,23828
16.19837,25312
16.20770,28654
16.21705,31602
16.22638,31891
16.23572,31487
16.24507,32087
16.25440,30310
16.26373,31436
16.27308,36557
16.28242,58148
16.29177,108853
16.30110,153257
16.31043,134677
16.31978,76442
16.32912,38105
16.33845,25608
16.34780,22701
16.35713,20789
16.36647,19297
16.37582,18430
16.38515,18182
16.39448,19897
16.40383,21494
16.41317,21359
16.42250,21777
16.43185,21135
16.44118,21732
16.45052,22823
16.45987,24692
16.46920,25089
16.47855,22508
16.48788,21954
16.49722,22949
16.50657,22150
16.51590,23766
16.52523,24843
16.53458,23913
16.54392,20862
16.55325,20230
16.56260,19717
16.57193,20550
16.58127,20280
16.59062,20722
16.59995,21337
16.60928,19263
16.61863,21535
16.62797,24926
16.63730,27228
16.64665,27661
16.65598,26214
16.66533,23994
16.67467,23612
16.68400,23808
16.69335,29243
16.70268,30321
16.71202,27745
16.72137,24221
16.73070,24131
16.74003,35770
16.74938,60069
16.75872,66507
16.76805,49688
16.77740,29191
16.78673,21300
16.79607,21585
16.80542,20523
16.81475,23788
16.82408,25575
16.83343,29033
16.84277,29569
16.85212,26150
16.86145,25158
16.87078,22560
16.88013,22763
16.88947,21311
16.89880,23166
16.90815,27071
16.91748,30150
16.92682,31481
16.93617,26994
16.94550,29147
16.95483,31352
16.96418,34987
16.97352,33546
16.98285,29006
16.99220,25549
17.00153,22699
17.01088,21867
17.02022,27951
17.02955,43472
17.03890,53895
17.04823,44573
17.05757,31876
17.06692,24873
17.07625,24336
17.08558,23448
17.09493,24125
17.10427,22263
17.11360,22039
17.12295,23732
17.13228,26201
17.14162,28863
17.15097,26624
17.16030,25588
17.16963,25081
17.17898,26458
17.18832,23982
17.19767,21681
17.20700,20938
17.21633,19595
17.22568,20128
17.23502,21062
17.24435,21828
17.25370,21402
17.26303,23015
17.27237,24309
17.28172,25296
17.29105,26799
17.30038,25165
17.30973,27201
17.31907,29002
17.32840,27996
17.33775,27547
17.34708,23785
17.35642,22084
17.36577,26055
17.37510,42312
17.38445,81616
17.39378,105032
17.40312,76538
17.41247,46060
17.42180,35394
17.43113,30116
17.44048,28509
17.44982,26055
17.45915,25405
17.46850,22346
17.47783,25978
17.48717,54961
17.49652,248077
17.50585,827517
17.51518,1466351
17.52453,1349198
17.53387,633139
17.54320,154241
17.55255,44149
17.56188,28422
17.57123,28070
17.58057,29669
17.58990,29985
17.59925,26484
17.60858,24115
17.61792,23194
17.62727,23119
17.63660,22349
17.64593,23100
17.65528,24857
17.66462,26606
17.67395,30982
17.68330,36794
17.69263,39808
17.70197,36354
17.71132,30151
17.72065,26791
17.73000,24467
17.73933,23231
17.74867,24326
17.75802,26775
17.76735,29346
17.77668,29716
17.78603,27948
17.79537,25583
17.80470,25016
17.81405,23410
17.82338,22619
17.83272,21669
17.84207,23635
17.85140,24293
17.86073,28314
17.87008,30561
17.87942,29886
17.88875,26721
17.89810,22138
17.90743,21658
17.91678,21239
17.92612,21657
17.93545,21645
17.94480,21638
17.95413,24126
17.96347,26128
17.97282,26127
17.98215,22487
17.99148,22937
18.00083,20633
18.01017,20077
18.01950,21267
18.02885,20959
18.03818,19715
18.04752,23473
18.05687,23268
18.06620,24084
18.07553,22085
18.08488,21114
18.09422,21090
18.10357,20471
18.11290,21618
18.12223,22206
18.13158,21362
18.14092,20653
18.15025,21924
18.15960,20694
18.16893,20625
18.17827,21868
18.18762,20559
18.19695,19686
18.20628,18905
18.21563,20268
18.22497,20887
18.23430,20622
18.24365,20991
18.25298,19794
18.26232,18900
18.27167,21939
18.28100,24162
18.29035,24708
18.29968,25625
18.30902,27342
18.31837,27548
18.32770,25703
18.33703,28971
18.34638,30348
18.35572,31054
18.36505,29777
18.37440,28238
18.38373,34923
18.39307,57371
18.40242,104542
18.41175,141541
18.42108,114243
18.43043,66863
18.43977,42656
18.44910,34293
18.45845,29170
18.46778,26379
18.47713,25609
18.48647,28286
18.49580,32947
18.50515,37801
18.51448,39216
18.52382,38086
18.53317,31650
18.54250,25247
18.55183,23244
18.56118,23440
18.57052,23399
18.57985,23682
18.58920,23528
18.59853,24921
18.60787,25921
18.61722,26562
18.62655,27114
18.63588,28626
18.64523,27824
18.65457,26045
18.66392,25703
18.67325,27969
18.68258,26951
18.69193,27799
18.70127,27575
18.71060,27507
18.71995,29016
18.72928,28457
18.73862,28581
18.74797,25836
18.75730,22558
18.76663,22256
18.77598,20183
18.78532,20199
18.79465,19677
18.80400,22563
18.81333,21699
18.82268,22437
18.83202,22268
18.84135,20751
18.85070,19757
18.86003,19705
18.86937,18955
18.87872,20226
18.88805,19619
18.89738,19587
18.90673,21354
18.91607,24620
18.92540,23949
18.93475,24498
18.94408,25230
18.95342,25563
18.96277,28715
18.97210,30254
18.98143,28277
18.99078,27082
19.00012,22020
19.00947,21503
19.01880,20951
19.02813,21731
19.03748,22767
19.04682,31536
19.05615,39463
19.06550,47340
19.07483,61847
19.08417,74766
19.09352,77213
19.10285,53077
19.11218,32766
19.12153,25744
19.13087,22176
19.14020,20374
19.14955,20717
19.15888,19976
19.16822,18807
19.17757,19489
19.18690,21434
19.19625,23189
19.20558,24960
19.21492,24071
19.22427,22080
19.23360,21908
19.24293,19859
19.25228,19987
19.26162,20224
19.27095,22229
19.28030,24908
19.28963,27113
19.29897,25980
19.30832,29355
19.31765,33315
19.32698,31939
19.33633,28233
19.34567,24026
19.35500,21098
19.36435,20406
19.37368,19381
19.38303,19871
19.39237,21512
19.40170,22455
19.41105,23151
19.42038,21106
19.42972,20544
19.43907,19424
19.44840,17673
19.45773,18831
19.46708,20251
19.47642,23619
19.48575,25388
19.49510,24949
19.50443,24343
19.51377,21771
19.52312,21960
19.53245,22146
19.54180,22186
19.55113,20321
19.56047,19842
19.56982,22337
19.57915,23351
19.58848,23527
19.59783,20842
19.60717,20533
19.61650,20311
19.62585,22636
19.63518,24692
19.64452,23908
19.65387,23168
19.66320,21791
19.67253,18911
19.68188,21130
19.69122,21594
19.70055,23723
19.70990,26207
19.71923,28993
19.72858,33257
19.73792,36536
19.74725,30973
19.75660,26373
19.76593,24553
19.77527,26369
19.78462,24352
19.79395,23696
19.80328,22718
19.81263,20975
19.82197,21118
19.83130,20315
19.84065,19732
19.84998,18718
19.85932,19662
19.86867,25728
19.87800,33227
19.88733,33865
19.89668,30419
19.90602,26582
19.91537,23829
19.92470,22322
19.93403,21898
19.94338,22163
19.95272,21835
19.96205,22714
19.97140,23019
19.98073,22353
19.99007,20763
19.99942,20790
20.00875,20926
20.01808,23372
20.02743,23426
20.03677,22269
20.04610,24546
20.05545,22364
20.06478,21920
20.07412,21910
20.08347,22444
20.09280,22450
20.10215,20897
20.11148,20439
20.12082,18431
20.13017,18600
20.13950,19618
20.14883,23575
20.15818,26313
20.16752,25209
20.17685,23503
20.18620,21088
20.19553,19607
20.20487,18959
20.21422,20021
20.22355,20546
20.23288,19667
20.24223,18925
20.25157,18833
20.26090,20210
20.27025,19238
20.27958,18667
20.28893,20577
20.29827,20527
20.30760,19598
20.31695,18541
20.32628,19251
20.33562,18529
20.34497,17960
20.35430,19179
20.36363,19953
20.37298,20386
20.38232,20091
20.39165,18730
20.40100,19525
20.41033,19651
20.41967,19240
20.42902,20556
20.43835,20547
20.44770,21551
20.45703,20312
20.46637,23695
20.47572,26685
20.48505,25633
20.49438,21393
20.50373,20708
20.51307,17567
20.52240,18510
20.53175,19001
20.54108,20914
20.55042,22849
20.55977,34189
20.56910,61556
20.57843,106638
20.58778,114160
20.59712,71552
20.60645,39296
20.61580,27115
20.62513,26636
20.63448,28304
20.64382,29738
20.65315,32851
20.66250,29116
20.67183,25048
20.68117,23676
20.69052,23482
20.69985,23625
20.70918,22907
20.71853,23453
20.72787,23593
20.73720,22559
20.74655,21569
20.75588,21692
20.76522,21061
20.77457,20459
20.78390,22511
20.79323,23581
20.80258,25437
20.81192,24616
20.82127,23885
20.83060,21957
20.83993,19572
20.84928,18488
20.85862,20183
20.86795,19009
20.87730,19487
20.88663,21438
20.89597,22079
20.90532,24734
20.91465,25465
20.92398,23138
20.93333,22038
20.94267,20733
20.95200,19321
20.96135,19861
20.97068,19709
20.98002,18978
20.98937,18752
20.99870,18118
21.00805,20166
21.01738,18453
21.02672,18755
21.03607,19246
21.04540,18740
21.05473,18730
21.06408,19322
21.07342,18738
21.08275,19408
21.09210,18955
21.10143,20048
21.11077,20712
21.12012,20151
21.12945,19075
21.13878,18656
21.14813,20132
21.15747,20850
21.16682,23988
21.17615,32553
21.18548,41149
21.19483,44735
21.20417,35977
21.21350,28928
21.22285,24921
21.23218,22459
21.24152,20958
21.25087,21197
21.26020,20055
21.26953,21600
21.27888,23541
21.28822,25200
21.29755,24714
21.30690,21453
21.31623,20714
21.32557,19533
21.33492,19938
21.34425,18569
21.35360,18998
21.36293,19441
21.37227,19345
21.38162,19986
21.39095,19836
21.40028,19926
21.40963,21401
21.41897,21656
21.42830,21921
21.43765,21274
21.44698,20954
21.45632,19201
21.46567,18831
21.47500,20182
21.48433,21179
21.49368,21982
21.50302,21500
21.51235,21554
21.52170,20691
21.53103,22371
21.54038,20374
21.54972,20447
21.55905,23012
21.56840,31562
21.57773,34183
21.58707,30606
21.59642,25757
21.60575,23732
21.61508,22229
21.62443,23660
21.63377,23780
21.64310,21740
21.65245,21797
21.66178,20556
21.67112,22966
21.68047,24951
21.68980,27270
21.69913,25056
21.70848,25087
21.71782,25694
21.72717,26487
21.73650,25433
21.74583,23569
21.75518,21604
21.76452,21243
21.77385,21013
21.78320,20790
21.79253,20206
21.80187,21504
21.81122,24202
21.82055,26515
21.82988,26505
21.83923,21999
21.84857,21331
21.85790,20605
21.86725,22077
21.87658,24064
21.88592,26514
21.89527,29374
21.90460,27860
21.91395,24926
21.92328,22175
21.93262,21620
21.94197,19323
21.95130,21953
21.96063,22205
21.96998,23792
21.97932,28918
21.98865,30320
21.99800,31531
22.00733,28324
22.01667,24865
22.02602,22660
22.03535,21980
22.04468,23524
22.05403,25016
22.06337,24738
22.07270,25492
22.08205,24540
22.09138,23786
22.10073,22805
22.11007,20987
22.11940,21354
22.12875,21891
22.13808,21891
22.14742,23572
22.15677,25974
22.16610,29286
22.17543,30609
22.18478,28902
22.19412,25378
22.20345,21723
22.21280,24561
22.22213,26314
22.23147,29547
22.24082,28080
22.25015,23988
22.25950,24496
22.26883,24004
22.27817,28124
22.28752,30036
22.29685,30917
22.30618,29619
22.31553,25290
22.32487,22668
22.33420,21896
22.34355,23340
22.35288,24755
22.36222,27868
22.37157,27528
22.38090,27165
22.39023,24371
22.39958,23214
22.40892,21723
22.41825,21456
22.42760,22695
22.43693,22137
22.44628,23621
22.45562,21638
22.46495,21682
22.47430,21953
22.48363,20484
22.49297,20033
22.50232,19750
22.51165,20656
22.52098,20190
22.53033,21932
22.53967,20260
22.54900,20690
22.55835,22562
22.56768,22754
22.57702,25425
22.58637,25007
22.59570,27250
22.60503,25846
22.61438,29400
22.62372,28109
22.63307,28092
22.64240,25298
22.65173,22687
22.66108,22053
22.67042,20657
22.67975,24205
22.68910,26649
22.69843,27945
22.70777,25420
22.71712,24009
22.72645,25959
22.73578,28122
22.74513,28470
22.75447,28952
22.76380,31384
22.77315,27059
22.78248,26905
22.79182,24904
22.80117,26201
22.81050,27127
22.81985,25897
22.82918,25390
22.83852,25298
22.84787,23443
22.85720,23918
22.86653,23217
22.87588,23567
22.88522,24339
22.89455,24640
22.90390,23368
22.91323,24561
22.92257,24897
22.93192,26218
22.94125,24727
22.95058,24380
22.95993,23411
22.96927,22084
22.97862,22187
22.98795,21707
22.99728,21508
23.00663,21047
23.01597,20580
23.02530,21803
23.03465,20535
23.04398,21247
23.05332,21928
23.06267,21706
23.07200,20497
23.08133,21377
23.09068,20831
23.10002,19720
23.10935,18290
23.11870,19646
23.12803,20009
23.13737,20265
23.14672,19657
23.15605,19363
23.16540,19250
23.17473,19833
23.18407,19492
23.19342,19389
23.20275,19678
23.21208,19492
23.22143,20335
23.23077,18399
23.24010,20496
23.24945,21837
23.25878,22952
23.26812,23964
23.27747,25086
23.28680,23755
23.29613,23095
23.30548,23267
23.31482,23307
23.32415,24003
23.33350,26245
23.34283,28033
23.35218,25495
23.36152,23487
23.37085,22521
23.38020,22146
23.38953,22019
23.39887,21741
23.40822,22829
23.41755,21935
23.42688,21040
23.43623,21543
23.44557,21471
23.45490,22453
23.46425,22593
23.47358,21511
23.48292,20638
23.49227,19060
23.50160,19512
23.51093,19626
23.52028,21010
23.52962,20294
23.53897,23282
23.54830,20613
23.55763,21262
23.56698,20212
23.57632,22307
23.58565,22897
23.59500,22093
23.60433,21225
23.61367,21712
23.62302,19423
23.63235,19814
23.64168,19066
23.65103,19216
23.66037,19643
23.66970,20891
23.67905,21320
23.68838,21234
23.69772,23366
23.70707,24064
23.71640,24660
23.72575,25708
23.73508,23851
23.74442,22596
23.75377,21100
23.76310,21340
23.77243,20792
23.78178,20800
23.79112,21070
23.80045,20757
23.80980,20946
23.81913,21517
23.82847,21108
23.83782,19866
23.84715,19937
23.85648,19797
23.86583,20085
23.87517,18970
23.88452,20745
23.89385,20209
23.90318,21427
23.91253,20728
23.92187,21116
23.93120,20463
23.94055,21230
23.94988,20910
23.95922,21125
23.96857,20152
23.97790,20110
23.98723,20706
23.99658,19670
24.00592,19819
24.01525,19925
24.02460,19456
24.03393,20495
24.04327,18590
24.05262,19335
24.06195,18861
24.07130,20426
24.08063,19353
24.08997,19371
24.09932,19471
24.10865,19704
24.11798,18075
24.12733,18672
24.13667,18047
24.14600,19387
24.15535,18907
24.16468,18757
24.17402,19831
24.18337,20192
24.19270,19073
24.20203,20129
24.21138,20024
24.22072,19123
24.23005,20774
24.23940,19335
24.24873,19875
24.25808,19693
24.26742,19881
24.27675,20297
24.28610,19463
24.29543,20300
24.30477,20777
24.31412,22250
24.32345,21868
24.33278,23837
24.34213,19941
24.35147,20850
24.36080,20132
24.37015,20329
24.37948,20663
24.38882,20798
24.39817,20936
24.40750,21091
24.41683,20256
24.42618,19968
24.43552,18778
24.44487,21034
24.45420,19145
24.46353,19295
24.47288,19953
24.48222,19053
24.49155,19212
24.50090,18729
24.51023,19388
24.51957,19725
24.52892,19168
24.53825,18710
24.54758,20278
24.55693,20601
24.56627,19568
24.57560,18762
24.58495,19379
24.59428,18706
24.60363,19949
24.61297,20199
24.62230,21281
24.63165,19924
24.64098,20329
24.65032,19760
24.65967,21911
24.66900,23160
24.67833,22714
24.68768,21238
24.69702,21444
24.70635,21110
24.71570,21472
24.72503,20716
24.73437,21183
24.74372,20012
24.75305,20655
24.76238,21591
24.77173,21575
24.78107,20138
24.79042,19903
24.79975,20279
24.80908,20139
24.81843,20205
24.82777,19568
24.83710,19352
24.84645,19097
24.85578,18961
24.86512,20047
24.87447,21211
24.88380,22211
24.89313,21495
24.90248,20925
24.91182,20954
24.92115,20914
24.93050,19472
24.93983,21141
24.94917,21951
24.95852,21001
24.96785,21879
24.97720,21272
24.98653,20223
24.99587,20830
25.00522,21555
25.01455,20440
25.02388,20691
25.03323,21007
25.04257,20237
25.05190,20852
25.06125,22342
25.07058,20064
25.07992,20479
25.08927,22440
25.09860,20317
25.10793,20792
25.11728,19951
25.12662,20417
25.13595,20974
25.14530,21927
25.15463,21875
25.16398,20936
25.17332,22181
25.18265,20280
25.19200,22309
25.20133,21138
25.21067,21759
25.22002,21440
25.22935,21511
25.23868,21151
25.24803,21808
25.25737,20618
25.26670,20807
25.27605,22659
25.28538,21877
25.29472,20615
25.30407,22979
25.31340,27379
25.32273,36353
25.33208,45028
25.34142,41568
25.35077,34361
25.36010,29095
25.36943,25730
25.37878,24616
25.38812,24529
25.39745,24047
25.40680,23722
25.41613,23264
25.42547,23108
25.43482,22605
25.44415,24104
25.45348,24413
25.46283,24449
25.47217,25761
25.48150,29154
25.49085,30025
25.50018,29849
25.50952,29454
25.51887,27704
25.52820,27298
25.53755,28221
25.54688,27851
25.55622,27422
25.56557,29178
25.57490,27922
25.58423,24929
25.59358,24443
25.60292,25969
25.61225,25750
25.62160,24493
25.63093,25919
25.64027,25958
25.64962,26953
25.65895,25976
25.66828,26496
25.67763,25092
25.68697,25245
25.69632,25621
25.70565,26645
25.71498,26116
25.72433,25304
25.73367,26985
25.74300,27846
25.75235,28465
25.76168,29193
25.77102,29413
25.78037,29335
25.78970,28299
25.79903,29150
25.80838,29397
25.81772,28198
25.82705,27896
25.83640,30155
25.84573,28166
25.85507,28886
25.86442,27648
25.87375,27610
25.88310,26757
25.89243,25811
25.90177,26251
25.91112,24861
25.92045,24973
25.92978,26810
25.93913,25026
25.94847,24230
25.95780,25129
25.96715,24627
25.97648,25067
25.98582,24649
25.99517,24335
26.00450,24182
26.01383,23858
26.02318,24369
26.03252,22876
26.04185,25475
26.05120,24316
26.06053,24038
26.06988,25104
26.07922,24723
26.08855,24281
26.09790,24435
26.10723,25073
26.11657,25907
26.12592,25164
26.13525,29267
26.14458,28115
26.15393,29787
26.16327,27460
26.17260,26566
26.18195,24957
26.19128,25138
26.20062,23650
26.20997,24555
26.21930,24038
26.22865,23784
26.23798,23219
26.24732,23719
26.25667,22917
26.26600,22626
26.27533,23235
26.28468,22604
26.29402,23653
26.30335,24097
26.31270,23427
26.32203,22841
26.33137,22605
26.34072,23156
26.35005,22962
26.35938,22893
26.36873,22601
26.37807,22552
26.38740,21920
26.39675,22082
26.40608,21958
26.41543,22866
26.42477,22417
26.43410,23896
26.44345,25391
26.45278,24422
26.46212,26073
26.47147,25773
26.48080,25114
26.49013,26053
26.49948,26853
26.50882,25046
26.51815,25067
26.52750,25544
26.53683,28801
26.54617,27313
26.55552,27224
26.56485,27273
26.57418,25325
26.58353,24795
26.59287,24955
26.60222,24175
26.61155,25571
26.62088,25088
26.63023,25262
26.63957,25713
26.64890,23725
26.65825,25549
26.66758,25642
26.67692,26813
26.68627,25656
26.69560,25190
26.70493,24480
26.71428,24752
26.72362,24683
26.73295,25890
26.74230,23558
26.75163,25625
26.76097,26447
26.77032,26811
26.77965,27192
26.78900,27264
26.79833,26131
26.80767,26257
26.81702,26883
26.82635,27331
26.83568,25524
26.84503,26207
26.85437,25922
26.86370,25610
26.87305,25326
26.88238,23904
26.89172,25048
26.90107,23990
26.91040,23150
26.91973,24111
26.92908,23958
26.93842,23425
26.94775,24834
26.95710,23445
26.96643,23518
26.97578,24583
26.98512,24537
26.99445,24338
27.00380,25526
27.01313,24794
27.02247,24548
27.03182,24674
27.04115,25192
27.05048,25596
27.05983,25226
27.06917,24358
27.07850,25523
27.08785,24961
27.09718,25244
27.10652,23857
27.11587,25184
27.12520,25772
27.13453,25969
27.14388,26384
27.15322,26334
27.16257,25264
27.17190,24918
27.18123,24783
27.19058,24383
27.19992,24251
27.20925,24882
27.21860,25224
27.22793,25205
27.23727,25248
27.24662,26987
27.25595,29350
27.26528,30094
27.27463,29160
27.28397,26815
27.29330,25665
27.30265,26169
27.31198,25617
27.32133,24444
27.33067,24578
27.34000,23835
27.34935,23792
27.35868,24540
27.36802,23335
27.37737,24498
27.38670,23220
27.39603,23854
27.40538,25156
27.41472,25043
27.42405,24865
27.43340,25383
27.44273,23925
27.45207,27165
27.46142,27261
27.47075,26497
27.48008,26927
27.48943,25682
27.49877,26252
27.50812,27693
27.51745,26602
27.52678,26374
27.53613,24950
27.54547,26756
27.55480,27131
27.56415,24140
27.57348,25693
27.58282,25580
27.59217,27327
27.60150,28161
27.61083,26251
27.62018,25840
27.62952,26597
27.63885,27410
27.64820,28079
27.65753,26979
27.66687,31264
27.67622,35771
27.68555,40691
27.69490,38383
27.70423,33818
27.71357,29432
27.72292,27572
27.73225,28265
27.74158,27394
27.75093,25693
27.76027,26220
27.76960,27869
27.77895,27461
27.78828,27202
27.79762,27570
27.80697,26751
27.81630,26471
27.82563,27570
27.83498,27513
27.84432,28562
27.85365,27792
27.86300,27736
27.87233,27420
27.88168,28830
27.89102,28660
27.90035,27781
27.90970,27279
27.91903,27073
27.92837,27794
27.93772,27655
27.94705,28068
27.95638,27747
27.96573,28914
27.97507,28903
27.98440,30395
27.99375,29269
28.00308,28198
28.01242,28143
28.02177,26589
28.03110,27597
28.04045,28015
28.04978,28034
28.05912,27730
28.06847,27275
28.07780,28796
28.08713,27131
28.09648,26570
28.10582,28402
28.11515,30491
28.12450,28988
28.13383,29683
28.14317,30449
28.15252,30652
28.16185,27897
28.17118,30122
28.18053,30124
28.18987,29314
28.19920,28711
28.20855,29904
28.21788,29404
28.22723,28825
28.23657,28618
28.24590,28682
28.25525,28090
28.26458,30373
28.27392,29248
28.28327,28264
28.29260,28235
28.30193,29421
28.31128,28339
28.32062,28387
28.32995,27581
28.33930,28365
28.34863,29175
28.35797,28951
28.36732,29621
28.37665,30692
28.38598,29751
28.39533,28703
28.40467,28420
28.41402,28269
28.42335,30052
28.43268,29745
28.44203,31030
28.45137,29563
28.46070,29727
28.47005,30675
28.47938,28877
28.48872,29797
28.49807,30434
28.50740,30450
28.51673,28375
28.52608,28364
28.53542,29523
28.54475,29855
28.55410,30111
28.56343,30686
28.57277,32160
28.58212,30276
28.59145,32964
28.60080,32461
28.61013,33045
28.61947,31607
28.62882,32644
28.63815,31244
28.64748,33031
28.65683,37785
28.66617,51302
28.67550,81355
28.68485,102211
28.69418,96165
28.70352,75352
28.71287,56667
28.72220,45600
28.73153,40160
28.74088,41031
28.75022,37646
28.75955,35923
28.76890,37496
28.77823,34005
28.78758,34439
28.79692,35460
28.80625,36798
28.81560,35441
28.82493,33578
28.83427,35705
28.84362,34965
28.85295,34770
28.86228,33621
28.87163,34830
28.88097,34178
28.89030,35377
28.89965,34632
28.90898,34283
28.91832,34140
28.92767,35068
28.93700,34749
28.94635,36239
28.95568,35563
28.96502,34897
28.97437,36070
28.98370,36304
28.99303,36160
29.00238,34977
29.01172,34409
29.02105,33801
29.03040,33347
29.03973,35852
29.04907,34869
29.05842,32902
29.06775,33592
29.07708,33702
29.08643,34128
29.09577,32430
29.10510,35393
29.11445,34698
29.12378,33977
29.13313,36206
29.14247,36875
29.15180,33778
29.16115,35272
29.17048,34642
29.17982,34837
29.18917,35841
29.19850,35831
29.20783,36079
29.21718,35644
29.22652,36613
29.23585,34945
29.24520,35497
29.25453,34636
29.26387,35185
29.27322,34936
29.28255,36212
29.29188,36065
29.30123,36000
29.31057,35465
29.31992,34600
29.32925,36016
29.33858,36617
29.34793,37201
29.35727,37823
29.36660,38582
29.37595,37056
29.38528,37676
29.39462,38283
29.40397,38220
29.41330,38486
29.42263,38122
29.43198,38937
29.44132,39824
29.45065,40795
29.46000,41817
29.46933,44849
29.47867,46068
29.48802,42873
29.49735,42160
29.50670,40570
29.51603,40011
29.52537,40158
29.53472,37630
29.54405,38977
29.55338,36433
29.56273,37158
29.57207,37223
29.58140,36067
29.59075,37702
29.60008,37135
29.60942,36229
29.61877,36092
29.62810,36969
29.63743,36475
29.64678,37421
29.65612,37070
29.66547,37812
29.67480,37549
29.68413,37176
29.69348,38207
29.70282,36751
29.71215,39432
29.72150,38119
29.73083,39814
29.74017,37206
29.74952,38867
29.75885,38680
29.76818,38124
29.77753,37082
29.78687,36211
29.79620,36682
29.80555,35465
29.81488,37330
29.82422,37631
29.83357,37073
29.84290,37445
29.85225,36962
29.86158,37751
29.87092,37387
29.88027,38484
29.88960,35620
29.89893,37276
29.90828,37083
29.91762,37466
29.92695,37574
29.93630,38525
29.94563,36486
29.95497,39077
29.96432,37747
29.97365,40083
29.98298,39587
29.99233,39120
30.00167,39652
30.01100,39628
30.02035,39026
30.02968,39486
30.03903,36537
30.04837,38475
30.05770,40176
30.06705,38080
30.07638,38671
30.08572,38287
30.09507,36584
30.10440,36908
30.11373,38365
30.12308,38802
30.13242,41041
30.14175,38499
30.15110,40293
30.16043,39590
30.16977,39349
30.17912,37444
30.18845,40088
30.19778,39280
30.20713,38531
30.21647,38336
30.22582,38246
30.23515,38882
30.24448,38271
30.25383,38866
30.26317,37777
30.27250,38821
30.28185,37597
30.29118,38892
30.30052,40256
30.30987,39828
30.31920,39664
30.32853,39187
30.33788,38845
30.34722,40218
30.35655,42451
30.36590,43444
30.37523,44764
30.38457,44784
30.39392,43012
30.40325,43969
30.41260,42839
30.42193,40667
30.43127,41140
30.44062,38929
30.44995,39522
30.45928,39686
30.46863,40424
30.47797,39780
30.48730,40950
30.49665,40573
30.50598,40883
30.51532,39473
30.52467,41252
30.53400,41685
30.54333,40049
30.55268,39700
30.56202,41858
30.57135,43080
30.58070,44219
30.59003,45394
30.59938,46836
30.60872,49296
30.61805,49285
30.62740,54331
30.63673,55999
30.64607,56527
30.65542,57745
30.66475,58336
30.67408,57754
30.68343,55834
30.69277,54759
30.70210,52926
30.71145,52616
30.72078,50276
30.73012,49219
30.73947,48115
30.74880,47258
30.75815,46017
30.76748,46484
30.77682,46213
30.78617,45047
30.79550,48381
30.80483,46058
30.81418,49027
30.82352,47696
30.83285,46940
30.84220,48072
30.85153,49129
30.86087,49022
30.87022,49181
30.87955,51722
30.88888,50749
30.89823,50663
30.90757,51016
30.91690,51287
30.92625,52581
30.93558,49573
30.94493,51829
30.95427,52406
30.96360,50868
30.97295,50486
30.98228,52821
30.99162,49588
31.00097,51417
31.01030,50037
31.01963,50384
31.02898,50356
31.03832,51718
31.04765,50733
31.05700,52241
31.06633,50072
31.07567,52473
31.08502,50988
31.09435,51314
31.10368,50778
31.11303,49410
31.12237,51071
31.13172,51722
31.14105,49832
31.15038,52323
31.15973,51707
31.16907,51751
31.17840,51858
31.18775,51756
31.19708,51463
31.20642,50986
31.21577,53960
31.22510,52412
31.23443,54721
31.24378,54688
31.25312,53488
31.26245,52559
31.27180,52994
31.28113,51932
31.29047,51808
31.29982,51983
31.30915,51098
31.31850,53424
31.32783,52678
31.33717,51430
31.34652,50317
31.35585,51673
31.36518,51785
