D:\数据\20220224\LCLN-ZS1E #000408.D Thu Feb 24 23:03:48 2022
Start of data points
0.09763,19579
0.10697,20215
0.11630,19689
0.12565,20406
0.13498,19724
0.14432,19387
0.15367,19873
0.16300,18766
0.17233,18221
0.18168,19106
0.19102,19349
0.20035,18708
0.20970,18711
0.21903,18432
0.22837,18222
0.23772,17337
0.24705,18092
0.25640,17104
0.26573,17438
0.27507,17566
0.28442,16911
0.29375,16881
0.30308,17261
0.31243,17776
0.32177,17076
0.33110,17300
0.34045,17251
0.34978,16765
0.35912,17462
0.36847,16906
0.37780,17014
0.38713,17812
0.39648,16026
0.40582,15022
0.41517,12483
0.42450,12433
0.43383,10944
0.44318,7237
0.45252,4924
0.46185,4229
0.47120,3986
0.48053,4444
0.48987,4279
0.49922,3752
0.50855,3776
0.51788,3668
0.52723,3767
0.53657,4276
0.54590,3822
0.55525,4124
0.56458,3522
0.57392,3521
0.58327,3911
0.59260,3977
0.60195,4122
0.61128,3303
0.62062,3135
0.62997,3532
0.63930,3535
0.64863,3547
0.65798,2805
0.66732,3590
0.67665,3324
0.68600,3255
0.69533,3672
0.70467,3676
0.71402,3496
0.72335,3403
0.73268,3352
0.74203,3595
0.75137,3666
0.76070,3069
0.77005,3210
0.77938,3426
0.78873,3481
0.79807,3472
0.80740,3497
0.81675,3715
0.82608,3639
0.83542,3627
0.84477,3125
0.85410,3476
0.86343,3716
0.87278,3427
0.88212,3989
0.89145,3188
0.90080,3324
0.91013,2958
0.91947,3566
0.92882,3382
0.93815,2945
0.94748,3571
0.95683,3743
0.96617,2860
0.97552,3143
0.98485,3413
0.99418,3560
1.00353,3497
1.01287,3003
1.02220,3522
1.03155,3481
1.04088,3379
1.05022,3268
1.05957,3389
1.06890,3017
1.07823,3329
1.08758,2867
1.09692,3746
1.10625,2980
1.11560,3188
1.12493,3468
1.13427,3277
1.14362,3131
1.15295,3294
1.16230,3402
1.17163,3260
1.18097,3619
1.19032,2816
1.19965,3221
1.20898,3072
1.21833,3125
1.22767,3319
1.23700,2981
1.24635,3864
1.25568,3227
1.26502,3275
1.27437,3148
1.28370,2894
1.29303,3116
1.30238,2972
1.31172,3872
1.32105,3242
1.33040,3014
1.33973,2772
1.34908,3542
1.35842,2996
1.36775,3194
1.37710,2799
1.38643,2961
1.39577,2886
1.40512,3438
1.41445,3087
1.42378,2902
1.43313,3171
1.44247,3088
1.45180,3494
1.46115,3221
1.47048,2972
1.47982,3205
1.48917,2913
1.49850,2887
1.50785,3262
1.51718,2622
1.52652,2955
1.53587,3027
1.54520,3478
1.55453,3025
1.56388,3036
1.57322,3386
1.58255,3706
1.59190,7041
1.60123,12230
1.61057,16018
1.61992,19521
1.62925,28314
1.63858,38094
1.64793,42068
1.65727,39481
1.66660,33028
1.67595,28710
1.68528,25226
1.69463,20471
1.70397,16395
1.71330,15387
1.72265,15736
1.73198,17702
1.74132,18884
1.75067,19109
1.76000,20753
1.76933,21811
1.77868,21572
1.78802,22022
1.79735,21762
1.80670,23287
1.81603,23263
1.82537,22570
1.83472,22648
1.84405,22243
1.85338,21733
1.86273,23776
1.87207,31019
1.88142,55470
1.89075,95808
1.90008,131043
1.90943,145988
1.91877,154615
1.92810,227598
1.93745,510116
1.94678,1047559
1.95612,1519499
1.96547,1557219
1.97480,1259105
1.98413,905194
1.99348,651688
2.00282,518698
2.01215,466705
2.02150,413516
2.03083,337613
2.04017,242381
2.04952,168052
2.05885,123585
2.06820,99932
2.07753,93621
2.08687,139909
2.09622,206655
2.10555,173524
2.11488,120552
2.12423,123004
2.13357,224171
2.14290,346822
2.15225,338779
2.16158,250936
2.17092,169546
2.18027,127039
2.18960,126844
2.19893,156718
2.20828,141589
2.21762,109703
2.22697,110165
2.23630,187750
2.24563,507102
2.25498,1933130
2.26432,4022457
2.27365,4156552
2.28300,2891911
2.29233,1658908
2.30167,947345
2.31102,1384523
2.32035,4267891
2.32968,6254508
2.33903,4418446
2.34837,2080725
2.35770,891964
2.36705,427186
2.37638,259920
2.38572,203639
2.39507,165657
2.40440,130983
2.41375,118736
2.42308,147005
2.43242,170578
2.44177,148035
2.45110,104302
2.46043,87440
2.46978,108188
2.47912,134107
2.48845,119548
2.49780,88350
2.50713,68396
2.51647,59223
2.52582,54326
2.53515,53627
2.54448,57035
2.55383,73481
2.56317,247947
2.57250,439703
2.58185,401309
2.59118,273039
2.60053,178392
2.60987,140772
2.61920,148305
2.62855,152326
2.63788,126313
2.64722,112971
2.65657,103275
2.66590,81003
2.67523,62255
2.68458,50864
2.69392,47101
2.70325,47757
2.71260,60894
2.72193,93058
2.73127,124962
2.74062,152792
2.74995,181379
2.75928,222164
2.76863,265669
2.77797,347392
2.78732,283745
2.79665,193289
2.80598,142275
2.81533,117236
2.82467,108791
2.83400,91246
2.84335,74598
2.85268,80027
2.86202,118238
2.87137,136538
2.88070,113670
2.89003,85774
2.89938,68057
2.90872,63638
2.91805,57200
2.92740,55914
2.93673,49764
2.94607,44156
2.95542,41046
2.96475,40228
2.97410,41307
2.98343,42257
2.99277,47433
3.00212,63425
3.01145,79849
3.02078,75657
3.03013,70782
3.03947,75000
3.04880,68288
3.05815,64625
3.06748,75009
3.07682,84570
3.08617,75819
3.09550,56211
3.10483,44289
3.11418,38156
3.12352,38268
3.13287,37617
3.14220,42096
3.15153,50182
3.16088,56716
3.17022,57157
3.17955,51881
3.18890,46502
3.19823,43065
3.20757,39818
3.21692,36390
3.22625,34365
3.23558,31949
3.24493,32738
3.25427,35658
3.26360,36881
3.27295,35536
3.28228,35550
3.29162,35209
3.30097,37838
3.31030,38952
3.31965,38087
3.32898,34806
3.33832,32815
3.34767,34301
3.35700,33768
3.36633,34301
3.37568,34462
3.38502,31699
3.39435,30520
3.40370,32466
3.41303,37281
3.42237,44242
3.43172,50584
3.44105,52997
3.45038,49361
3.45973,43305
3.46907,41125
3.47840,41912
3.48775,42629
3.49708,42173
3.50643,37911
3.51577,35703
3.52510,34327
3.53445,33318
3.54378,40266
3.55312,81268
3.56247,199769
3.57180,333987
3.58113,324524
3.59048,222365
3.59982,143225
3.60915,102795
3.61850,71842
3.62783,55324
3.63717,44598
3.64652,42613
3.65585,40552
3.66518,41654
3.67453,42354
3.68387,42382
3.69322,39973
3.70255,36420
3.71188,36215
3.72123,39198
3.73057,44522
3.73990,44590
3.74925,39690
3.75858,34025
3.76792,31925
3.77727,34111
3.78660,34291
3.79593,36438
3.80528,39670
3.81462,50084
3.82395,60095
3.83330,57203
3.84263,47844
3.85198,40402
3.86132,38127
3.87065,37047
3.88000,36485
3.88933,37833
3.89867,42906
3.90802,50272
3.91735,62316
3.92668,93870
3.93603,116981
3.94537,119284
3.95470,112175
3.96405,114161
3.97338,101569
3.98272,68465
3.99207,52933
4.00140,45644
4.01073,41895
4.02008,39385
4.02942,39482
4.03877,41605
4.04810,48712
4.05743,49701
4.06678,53405
4.07612,62941
4.08545,74163
4.09480,82997
4.10413,78225
4.11347,63980
4.12282,47338
4.13215,42908
4.14148,41319
4.15083,40757
4.16017,41029
4.16950,38875
4.17885,36611
4.18818,32877
4.19752,34223
4.20687,38137
4.21620,39350
4.22555,39396
4.23488,36075
4.24422,36612
4.25357,40212
4.26290,42102
4.27223,39390
4.28158,39955
4.29092,39320
4.30025,35898
4.30960,33287
4.31893,37667
4.32827,41708
4.33762,42037
4.34695,40950
4.35628,37972
4.36563,34329
4.37497,34274
4.38430,33564
4.39365,34108
4.40298,31494
4.41233,29702
4.42167,29251
4.43100,29720
4.44035,30021
4.44968,30426
4.45902,30964
4.46837,37009
4.47770,50166
4.48703,58750
4.49638,55131
4.50572,42734
4.51505,37574
4.52440,36757
4.53373,35046
4.54307,34283
4.55242,31338
4.56175,31498
4.57108,31130
4.58043,32414
4.58977,30175
4.59912,30894
4.60845,32969
4.61778,32633
4.62713,33084
4.63647,40762
4.64580,46778
4.65515,43573
4.66448,37325
4.67382,34530
4.68317,33537
4.69250,34314
4.70183,39156
4.71118,46537
4.72052,47824
4.72985,40200
4.73920,34431
4.74853,31501
4.75788,30232
4.76722,34238
4.77655,36004
4.78590,35032
4.79523,34554
4.80457,35971
4.81392,37967
4.82325,39444
4.83258,33669
4.84193,32504
4.85127,31896
4.86060,37471
4.86995,52102
4.87928,65908
4.88862,60465
4.89797,47965
4.90730,36729
4.91663,34248
4.92598,33762
4.93532,33231
4.94467,34710
4.95400,32369
4.96333,30599
4.97268,31512
4.98202,34179
4.99135,36191
5.00070,44781
5.01003,49097
5.01937,48174
5.02872,39996
5.03805,36958
5.04738,34892
5.05673,34270
5.06607,32057
5.07540,34074
5.08475,37449
5.09408,38615
5.10342,37461
5.11277,34861
5.12210,34229
5.13145,33510
5.14078,38607
5.15012,38019
5.15947,37005
5.16880,36541
5.17813,36150
5.18748,35788
5.19682,35822
5.20615,32077
5.21550,30585
5.22483,30160
5.23417,33598
5.24352,39490
5.25285,38669
5.26218,38844
5.27153,58842
5.28087,117583
5.29020,194788
5.29955,195857
5.30888,129590
5.31823,76125
5.32757,51415
5.33690,42233
5.34625,37472
5.35558,34179
5.36492,33804
5.37427,33731
5.38360,36862
5.39293,41793
5.40228,42327
5.41162,39474
5.42095,36306
5.43030,34295
5.43963,31941
5.44897,36956
5.45832,44616
5.46765,42844
5.47698,38515
5.48633,39100
5.49567,40194
5.50502,38972
5.51435,40505
5.52368,49031
5.53303,59175
5.54237,60616
5.55170,58511
5.56105,57901
5.57038,57137
5.57972,49325
5.58907,39068
5.59840,36172
5.60773,31182
5.61708,31522
5.62642,31926
5.63575,30116
5.64510,31986
5.65443,35718
5.66378,38959
5.67312,38044
5.68245,36400
5.69180,33958
5.70113,32278
5.71047,34182
5.71982,36921
5.72915,37114
5.73848,41506
5.74783,61494
5.75717,73025
5.76650,64895
5.77585,47123
5.78518,36638
5.79452,34112
5.80387,33459
5.81320,37254
5.82253,44358
5.83188,49739
5.84122,44887
5.85057,36119
5.85990,30697
5.86923,27066
5.87858,27694
5.88792,27104
5.89725,26451
5.90660,32690
5.91593,49626
5.92527,78449
5.93462,92833
5.94395,90755
5.95328,79131
5.96263,58043
5.97197,43244
5.98130,35086
5.99065,29268
5.99998,25295
6.00932,21932
6.01867,20477
6.02800,20657
6.03735,19038
6.04668,19521
6.05602,19605
6.06537,20507
6.07470,20663
6.08403,19063
6.09338,17542
6.10272,15472
6.11205,17101
6.12140,18633
6.13073,22687
6.14007,24658
6.14942,23261
6.15875,18539
6.16808,17345
6.17743,17615
6.18677,19309
6.19610,18201
6.20545,16551
6.21478,17648
6.22413,19381
6.23347,21064
6.24280,20197
6.25215,20881
6.26148,21667
6.27082,22983
6.28017,19250
6.28950,15578
6.29883,12809
6.30818,12679
6.31752,12153
6.32685,11865
6.33620,12783
6.34553,12156
6.35487,12428
6.36422,12982
6.37355,17240
6.38288,25959
6.39223,61054
6.40157,206434
6.41092,502925
6.42025,656717
6.42958,458354
6.43893,191901
6.44827,64490
6.45760,28004
6.46695,21394
6.47628,19259
6.48562,15393
6.49497,15763
6.50430,15154
6.51363,15355
6.52298,15558
6.53232,16344
6.54165,14357
6.55100,13866
6.56033,11844
6.56968,12983
6.57902,14230
6.58835,16124
6.59770,16050
6.60703,16587
6.61637,16006
6.62572,17249
6.63505,19446
6.64438,21056
6.65373,23254
6.66307,24534
6.67240,24361
6.68175,23722
6.69108,25323
6.70042,25809
6.70977,21314
6.71910,19328
6.72843,16176
6.73778,13478
6.74712,12851
6.75647,13509
6.76580,14832
6.77513,15367
6.78448,18207
6.79382,22874
6.80315,28065
6.81250,25021
6.82183,19249
6.83117,17870
6.84052,20472
6.84985,19083
6.85918,15392
6.86853,13468
6.87787,16532
6.88720,18668
6.89655,23326
6.90588,25714
6.91522,28108
6.92457,23678
6.93390,18116
6.94325,17174
6.95258,16893
6.96192,17527
6.97127,18366
6.98060,16933
6.98993,17900
6.99928,21932
7.00862,27902
7.01795,27620
7.02730,20952
7.03663,13890
7.04597,12347
7.05532,11489
7.06465,11658
7.07398,13374
7.08333,13322
7.09267,15443
7.10200,19162
7.11135,20449
7.12068,20568
7.13003,18081
7.13937,15548
7.14870,14502
7.15805,14359
7.16738,13732
7.17672,13256
7.18607,14243
7.19540,13655
7.20473,14576
7.21408,15443
7.22342,21927
7.23275,45066
7.24210,68088
7.25143,69527
7.26077,47240
7.27012,26785
7.27945,23162
7.28880,21446
7.29813,20065
7.30747,17875
7.31682,14005
7.32615,12828
7.33548,13506
7.34483,13840
7.35417,13735
7.36350,13070
7.37285,13781
7.38218,18793
7.39152,42055
7.40087,96748
7.41020,149014
7.41953,148851
7.42888,99551
7.43822,55007
7.44755,34097
7.45690,24574
7.46623,20359
7.47558,16602
7.48492,17243
7.49425,15932
7.50360,13504
7.51293,12548
7.52227,12399
7.53162,12338
7.54095,14168
7.55028,17096
7.55963,22694
7.56897,39116
7.57830,55251
7.58765,52339
7.59698,38816
7.60632,27749
7.61567,24155
7.62500,22107
7.63433,21148
7.64368,19200
7.65302,16710
7.66237,16092
7.67170,15910
7.68103,17024
7.69038,17380
7.69972,16126
7.70905,15637
7.71840,15541
7.72773,17293
7.73707,18898
7.74642,20284
7.75575,19330
7.76508,19127
7.77443,18243
7.78377,17614
7.79310,18071
7.80245,17995
7.81178,16172
7.82112,15992
7.83047,19731
7.83980,30453
7.84915,109645
7.85848,379766
7.86782,791336
7.87717,893276
7.88650,555099
7.89583,215800
7.90518,84878
7.91452,76326
7.92385,89954
7.93320,83854
7.94253,66753
7.95187,46544
7.96122,33212
7.97055,26095
7.97988,26108
7.98923,22802
7.99857,19669
8.00790,20535
8.01725,22377
8.02658,24701
8.03593,30136
8.04527,38142
8.05460,38872
8.06395,28738
8.07328,25968
8.08262,32036
8.09197,45039
8.10130,43180
8.11063,30252
8.11998,20353
8.12932,17265
8.13865,16387
8.14800,15675
8.15733,15295
8.16667,15638
8.17602,18371
8.18535,18482
8.19468,19544
8.20403,20019
8.21337,19594
8.22272,18414
8.23205,16969
8.24138,16365
8.25073,17356
8.26007,16872
8.26940,16356
8.27875,15946
8.28808,16150
8.29742,16110
8.30677,15464
8.31610,16050
8.32543,16271
8.33478,15644
8.34412,16264
8.35345,19185
8.36280,22394
8.37213,21462
8.38148,21498
8.39082,21996
8.40015,21177
8.40950,20880
8.41883,19742
8.42817,20880
8.43752,21275
8.44685,19226
8.45618,19736
8.46553,19638
8.47487,20006
8.48420,19724
8.49355,25768
8.50288,29566
8.51222,26879
8.52157,24469
8.53090,21159
8.54023,20545
8.54958,20638
8.55892,20923
8.56827,20434
8.57760,19642
8.58693,18742
8.59628,19800
8.60562,19938
8.61495,19021
8.62430,18335
8.63363,17271
8.64297,18099
8.65232,22325
8.66165,29815
8.67098,26683
8.68033,21467
8.68967,19142
8.69900,18815
8.70835,18526
8.71768,17079
8.72702,16748
8.73637,18658
8.74570,25063
8.75505,29942
8.76438,32390
8.77372,26846
8.78307,24274
8.79240,31454
8.80173,53523
8.81108,82809
8.82042,80741
8.82975,53626
8.83910,31723
8.84843,21481
8.85777,19105
8.86712,20098
8.87645,23139
8.88578,23850
8.89513,23822
8.90447,24004
8.91380,22363
8.92315,21870
8.93248,23425
8.94183,23256
8.95117,23641
8.96050,24809
8.96985,24558
8.97918,22974
8.98852,22964
8.99787,25165
9.00720,24192
9.01653,23697
9.02588,20420
9.03522,21794
9.04455,21690
9.05390,23187
9.06323,23908
9.07257,26218
9.08192,30266
9.09125,32454
9.10060,31118
9.10993,26697
9.11927,24093
9.12862,29957
9.13795,36480
9.14728,34109
9.15663,26778
9.16597,21824
9.17530,18823
9.18465,18808
9.19398,19960
9.20332,23923
9.21267,31948
9.22200,46975
9.23133,64288
9.24068,64956
9.25002,48790
9.25935,32450
9.26870,24435
9.27803,21551
9.28738,20157
9.29672,18185
9.30605,18934
9.31540,22953
9.32473,34000
9.33407,48661
9.34342,53692
9.35275,86785
9.36208,187788
9.37143,270396
9.38077,239856
9.39010,143233
9.39945,71845
9.40878,44653
9.41812,38240
9.42747,35828
9.43680,32077
9.44613,26211
9.45548,21992
9.46482,21332
9.47417,21250
9.48350,20857
9.49283,24084
9.50218,24041
9.51152,22687
9.52085,21288
9.53020,23271
9.53953,25529
9.54887,30670
9.55822,38465
9.56755,49712
9.57688,47351
9.58623,36295
9.59557,35771
9.60490,40862
9.61425,37153
9.62358,28482
9.63292,23319
9.64227,22827
9.65160,23842
9.66095,24288
9.67028,23999
9.67962,23025
9.68897,21114
9.69830,18560
9.70763,19207
9.71698,43582
9.72632,199698
9.73565,632107
9.74500,1103597
9.75433,1055747
9.76367,610172
9.77302,259534
9.78235,128887
9.79168,84218
9.80103,66421
9.81037,62665
9.81970,77495
9.82905,92929
9.83838,95599
9.84773,82819
9.85707,62508
9.86640,53830
9.87575,67317
9.88508,88175
9.89442,96125
9.90377,93216
9.91310,92543
9.92243,84270
9.93178,60853
9.94112,41291
9.95045,33437
9.95980,28982
9.96913,33422
9.97847,56291
9.98782,100984
9.99715,124495
10.00650,99395
10.01583,61516
10.02517,37414
10.03452,27186
10.04385,27015
10.05318,27140
10.06253,35904
10.07187,42356
10.08120,46120
10.09055,39218
10.09988,32363
10.10922,49108
10.11857,128446
10.12790,260215
10.13723,310022
10.14658,381326
10.15592,964258
10.16525,1953926
10.17460,1996971
10.18393,972610
10.19328,250271
10.20262,60328
10.21195,35053
10.22130,36818
10.23063,49371
10.23997,64046
10.24932,62995
10.25865,44466
10.26798,32087
10.27733,26312
10.28667,26466
10.29600,25126
10.30535,25049
10.31468,23707
10.32402,23362
10.33337,21991
10.34270,20553
10.35203,21175
10.36138,21757
10.37072,20807
10.38007,20759
10.38940,18784
10.39873,18993
10.40808,19559
10.41742,20078
10.42675,21643
10.43610,23370
10.44543,24524
10.45477,27879
10.46412,29947
10.47345,27543
10.48278,23865
10.49213,20745
10.50147,18536
10.51080,19045
10.52015,20458
10.52948,19470
10.53882,22053
10.54817,21719
10.55750,22641
10.56685,23351
10.57618,22429
10.58552,22096
10.59487,20238
10.60420,20499
10.61353,19920
10.62288,22659
10.63222,24773
10.64155,24253
10.65090,21976
10.66023,21259
10.66957,21765
10.67892,24566
10.68825,28960
10.69758,33759
10.70693,56466
10.71627,90367
10.72562,98250
10.73495,68449
10.74428,47344
10.75363,54841
10.76297,57987
10.77230,59775
10.78165,163267
10.79098,657524
10.80032,1639962
10.80967,2138907
10.81900,1471569
10.82833,557094
10.83768,144470
10.84702,48393
10.85635,34263
10.86570,35750
10.87503,40302
10.88437,40874
10.89372,34847
10.90305,28892
10.91240,26911
10.92173,28290
10.93107,30251
10.94042,29052
10.94975,26653
10.95908,23380
10.96843,23552
10.97777,22985
10.98710,20967
10.99645,22074
11.00578,22809
11.01512,21249
11.02447,21282
11.03380,20157
11.04313,19825
11.05248,19939
11.06182,19627
11.07115,17245
11.08050,18629
11.08983,21446
11.09918,31563
11.10852,43642
11.11785,43261
11.12720,35182
11.13653,28823
11.14587,24039
11.15522,22296
11.16455,22612
11.17388,23447
11.18323,21156
11.19257,19711
11.20190,17563
11.21125,19287
11.22058,18305
11.22992,20698
11.23927,18862
11.24860,20257
11.25793,23169
11.26728,23877
11.27662,23637
11.28597,20421
11.29530,21573
11.30463,26481
11.31398,34268
11.32332,33907
11.33265,29767
11.34200,30866
11.35133,38039
11.36067,41315
11.37002,37470
11.37935,31543
11.38868,29911
11.39803,47319
11.40737,91548
11.41670,139497
11.42605,122214
11.43538,71925
11.44472,35837
11.45407,26779
11.46340,31726
11.47275,39486
11.48208,36704
11.49142,29565
11.50077,22080
11.51010,20918
11.51943,20995
11.52878,21330
11.53812,24375
11.54745,33656
11.55680,67219
11.56613,118308
11.57547,146680
11.58482,117467
11.59415,76005
11.60348,52125
11.61283,41690
11.62217,38075
11.63150,41635
11.64085,70331
11.65018,119515
11.65953,138572
11.66887,112908
11.67820,68938
11.68755,46001
11.69688,36500
11.70622,34691
11.71557,33619
11.72490,32001
11.73423,27816
11.74358,27591
11.75292,27591
11.76225,25829
11.77160,27031
11.78093,28538
11.79027,29885
11.79962,27706
11.80895,25096
11.81830,22078
11.82763,24940
11.83697,26130
11.84632,26759
11.85565,25752
11.86498,24367
11.87433,27222
11.88367,28343
11.89300,25915
11.90235,22382
11.91168,23603
11.92102,21274
11.93037,23379
11.93970,28360
11.94903,30744
11.95838,27570
11.96772,23959
11.97705,21458
11.98640,21385
11.99573,27317
12.00508,42555
12.01442,63835
12.02375,68009
12.03310,50979
12.04243,35173
12.05177,26562
12.06112,23795
12.07045,22109
12.07978,19503
12.08913,20803
12.09847,23008
12.10780,23209
12.11715,21431
12.12648,22135
12.13582,22108
12.14517,22176
12.15450,24784
12.16383,43353
12.17318,85829
12.18252,113461
12.19187,86831
12.20120,47424
12.21053,28894
12.21988,24729
12.22922,31049
12.23855,32099
12.24790,28915
12.25723,35530
12.26657,73289
12.27592,141948
12.28525,162390
12.29458,108955
12.30393,55297
12.31327,34486
12.32260,30489
12.33195,28375
12.34128,30402
12.35062,30509
12.35997,25935
12.36930,24164
12.37865,23223
12.38798,24544
12.39732,27674
12.40667,28410
12.41600,27983
12.42533,26688
12.43468,26494
12.44402,24913
12.45335,24924
12.46270,26897
12.47203,26887
12.48137,30305
12.49072,32150
12.50005,33776
12.50938,32258
12.51873,31967
12.52807,30182
12.53742,32522
12.54675,28631
12.55608,29494
12.56543,33057
12.57477,38674
12.58410,34970
12.59345,29068
12.60278,24877
12.61212,25222
12.62147,26441
12.63080,30764
12.64013,34417
12.64948,33545
12.65882,30664
12.66815,27196
12.67750,24842
12.68683,20884
12.69617,21313
12.70552,22283
12.71485,26079
12.72420,25459
12.73353,26624
12.74287,27635
12.75222,29011
12.76155,28242
12.77088,25038
12.78023,22879
12.78957,23148
12.79890,23826
12.80825,23904
12.81758,24239
12.82692,24013
12.83627,24952
12.84560,24711
12.85493,22390
12.86428,20567
12.87362,20496
12.88295,22416
12.89230,23518
12.90163,22933
12.91098,22479
12.92032,20971
12.92965,19170
12.93900,21266
12.94833,22428
12.95767,22757
12.96702,22687
12.97635,21791
12.98568,24582
12.99503,26524
13.00437,25782
13.01370,24520
13.02305,26368
13.03238,29970
13.04172,29829
13.05107,27797
13.06040,25539
13.06973,25476
13.07908,28802
13.08842,26539
13.09777,25150
13.10710,23661
13.11643,22443
13.12578,23340
13.13512,27736
13.14445,28237
13.15380,29720
13.16313,29692
13.17247,29804
13.18182,35058
13.19115,70688
13.20048,204765
13.20983,434281
13.21917,509837
13.22850,321914
13.23785,147330
13.24718,98786
13.25652,89905
13.26587,71233
13.27520,59463
13.28455,53074
13.29388,41876
13.30322,35747
13.31257,37117
13.32190,39634
13.33123,40264
13.34058,42707
13.34992,46076
13.35925,40650
13.36860,31584
13.37793,29693
13.38727,28309
13.39662,31866
13.40595,33666
13.41528,29503
13.42463,28488
13.43397,30831
13.44332,34697
13.45265,35577
13.46198,32349
13.47133,33489
13.48067,33440
13.49000,30557
13.49935,28138
13.50868,31572
13.51802,55129
13.52737,84956
13.53670,87826
13.54603,58389
13.55538,34818
13.56472,24734
13.57405,22548
13.58340,20985
13.59273,20368
13.60207,20544
13.61142,21256
13.62075,21165
13.63010,25087
13.63943,30179
13.64877,34476
13.65812,31735
13.66745,26868
13.67678,22223
13.68613,20519
13.69547,19172
13.70480,19372
13.71415,18779
13.72348,19614
13.73282,19122
13.74217,19603
13.75150,21153
13.76083,22610
13.77018,21974
13.77952,20927
13.78885,22368
13.79820,24366
13.80753,27834
13.81688,29283
13.82622,32240
13.83555,31658
13.84490,27247
13.85423,24229
13.86357,25047
13.87292,27321
13.88225,32237
13.89158,42598
13.90093,67794
13.91027,116888
13.91960,165883
13.92895,143954
13.93828,78412
13.94762,43871
13.95697,36463
13.96630,33482
13.97563,27307
13.98498,25926
13.99432,25737
14.00367,23657
14.01300,22823
14.02233,21158
14.03168,25838
14.04102,77126
14.05035,467904
14.05970,1949361
14.06903,4449885
14.07837,5156045
14.08772,2840679
14.09705,733730
14.10638,118312
14.11573,40100
14.12507,32442
14.13440,27990
14.14375,28802
14.15308,31067
14.16243,30184
14.17177,33559
14.18110,44772
14.19045,68226
14.19978,81019
14.20912,62860
14.21847,35189
14.22780,25756
14.23713,20951
14.24648,19035
14.25582,21901
14.26515,22578
14.27450,22840
14.28383,20329
14.29317,20678
14.30252,20490
14.31185,23175
14.32118,28166
14.33053,32549
14.33987,32819
14.34922,28398
14.35855,24314
14.36788,20659
14.37723,19629
14.38657,20392
14.39590,20742
14.40525,20614
14.41458,20153
14.42392,19745
14.43327,20710
14.44260,22489
14.45193,27721
14.46128,31225
14.47062,31186
14.47995,28898
14.48930,24163
14.49863,22522
14.50797,19551
14.51732,19260
14.52665,19601
14.53600,20201
14.54533,23199
14.55467,25300
14.56402,24628
14.57335,24144
14.58268,20587
14.59203,19140
14.60137,20148
14.61070,18475
14.62005,20385
14.62938,26309
14.63872,33906
14.64807,43739
14.65740,45587
14.66673,37131
14.67608,28983
14.68542,23498
14.69475,21541
14.70410,20403
14.71343,21071
14.72278,22196
14.73212,21994
14.74145,21822
14.75080,22811
14.76013,24083
14.76947,26377
14.77882,26715
14.78815,26347
14.79748,23228
14.80683,21573
14.81617,21212
14.82550,21956
14.83485,20471
14.84418,20048
14.85352,21876
14.86287,26783
14.87220,36275
14.88153,37183
14.89088,32896
14.90022,26964
14.90957,24428
14.91890,23114
14.92823,22104
14.93758,23038
14.94692,22030
14.95625,21974
14.96560,22036
14.97493,23957
14.98427,22458
14.99362,21643
15.00295,25620
15.01228,27314
15.02163,27481
15.03097,24195
15.04030,22235
15.04965,25291
15.05898,25812
15.06833,23094
15.07767,23715
15.08700,22035
15.09635,20573
15.10568,20970
15.11502,22523
15.12437,25827
15.13370,27816
15.14303,26796
15.15238,23011
15.16172,20935
15.17105,22725
15.18040,25705
15.18973,26372
15.19907,35307
15.20842,49144
15.21775,55537
15.22708,49512
15.23643,39317
15.24577,30647
15.25512,27337
15.26445,22871
15.27378,22712
15.28313,23105
15.29247,23275
15.30180,22632
15.31115,21061
15.32048,23713
15.32982,25179
15.33917,28664
15.34850,26045
15.35783,24850
15.36718,28243
15.37652,30052
15.38585,26895
15.39520,23154
15.40453,23167
15.41387,23686
15.42322,27416
15.43255,28983
15.44190,28838
15.45123,24397
15.46057,21917
15.46992,21803
15.47925,21342
15.48858,22808
15.49793,24831
15.50727,34068
15.51660,43943
15.52595,47024
15.53528,39826
15.54462,30656
15.55397,23491
15.56330,21173
15.57263,20895
15.58198,20672
15.59132,19653
15.60065,19983
15.61000,20795
15.61933,23036
15.62868,25883
15.63802,27343
15.64735,28155
15.65670,28511
15.66603,29907
15.67537,27844
15.68472,26817
15.69405,32733
15.70338,45300
15.71273,47339
15.72207,37445
15.73140,28002
15.74075,27041
15.75008,30901
15.75942,33780
15.76877,34280
15.77810,31050
15.78745,27780
15.79678,33328
15.80612,74774
15.81547,185699
15.82480,350518
15.83413,450876
15.84348,394129
15.85282,251302
15.86215,123404
15.87150,65741
15.88083,50458
15.89017,53014
15.89952,53056
15.90885,48325
15.91818,41170
15.92753,34979
15.93687,30884
15.94620,29016
15.95555,28094
15.96488,29893
15.97423,38442
15.98357,49697
15.99290,58885
16.00225,52726
16.01158,40770
16.02092,28366
16.03027,26199
16.03960,25654
16.04893,25993
16.05828,26869
16.06762,27386
16.07695,26768
16.08630,26129
16.09563,26295
16.10497,28761
16.11432,31306
16.12365,32971
16.13298,30983
16.14233,28780
16.15167,27236
16.16102,27971
16.17035,27696
16.17968,26683
16.18903,27101
16.19837,29747
16.20770,35195
16.21705,44145
16.22638,46677
16.23572,44147
16.24507,37578
16.25440,32917
16.26373,32203
16.27308,45089
16.28242,94912
16.29175,197174
16.30110,261315
16.31043,202420
16.31977,103689
16.32912,45710
16.33845,30535
16.34780,24177
16.35713,23144
16.36647,21330
16.37582,20703
16.38515,21552
16.39448,22986
16.40383,22385
16.41317,23865
16.42250,24240
16.43185,22418
16.44118,23966
16.45052,29327
16.45987,31268
16.46920,30534
16.47853,29242
16.48788,31309
16.49722,29780
16.50655,30276
16.51590,33130
16.52523,44853
16.53458,68749
16.54392,92402
16.55325,92161
16.56260,85431
16.57193,92519
16.58127,87963
16.59062,62157
16.59995,39248
16.60928,29165
16.61863,29082
16.62797,32365
16.63730,34988
16.64665,32743
16.65598,31444
16.66532,26313
16.67467,26134
16.68400,29124
16.69333,36044
16.70268,36432
16.71202,33667
16.72137,27878
16.73070,29131
16.74003,47347
16.74938,79833
16.75872,86614
16.76805,60109
16.77740,35532
16.78673,25409
16.79607,26347
16.80542,28960
16.81475,30706
16.82408,33875
16.83343,33149
16.84277,34931
16.85210,28570
16.86145,26092
16.87078,24779
16.88013,24408
16.88947,25080
16.89880,27013
16.90815,32436
16.91748,38383
16.92682,37508
16.93617,32862
16.94550,34644
16.95483,40282
16.96418,40258
16.97352,37950
16.98285,30976
16.99220,28115
17.00153,24938
17.01087,25880
17.02022,33271
17.02955,53930
17.03888,67030
17.04823,52925
17.05757,37488
17.06692,31906
17.07625,28420
17.08558,26075
17.09493,26635
17.10427,25541
17.11360,26775
17.12295,25876
17.13228,30229
17.14162,32641
17.15097,30274
17.16030,25239
17.16963,22599
17.17898,24278
17.18832,23524
17.19765,21899
17.20700,22149
17.21633,21807
17.22567,24788
17.23502,24248
17.24435,23630
17.25370,25178
17.26303,26083
17.27237,26821
17.28172,30001
17.29105,29997
17.30038,28412
17.30973,27109
17.31907,30166
17.32840,31431
17.33775,27671
17.34708,24879
17.35642,23700
17.36577,28009
17.37510,48153
17.38443,82823
17.39378,98254
17.40312,67067
17.41245,40341
17.42180,32066
17.43113,28526
17.44048,25367
17.44982,27952
17.45915,27738
17.46850,27728
17.47783,29073
17.48717,66959
17.49652,317080
17.50585,1073147
17.51518,1699638
17.52453,1411002
17.53387,600147
17.54320,148818
17.55255,42864
17.56188,31517
17.57122,32486
17.58057,33124
17.58990,33799
17.59925,30402
17.60858,28064
17.61792,26136
17.62727,25855
17.63660,28164
17.64593,29873
17.65528,32336
17.66462,35754
17.67395,42351
17.68330,44983
17.69263,49912
17.70197,42884
17.71132,36742
17.72065,32437
17.72998,27885
17.73933,27581
17.74867,30715
17.75800,32603
17.76735,34210
17.77668,33705
17.78603,30014
17.79537,27959
17.80470,26296
17.81405,25391
17.82338,23688
17.83272,23710
17.84207,25500
17.85140,30360
17.86073,35955
17.87008,38690
17.87942,35666
17.88875,32708
17.89810,26794
17.90743,27177
17.91677,33388
17.92612,47390
17.93545,57773
17.94478,60870
17.95413,47836
17.96347,35947
17.97282,29604
17.98215,27222
17.99148,26565
18.00083,24620
18.01017,24224
18.01950,23232
18.02885,24416
18.03818,24081
18.04752,31147
18.05687,34428
18.06620,33603
18.07553,26913
18.08488,22497
18.09422,23251
18.10355,28281
18.11290,37575
18.12223,44332
18.13157,41432
18.14092,35598
18.15025,30378
18.15960,27808
18.16893,27431
18.17827,27449
18.18762,27470
18.19695,26155
18.20628,23224
18.21563,23887
18.22497,25405
18.23430,23964
18.24365,23363
18.25298,23026
18.26232,24307
18.27167,28704
18.28100,33032
18.29033,36212
18.29968,37580
18.30902,40706
18.31835,36872
18.32770,34214
18.33703,35229
18.34638,38049
18.35572,37801
18.36505,37312
18.37440,34774
18.38373,34953
18.39307,42044
18.40242,50774
18.41175,49832
18.42108,42589
18.43043,36088
18.43977,35375
18.44910,35537
18.45845,32849
18.46778,27390
18.47712,26835
18.48647,28913
18.49580,35936
18.50515,46662
18.51448,52216
18.52382,46258
18.53317,37457
18.54250,33156
18.55183,33294
18.56118,34367
18.57052,31034
18.57985,30203
18.58920,29672
18.59853,28831
18.60787,33538
18.61722,33192
18.62655,33903
18.63588,33772
18.64523,32326
18.65457,31358
18.66390,31725
18.67325,32237
18.68258,31183
18.69193,29536
18.70127,29922
18.71060,32977
18.71995,33463
18.72928,32063
18.73862,31689
18.74797,28978
18.75730,26383
18.76663,25486
18.77598,22850
18.78532,22380
18.79465,22735
18.80400,23897
18.81333,24191
18.82267,25743
18.83202,24046
18.84135,25457
18.85068,23836
18.86003,23937
18.86937,24174
18.87872,24842
18.88805,24155
18.89738,24851
18.90673,28328
18.91607,31203
18.92540,32355
18.93475,31194
18.94408,33294
18.95342,38416
18.96277,40017
18.97210,44596
18.98143,38821
18.99078,33550
19.00012,28897
19.00945,25793
19.01880,24999
19.02813,26860
19.03747,30744
19.04682,46393
19.05615,61303
19.06550,71977
19.07483,90722
19.08417,114165
19.09352,104509
19.10285,66735
19.11218,41645
19.12153,27844
19.13087,25705
19.14020,23666
19.14955,22384
19.15888,22597
19.16822,21344
19.17757,22069
19.18690,23289
19.19623,28497
19.20558,30627
19.21492,28558
19.22427,29253
19.23360,26767
19.24293,24961
19.25228,22845
19.26162,24368
19.27095,27647
19.28030,30902
19.28963,32842
19.29897,35840
19.30832,43148
19.31765,52416
19.32698,50008
19.33633,38775
19.34567,31453
19.35500,27640
19.36435,26077
19.37368,27558
19.38302,26310
19.39237,29060
19.40170,29103
19.41105,27647
19.42038,24735
19.42972,23485
19.43907,22087
19.44840,22981
19.45773,24242
19.46708,26318
19.47642,29498
19.48575,33900
19.49510,34662
19.50443,31472
19.51377,25375
19.52312,25069
19.53245,25727
19.54178,25180
19.55113,23037
19.56047,24122
19.56980,25805
19.57915,29053
19.58848,29321
19.59783,29812
19.60717,27632
19.61650,25802
19.62585,27657
19.63518,30052
19.64452,29370
19.65387,27257
19.66320,26769
19.67253,25138
19.68188,27675
19.69122,31511
19.70055,33497
19.70990,36390
19.71923,38354
19.72857,47363
19.73792,47843
19.74725,39750
19.75658,32787
19.76593,28658
19.77527,29781
19.78462,28035
19.79395,29656
19.80328,25874
19.81263,24985
19.82197,25527
19.83130,25076
19.84065,23367
19.84998,23939
19.85932,27485
19.86867,38366
19.87800,49245
19.88733,47763
19.89668,35900
19.90602,28200
19.91535,26624
19.92470,26447
19.93403,27512
19.94337,36490
19.95272,55888
19.96205,87063
19.97140,106992
19.98073,90444
19.99007,59622
19.99942,42865
20.00875,38101
20.01808,35583
20.02743,37266
20.03677,36355
20.04610,37486
20.05545,34963
20.06478,34339
20.07412,32807
20.08347,32535
20.09280,31592
20.10213,28703
20.11148,27233
20.12082,25354
20.13015,26508
20.13950,27102
20.14883,33989
20.15818,38276
20.16752,36076
20.17685,31708
20.18620,28093
20.19553,27291
20.20487,27733
20.21422,29338
20.22355,29181
20.23288,27185
20.24223,26423
20.25157,26466
20.26090,24982
20.27025,23718
20.27958,26587
20.28892,27240
20.29827,25200
20.30760,24761
20.31695,22964
20.32628,22046
20.33562,21801
20.34497,22630
20.35430,24695
20.36363,24175
20.37298,25769
20.38232,24662
20.39165,24208
20.40100,24499
20.41033,22854
20.41967,21936
20.42902,25530
20.43835,24030
20.44768,23794
20.45703,25234
20.46637,28880
20.47570,32599
20.48505,31220
20.49438,25539
20.50373,25174
20.51307,23698
20.52240,25236
20.53175,25267
20.54108,27573
20.55042,31218
20.55977,46946
20.56910,99870
20.57843,162620
20.58778,158145
20.59712,93141
20.60645,46861
20.61580,33256
20.62513,29093
20.63447,31282
20.64382,33566
20.65315,33968
20.66248,31663
20.67183,27494
20.68117,28535
20.69052,28272
20.69985,26406
20.70918,27344
20.71853,27309
20.72787,27075
20.73720,26911
20.74655,26320
20.75588,26875
20.76522,24224
20.77457,25399
20.78390,29466
20.79323,31013
20.80258,33156
20.81192,28844
20.82125,26883
20.83060,23972
20.83993,24090
20.84927,22849
20.85862,23328
20.86795,22637
20.87730,22710
20.88663,23396
20.89597,25488
20.90532,24425
20.91465,24289
20.92398,24884
20.93333,24928
20.94267,23746
20.95200,22841
20.96135,22955
20.97068,22382
20.98002,22047
20.98937,23579
20.99870,22242
21.00803,21968
21.01738,22106
21.02672,21066
21.03607,21771
21.04540,21688
21.05473,23418
21.06408,22001
21.07342,22100
21.08275,21933
21.09210,24783
21.10143,23523
21.11077,24869
21.12012,24982
21.12945,23381
21.13878,23253
21.14813,23450
21.15747,25326
21.16680,30235
21.17615,36030
21.18548,42999
21.19482,41155
21.20417,32775
21.21350,27516
21.22285,25566
21.23218,26688
21.24152,24346
21.25087,23978
21.26020,24330
21.26953,26648
21.27888,29535
21.28822,31960
21.29755,30427
21.30690,27556
21.31623,24849
21.32557,23003
21.33492,23501
21.34425,24057
21.35358,23671
21.36293,25547
21.37227,24255
21.38160,23380
21.39095,25457
21.40028,25964
21.40963,27391
21.41897,25711
21.42830,26773
21.43765,25753
21.44698,24373
21.45632,23633
21.46567,26943
21.47500,37950
21.48433,62436
21.49368,85795
21.50302,82757
21.51235,58176
21.52170,38049
21.53103,28327
21.54037,26876
21.54972,28193
21.55905,33566
21.56838,44177
21.57773,48028
21.58707,40753
21.59642,32917
21.60575,28074
21.61508,26952
21.62443,25166
21.63377,27953
21.64310,26331
21.65245,25926
21.66178,27328
21.67112,31050
21.68047,33361
21.68980,32448
21.69913,31084
21.70848,29575
21.71782,33302
21.72715,31488
21.73650,30900
21.74583,29100
21.75517,25845
21.76452,23797
21.77385,22769
21.78320,24056
21.79253,25998
21.80187,29283
21.81122,31300
21.82055,33049
21.82988,31086
21.83923,28721
21.84857,25681
21.85790,25007
21.86725,25603
21.87658,27623
21.88592,31084
21.89527,34051
21.90460,32723
21.91393,28850
21.92328,26419
21.93262,26215
21.94197,26034
21.95130,27299
21.96063,30495
21.96998,31192
21.97932,36689
21.98865,39515
21.99800,40705
22.00733,38296
22.01667,32918
22.02602,30298
22.03535,31627
22.04468,35914
22.05403,35645
22.06337,33828
22.07270,32270
22.08205,32624
22.09138,30962
22.10072,28379
22.11007,26699
22.11940,26777
22.12875,25883
22.13808,26102
22.14742,27965
22.15677,34470
22.16610,41257
22.17543,41700
22.18478,35945
22.19412,31195
22.20345,28378
22.21280,29450
22.22213,31778
22.23147,34764
22.24082,34053
22.25015,32718
22.25948,32692
22.26883,36880
22.27817,43279
22.28750,47522
22.29685,49791
22.30618,42807
22.31553,35511
22.32487,29312
22.33420,29843
22.34355,33069
22.35288,36158
22.36222,40266
22.37157,39845
22.38090,39766
22.39023,36703
22.39958,33227
22.40892,32695
22.41825,36086
22.42760,57772
22.43693,94661
22.44627,110807
22.45562,91880
22.46495,56938
22.47428,36925
22.48363,30884
22.49297,26544
22.50232,26807
22.51165,27843
22.52098,27310
22.53033,26818
22.53967,25618
22.54900,26727
22.55835,28844
22.56768,32439
22.57702,35338
22.58637,39294
22.59570,47464
22.60503,63510
22.61438,73585
22.62372,63994
22.63305,48686
22.64240,36563
22.65173,31274
22.66108,27854
22.67042,29939
22.67975,33209
22.68910,37270
22.69843,37469
22.70777,33298
22.71712,33976
22.72645,36044
22.73578,39780
22.74513,40912
22.75447,41821
22.76380,41061
22.77315,36981
22.78248,33365
22.79182,36487
22.80117,40346
22.81050,39993
22.81983,37255
22.82918,35811
22.83852,34962
22.84787,31522
22.85720,29103
22.86653,30378
22.87588,29913
22.88522,31422
22.89455,29646
22.90390,30527
22.91323,33778
22.92257,35592
22.93192,34705
22.94125,32383
22.95058,31219
22.95993,29062
22.96927,26910
22.97860,27311
22.98795,25555
22.99728,25133
23.00662,24762
23.01597,25299
23.02530,25775
23.03465,26150
23.04398,26773
23.05332,28082
23.06267,27074
23.07200,24754
23.08133,26077
23.09068,25756
23.10002,25588
23.10935,24458
23.11870,24812
23.12803,27113
23.13737,25672
23.14672,27438
23.15605,25855
23.16538,25955
23.17473,26988
23.18407,25653
23.19340,25955
23.20275,25004
23.21208,25677
23.22143,23802
23.23077,26458
23.24010,26644
23.24945,31200
23.25878,35595
23.26812,35291
23.27747,31035
23.28680,28079
23.29613,27669
23.30548,25002
23.31482,26410
23.32415,30113
23.33350,36442
23.34283,37235
23.35217,34611
23.36152,32246
23.37085,28108
23.38018,26175
23.38953,26579
23.39887,25624
23.40822,24751
23.41755,26139
23.42688,24980
23.43623,26340
23.44557,25618
23.45490,27360
23.46425,24312
23.47358,24717
23.48292,24577
23.49227,23792
23.50160,23902
23.51093,25057
23.52028,26017
23.52962,27327
23.53895,30349
23.54830,30163
23.55763,28263
23.56697,25303
23.57632,27654
23.58565,27200
23.59500,27643
23.60433,25979
23.61367,23823
23.62302,25239
23.63235,24177
23.64168,23627
23.65103,23570
23.66037,22140
23.66970,22183
23.67905,24863
23.68838,27277
23.69772,32862
23.70707,31584
23.71640,33419
23.72573,39430
23.73508,41784
23.74442,35662
23.75377,31121
23.76310,26409
23.77243,25670
23.78178,25564
23.79112,26449
23.80045,25624
23.80980,24309
23.81913,23468
23.82847,23096
23.83782,23205
23.84715,24174
23.85648,25690
23.86583,24292
23.87517,25059
23.88450,23345
23.89385,24536
23.90318,25134
23.91252,25486
23.92187,24455
23.93120,31574
23.94055,44261
23.94988,55890
23.95922,57708
23.96857,50137
23.97790,41897
23.98723,36307
23.99658,34465
24.00592,32612
24.01525,33766
24.02460,31013
24.03393,30199
24.04327,28690
24.05262,26923
24.06195,27923
24.07128,28036
24.08063,27286
24.08997,28142
24.09930,26435
24.10865,25764
24.11798,25222
24.12733,25095
24.13667,25374
24.14600,25947
24.15535,26021
24.16468,25226
24.17402,26023
24.18337,23364
24.19270,25016
24.20203,25781
24.21138,28383
24.22072,27495
24.23005,26529
24.23940,26725
24.24873,27706
24.25807,27085
24.26742,27305
24.27675,24840
24.28608,26200
24.29543,24619
24.30477,24579
24.31412,27865
24.32345,29005
24.33278,29067
24.34213,27140
24.35147,25477
24.36080,23823
24.37015,24544
24.37948,26207
24.38882,25570
24.39817,25860
24.40750,26508
24.41683,24535
24.42618,25271
24.43552,26554
24.44485,25562
24.45420,24627
24.46353,24271
24.47288,24841
24.48222,22796
24.49155,24155
24.50090,24557
24.51023,24131
24.51957,24700
24.52892,25518
24.53825,24870
24.54758,25184
24.55693,25838
24.56627,25991
24.57560,26124
24.58495,24994
24.59428,24453
24.60362,27488
24.61297,26220
24.62230,25376
24.63163,27067
24.64098,25181
24.65032,24640
24.65967,28235
24.66900,29601
24.67833,28939
24.68768,26707
24.69702,25503
24.70635,24855
24.71570,25181
24.72503,25028
24.73437,23372
24.74372,23934
24.75305,24325
24.76238,24500
24.77173,25696
24.78107,23360
24.79040,24173
24.79975,24243
24.80908,23847
24.81842,23683
24.82777,24786
24.83710,22953
24.84645,24300
24.85578,23561
24.86512,24372
24.87447,26195
24.88380,27460
24.89313,26607
24.90248,25700
24.91182,24928
24.92115,25803
24.93050,25178
24.93983,23847
24.94917,24073
24.95852,25339
24.96785,25361
24.97718,24041
24.98653,23079
24.99587,24929
25.00520,25095
25.01455,23921
25.02388,24164
25.03323,23697
25.04257,24367
25.05190,23646
25.06125,24004
25.07058,25300
25.07992,25044
25.08927,23471
25.09860,25253
25.10793,24859
25.11728,24057
25.12662,25590
25.13595,25463
25.14530,25621
25.15463,24625
25.16397,25633
25.17332,25579
25.18265,25844
25.19198,29722
25.20133,32685
25.21067,33483
25.22002,30712
25.22935,28964
25.23868,26604
25.24803,25768
25.25737,25763
25.26670,26690
25.27605,25800
25.28538,26423
25.29472,25165
25.30407,30283
25.31340,48120
25.32273,79767
25.33208,105396
25.34142,95681
25.35075,65688
25.36010,48680
25.36943,41374
25.37878,37855
25.38812,37187
25.39745,34985
25.40680,31883
25.41613,33578
25.42547,33397
25.43482,33585
25.44415,32208
25.45348,32922
25.46283,34262
25.47217,35393
25.48150,36278
25.49085,38373
25.50018,36670
25.50952,37257
25.51887,36359
25.52820,34793
25.53753,35930
25.54688,36902
25.55622,35092
25.56557,35926
25.57490,33665
25.58423,31915
25.59358,32942
25.60292,32663
25.61225,33680
25.62160,33866
25.63093,34263
25.64027,35270
25.64962,35661
25.65895,33630
25.66828,32872
25.67763,31582
25.68697,32023
25.69630,30118
25.70565,32164
25.71498,32226
25.72432,32522
25.73367,31801
25.74300,36125
25.75235,33856
25.76168,33668
25.77102,33598
25.78037,33313
25.78970,33654
25.79903,32381
25.80838,34664
25.81772,33798
25.82705,33750
25.83640,33360
25.84573,32266
25.85507,32145
25.86442,30818
25.87375,31064
25.88308,31548
25.89243,29940
25.90177,30972
25.91110,30467
25.92045,31160
25.92978,29716
25.93913,31486
25.94847,34341
25.95780,34196
25.96715,32590
25.97648,32007
25.98582,31769
25.99517,32623
26.00450,28641
26.01383,30836
26.02318,30332
26.03252,31918
26.04185,30848
26.05120,31426
26.06053,29580
26.06987,31646
26.07922,30641
26.08855,31429
26.09790,31611
26.10723,30445
26.11657,30116
26.12592,30728
26.13525,33824
26.14458,35729
26.15393,36242
26.16327,33371
26.17260,32369
26.18195,31320
26.19128,29490
26.20062,30847
26.20997,30395
26.21930,29522
26.22863,28104
26.23798,28590
26.24732,27944
26.25665,29773
26.26600,28871
26.27533,27507
26.28468,28773
26.29402,28086
26.30335,30378
26.31270,30670
26.32203,31457
26.33137,31355
26.34072,31174
26.35005,30291
26.35938,30455
26.36873,30484
26.37807,28654
26.38740,27150
26.39675,30253
26.40608,29859
26.41542,29521
26.42477,30522
26.43410,29912
26.44343,32468
26.45278,33848
26.46212,32480
26.47147,31583
26.48080,30944
26.49013,33028
26.49948,31494
26.50882,32775
26.51815,32131
26.52750,37682
26.53683,37765
26.54617,37376
26.55552,35926
26.56485,34453
26.57418,31789
26.58353,30490
26.59287,32758
26.60220,32270
26.61155,30359
26.62088,30898
26.63022,29049
26.63957,29957
26.64890,30256
26.65825,30564
26.66758,31566
26.67692,30668
26.68627,28974
26.69560,29562
26.70493,29384
26.71428,29384
26.72362,28437
26.73295,28678
26.74230,29001
26.75163,29984
26.76097,30091
26.77032,32049
26.77965,30571
26.78898,30333
26.79833,31994
26.80767,30662
26.81700,31629
26.82635,31087
26.83568,33743
26.84503,34831
26.85437,34850
26.86370,33753
26.87305,32082
26.88238,32430
26.89172,31351
26.90107,28959
26.91040,30739
26.91973,29995
26.92908,31216
26.93842,30958
26.94775,30800
26.95710,31756
26.96643,31368
26.97577,30280
26.98512,30925
26.99445,31440
27.00378,31429
27.01313,31272
27.02247,31541
27.03182,31313
27.04115,29778
27.05048,31389
27.05983,32168
27.06917,31462
27.07850,31518
27.08785,31474
27.09718,30864
27.10652,30587
27.11587,31059
27.12520,32971
27.13453,35376
27.14388,35528
27.15322,36244
27.16255,33661
27.17190,32865
27.18123,33480
27.19058,33851
27.19992,31259
27.20925,31996
27.21860,32437
27.22793,33959
27.23727,35259
27.24662,39057
27.25595,43054
27.26528,42652
27.27463,46762
27.28397,63012
27.29330,114533
27.30265,187769
27.31198,215339
27.32132,173941
27.33067,120639
27.34000,85023
27.34933,66246
27.35868,58954
27.36802,56981
27.37737,56543
27.38670,51644
27.39603,45654
27.40538,45300
27.41472,43971
27.42405,43964
27.43340,45465
27.44273,43427
27.45207,40972
27.46142,38486
27.47075,38292
27.48008,37101
27.48943,37363
27.49877,37987
27.50810,36681
27.51745,35499
27.52678,36685
27.53612,37578
27.54547,39047
27.55480,37127
27.56415,37748
27.57348,36194
27.58282,36063
27.59217,36171
27.60150,35862
27.61083,35851
27.62018,34028
27.62952,34448
27.63885,34758
27.64820,36312
27.65753,45117
27.66687,69191
27.67622,94312
27.68555,95883
27.69488,73429
27.70423,55118
27.71357,46459
27.72290,43795
27.73225,41227
27.74158,37644
27.75093,39838
27.76027,39246
27.76960,41767
27.77895,47793
27.78828,69473
27.79762,103391
27.80697,127446
27.81630,121922
27.82563,98597
27.83498,80672
27.84432,68643
27.85365,56841
27.86300,52556
27.87233,50323
27.88167,47298
27.89102,47148
27.90035,45062
27.90970,45252
27.91903,44977
27.92837,45965
27.93772,45648
27.94705,43123
27.95638,43413
27.96573,40464
27.97507,41075
27.98440,40527
27.99375,40655
28.00308,39142
28.01242,39003
28.02177,40964
28.03110,57086
28.04043,96977
28.04978,180506
28.05912,255118
28.06845,250580
28.07780,193466
28.08713,141309
28.09648,108343
28.10582,90541
28.11515,77922
28.12450,70902
28.13383,63986
28.14317,59988
28.15252,56882
28.16185,54423
28.17118,51437
28.18053,51269
28.18987,48437
28.19920,46263
28.20855,45751
28.21788,44051
28.22722,43215
28.23657,41085
28.24590,41532
28.25523,41217
28.26458,39771
28.27392,40015
28.28327,40155
28.29260,38309
28.30193,37447
28.31128,39158
28.32062,38447
28.32995,39086
28.33930,38580
28.34863,38160
28.35797,39001
28.36732,40286
28.37665,40331
28.38598,40247
28.39533,41391
28.40467,40774
28.41400,41651
28.42335,40569
28.43268,41021
28.44202,41036
28.45137,40750
28.46070,39876
28.47005,41295
28.47938,40515
28.48872,41590
28.49807,39439
28.50740,38715
28.51673,40639
28.52608,38546
28.53542,41157
28.54475,40420
28.55410,40504
28.56343,39045
28.57277,39921
28.58212,40553
28.59145,43153
28.60078,40704
28.61013,42054
28.61947,43147
28.62880,39695
28.63815,42299
28.64748,42891
28.65683,52851
28.66617,78484
28.67550,113144
28.68485,124755
28.69418,102724
28.70352,76460
28.71287,58415
28.72220,50104
28.73153,46874
28.74088,46737
28.75022,44723
28.75955,44642
28.76890,42798
28.77823,41676
28.78757,42913
28.79692,42889
28.80625,43175
28.81560,41030
28.82493,42786
28.83427,42295
28.84362,43185
28.85295,43703
28.86228,42185
28.87163,41940
28.88097,42119
28.89030,44501
28.89965,45111
28.90898,47441
28.91832,49505
28.92767,48858
28.93700,49552
28.94633,50034
28.95568,50497
28.96502,52026
28.97435,54000
28.98370,53337
28.99303,52977
29.00238,50155
29.01172,49982
29.02105,50823
29.03040,48405
29.03973,47693
29.04907,47571
29.05842,46341
29.06775,47974
29.07708,47911
29.08643,47758
29.09577,46679
29.10510,46762
29.11445,46030
29.12378,44988
29.13312,45666
29.14247,47331
29.15180,44157
29.16113,44562
29.17048,43619
29.17982,43973
29.18917,46561
29.19850,48566
29.20783,46328
29.21718,46296
29.22652,45209
29.23585,44689
29.24520,46830
29.25453,45029
29.26387,44098
29.27322,45737
29.28255,45465
29.29188,45274
29.30123,43710
29.31057,45043
29.31990,46496
29.32925,46347
29.33858,45966
29.34792,45918
29.35727,47261
29.36660,46794
29.37595,45520
29.38528,44852
29.39462,46717
29.40397,47691
29.41330,46784
29.42263,46722
29.43198,47088
29.44132,48359
29.45065,48274
29.46000,52851
29.46933,53510
29.47867,54215
29.48802,52857
29.49735,50962
29.50668,48736
29.51603,47737
29.52537,48304
29.53472,46690
29.54405,44685
29.55338,47156
29.56273,45037
29.57207,45697
29.58140,47254
29.59075,45549
29.60008,45653
29.60942,47073
29.61877,44014
29.62810,45058
29.63743,45995
29.64678,46243
29.65612,46345
29.66545,46360
29.67480,45147
29.68413,46251
29.69347,45155
29.70282,44980
29.71215,48049
29.72150,47308
29.73083,47663
29.74017,48370
29.74952,47696
29.75885,47683
29.76818,46374
29.77753,44185
29.78687,45178
29.79620,44456
29.80555,45588
29.81488,44337
29.82422,46132
29.83357,42987
29.84290,43882
29.85223,46441
29.86158,45300
29.87092,45603
29.88025,44897
29.88960,44574
29.89893,46456
29.90828,45924
29.91762,46842
29.92695,47387
29.93630,48975
29.94563,49865
29.95497,48176
29.96432,51249
29.97365,53881
29.98298,56015
29.99233,58692
30.00167,55347
30.01100,53337
30.02035,49967
30.02968,49496
30.03902,50155
30.04837,48774
30.05770,49122
30.06703,48925
30.07638,47918
30.08572,45011
30.09507,48979
30.10440,48186
30.11373,47438
30.12308,49482
30.13242,47634
30.14175,47685
30.15110,48526
30.16043,45746
30.16977,47761
30.17912,45098
30.18845,47083
30.19778,47152
30.20713,45529
30.21647,46793
30.22580,45797
30.23515,45475
30.24448,46968
30.25382,45727
30.26317,48555
30.27250,48388
30.28185,50638
30.29118,51299
30.30052,49150
30.30987,50889
30.31920,47781
30.32853,48158
30.33788,48177
30.34722,49781
30.35655,46703
30.36590,50168
30.37523,47383
30.38457,50231
30.39392,50870
30.40325,49196
30.41258,49630
30.42193,48165
30.43127,49062
30.44060,47831
30.44995,47820
30.45928,48165
30.46863,47947
30.47797,45915
30.48730,46146
30.49665,46083
30.50598,47935
30.51532,47102
30.52467,46051
30.53400,44812
30.54333,47238
30.55268,46763
30.56202,44508
30.57135,47616
30.58070,49709
30.59003,50333
30.59937,52597
30.60872,53411
30.61805,54777
30.62740,57183
30.63673,59627
30.64607,61035
30.65542,61701
30.66475,61215
30.67408,62806
30.68343,60175
30.69277,58987
30.70210,56452
30.71145,55768
30.72078,54501
30.73012,55277
30.73947,54678
30.74880,52377
30.75813,54858
30.76748,55080
30.77682,55469
30.78615,53822
30.79550,54461
30.80483,54595
30.81418,54970
30.82352,55138
30.83285,56463
30.84220,57595
30.85153,56330
30.86087,60842
30.87022,61223
30.87955,61114
30.88888,62182
30.89823,62885
30.90757,63720
30.91690,61285
30.92625,63332
30.93558,62844
30.94492,66114
30.95427,62666
30.96360,62339
30.97293,60901
30.98228,62197
30.99162,58026
31.00097,60680
31.01030,58596
31.01963,57981
31.02898,56432
31.03832,56901
31.04765,56227
31.05700,55299
31.06633,54995
31.07567,56584
31.08502,55173
31.09435,55352
31.10368,55440
31.11303,53896
31.12237,56484
31.13170,55839
31.14105,57573
31.15038,56377
31.15972,55383
31.16907,57226
31.17840,56904
31.18775,57796
31.19708,57399
31.20642,56862
31.21577,54553
31.22510,54964
31.23443,55723
31.24378,55604
31.25312,54770
31.26245,55629
31.27180,54358
31.28113,55210
31.29047,58857
31.29982,68713
31.30915,89933
31.31848,114883
31.32783,146164
31.33717,153170
31.34652,138450
31.35585,108626
31.36518,85461
