D:\数据\20220114\ZS1E-Z-000301.D Fri Jan 14 19:38:23 2022
Start of data points
0.09750,22309
0.10683,22602
0.11618,22592
0.12552,23282
0.13485,24353
0.14420,22320
0.15353,22468
0.16287,21570
0.17222,23299
0.18155,22600
0.19088,22371
0.20023,21879
0.20957,21631
0.21890,21079
0.22825,21897
0.23758,22336
0.24693,21476
0.25627,22118
0.26560,20992
0.27495,20317
0.28428,21185
0.29362,20802
0.30297,22104
0.31230,20709
0.32163,21098
0.33098,21424
0.34032,21713
0.34965,20825
0.35900,21118
0.36833,21592
0.37767,21684
0.38702,21402
0.39635,22253
0.40568,21186
0.41503,21346
0.42437,21581
0.43372,21471
0.44305,21539
0.45238,20370
0.46173,16133
0.47107,13635
0.48040,10594
0.48975,6213
0.49908,5911
0.50842,5562
0.51777,5043
0.52710,5346
0.53643,4939
0.54578,4645
0.55512,5380
0.56445,4982
0.57380,4080
0.58313,4966
0.59248,5135
0.60182,4940
0.61115,4876
0.62050,4645
0.62983,4834
0.63917,4223
0.64852,5478
0.65785,3981
0.66718,4253
0.67653,4476
0.68587,4449
0.69520,4822
0.70455,4265
0.71388,4548
0.72322,5307
0.73257,4685
0.74190,4578
0.75123,4762
0.76058,4001
0.76992,4490
0.77927,4423
0.78860,4857
0.79793,4732
0.80728,4619
0.81662,5075
0.82595,4221
0.83530,5018
0.84463,4585
0.85397,4169
0.86332,5147
0.87265,4066
0.88198,4805
0.89133,4140
0.90067,4265
0.91000,4172
0.91935,4344
0.92868,4630
0.93802,4574
0.94737,4317
0.95670,4746
0.96605,4325
0.97538,4711
0.98472,4886
0.99407,4307
1.00340,4474
1.01273,4212
1.02208,4404
1.03142,4610
1.04075,4078
1.05010,4874
1.05943,4566
1.06877,4683
1.07812,4371
1.08745,4436
1.09678,4720
1.10613,4429
1.11547,4710
1.12480,4449
1.13415,4118
1.14348,4405
1.15283,4274
1.16217,4257
1.17150,4481
1.18085,4188
1.19018,4761
1.19952,4104
1.20887,4169
1.21820,3891
1.22753,4508
1.23688,4088
1.24622,4223
1.25555,4499
1.26490,4370
1.27423,4589
1.28357,4338
1.29292,4757
1.30225,4141
1.31160,4395
1.32093,4455
1.33027,4407
1.33962,4301
1.34895,4120
1.35828,4302
1.36763,3914
1.37697,3933
1.38630,4592
1.39565,4609
1.40498,4362
1.41432,3732
1.42367,3725
1.43300,4392
1.44233,4008
1.45168,4514
1.46102,4172
1.47035,4125
1.47970,4156
1.48903,3957
1.49838,4366
1.50772,4155
1.51705,4361
1.52640,4341
1.53573,4662
1.54507,4481
1.55442,4755
1.56375,3984
1.57308,4078
1.58243,4258
1.59177,4228
1.60110,5378
1.61045,9684
1.61978,15433
1.62912,20260
1.63847,24176
1.64780,34713
1.65713,46420
1.66648,54186
1.67582,52578
1.68517,46095
1.69450,37184
1.70383,27960
1.71318,20422
1.72252,17864
1.73185,18612
1.74120,21109
1.75053,23298
1.75987,24833
1.76922,27839
1.77855,31062
1.78788,33306
1.79723,31936
1.80657,30447
1.81590,32362
1.82525,32855
1.83458,30660
1.84392,30513
1.85327,30254
1.86260,31089
1.87195,34625
1.88128,48278
1.89062,72522
1.89997,93320
1.90930,106600
1.91863,146414
1.92798,275255
1.93732,573617
1.94665,1095653
1.95600,1529030
1.96533,1543579
1.97467,1229839
1.98402,859792
1.99335,602601
2.00268,459642
2.01203,412559
2.02137,405942
2.03070,371047
2.04005,304069
2.04938,225218
2.05873,161112
2.06807,117975
2.07740,129407
2.08675,438939
2.09608,926930
2.10542,754411
2.11477,388231
2.12410,204885
2.13343,169863
2.14278,193553
2.15212,182260
2.16145,139652
2.17080,105168
2.18013,106196
2.18947,176948
2.19882,234654
2.20815,176108
2.21748,108038
2.22683,98506
2.23617,146319
2.24552,228069
2.25485,809636
2.26418,2194864
2.27353,2414773
2.28287,1714502
2.29220,1027572
2.30155,772605
2.31088,2158651
2.32022,5629460
2.32957,6195613
2.33890,3599981
2.34823,1575857
2.35758,687711
2.36692,337045
2.37625,232139
2.38560,210596
2.39493,181854
2.40428,148807
2.41362,125221
2.42295,111033
2.43230,105684
2.44163,92585
2.45097,79040
2.46032,80870
2.46965,110906
2.47898,148783
2.48833,138408
2.49767,104351
2.50700,80037
2.51635,68654
2.52568,60876
2.53502,56638
2.54437,58744
2.55370,64614
2.56303,89987
2.57238,513068
2.58172,521383
2.59107,392355
2.60040,279225
2.60973,209575
2.61908,199674
2.62842,187980
2.63775,159518
2.64710,134150
2.65643,118275
2.66577,102215
2.67512,84620
2.68445,68007
2.69378,60690
2.70313,54411
2.71247,61136
2.72180,92580
2.73115,123435
2.74048,140483
2.74982,156983
2.75917,182783
2.76850,242945
2.77785,358890
2.78718,472763
2.79652,504308
2.80587,481082
2.81520,466589
2.82453,275463
2.83388,191641
2.84322,151332
2.85255,139121
2.86190,151098
2.87123,181391
2.88057,185695
2.88992,153062
2.89925,118049
2.90858,105316
2.91793,97952
2.92727,91953
2.93660,79329
2.94595,68337
2.95528,61931
2.96463,57282
2.97397,54981
2.98330,53758
2.99265,57659
3.00198,67969
3.01132,75057
3.02067,71581
3.03000,65820
3.03933,91946
3.04868,130324
3.05802,132956
3.06735,125242
3.07670,118192
3.08603,97469
3.09537,74083
3.10472,57253
3.11405,50897
3.12340,48110
3.13273,50985
3.14207,53213
3.15142,56925
3.16075,62774
3.17008,63437
3.17943,61471
3.18877,56668
3.19810,52590
3.20745,49765
3.21678,51466
3.22612,48243
3.23547,45180
3.24480,44005
3.25413,43855
3.26348,42467
3.27282,42740
3.28215,42296
3.29150,41525
3.30083,45779
3.31018,48786
3.31952,43877
3.32885,41611
3.33820,43223
3.34753,44327
3.35687,43679
3.36622,41875
3.37555,41755
3.38488,38954
3.39423,37040
3.40357,41476
3.41290,48634
3.42225,54909
3.43158,54887
3.44092,56108
3.45027,61241
3.45960,64255
3.46893,60412
3.47828,54154
3.48762,54919
3.49697,53948
3.50630,50220
3.51563,44118
3.52498,41647
3.53432,42231
3.54365,51576
3.55300,120587
3.56233,310784
3.57167,501985
3.58102,469441
3.59035,291429
3.59968,162744
3.60903,107652
3.61837,100431
3.62770,99097
3.63705,87490
3.64638,76066
3.65572,65999
3.66507,63044
3.67440,60849
3.68375,61482
3.69308,52648
3.70242,47465
3.71177,50000
3.72110,60768
3.73043,73017
3.73978,66593
3.74912,55515
3.75845,49591
3.76780,44136
3.77713,39153
3.78647,37932
3.79582,37756
3.80515,44525
3.81448,59667
3.82383,72469
3.83317,69113
3.84250,59144
3.85185,50839
3.86118,48001
3.87053,44863
3.87987,46512
3.88920,47502
3.89855,52176
3.90788,55847
3.91722,56108
3.92657,55612
3.93590,61073
3.94523,71340
3.95458,100221
3.96392,113564
3.97325,103768
3.98260,92499
3.99193,89412
4.00127,98177
4.01062,106474
4.01995,112489
4.02930,120870
4.03863,132107
4.04797,145009
4.05732,153545
4.06665,168178
4.07598,200520
4.08533,237388
4.09467,254573
4.10400,224045
4.11335,133653
4.12268,92027
4.13202,74993
4.14137,66081
4.15070,63401
4.16003,58757
4.16938,57202
4.17872,52960
4.18805,48223
4.19740,50158
4.20673,54176
4.21608,56547
4.22542,53902
4.23475,48734
4.24410,45753
4.25343,44110
4.26277,46451
4.27212,51249
4.28145,67872
4.29078,80286
4.30013,86673
4.30947,77908
4.31880,70552
4.32815,67400
4.33748,64885
4.34682,64962
4.35617,58835
4.36550,51185
4.37483,47462
4.38418,49848
4.39352,52888
4.40287,50563
4.41220,47430
4.42153,44165
4.43088,42692
4.44022,39940
4.44955,39470
4.45890,40209
4.46823,44964
4.47757,56109
4.48692,63010
4.49625,60884
4.50558,51404
4.51493,44390
4.52427,42851
4.53360,42167
4.54295,45238
4.55228,45286
4.56162,45290
4.57097,45841
4.58030,45821
4.58965,42670
4.59898,41160
4.60832,41691
4.61767,39372
4.62700,37687
4.63633,38923
4.64568,44962
4.65502,54968
4.66435,58010
4.67370,56260
4.68303,50536
4.69237,47175
4.70172,43468
4.71105,41590
4.72038,39683
4.72973,59205
4.73907,73649
4.74842,70011
4.75775,59594
4.76708,51666
4.77643,48940
4.78577,47322
4.79510,45273
4.80445,46441
4.81378,45165
4.82312,44072
4.83247,42800
4.84180,45076
4.85113,44031
4.86048,48348
4.86982,59860
4.87915,77457
4.88850,75727
4.89783,61042
4.90717,47404
4.91652,40476
4.92585,40815
4.93520,41038
4.94453,45143
4.95387,43924
4.96322,40672
4.97255,39127
4.98188,36836
4.99123,36981
5.00057,37155
5.00990,39076
5.01925,45778
5.02858,54605
5.03792,63107
5.04727,67674
5.05660,68200
5.06593,55827
5.07528,48686
5.08462,48911
5.09395,48718
5.10330,47022
5.11263,43069
5.12198,41322
5.13132,40461
5.14065,43584
5.15000,46892
5.15933,49021
5.16867,48148
5.17802,44145
5.18735,50533
5.19668,58775
5.20603,62133
5.21537,55442
5.22470,47237
5.23405,44334
5.24338,51526
5.25272,49308
5.26207,52804
5.27140,99993
5.28073,249802
5.29008,458029
5.29942,489969
5.30877,322316
5.31810,156130
5.32743,76807
5.33678,55509
5.34612,48302
5.35545,48333
5.36480,47083
5.37413,44174
5.38347,48243
5.39282,53712
5.40215,52654
5.41148,50404
5.42083,45831
5.43017,41986
5.43950,40975
5.44885,38157
5.45818,38637
5.46752,39008
5.47687,39708
5.48620,40699
5.49555,40929
5.50488,40403
5.51422,45937
5.52357,54015
5.53290,61847
5.54223,62524
5.55158,54187
5.56092,50117
5.57025,54368
5.57960,56862
5.58893,60254
5.59827,66596
5.60762,72350
5.61695,81014
5.62628,85018
5.63563,93834
5.64497,100420
5.65432,82555
5.66365,65271
5.67298,59781
5.68233,60568
5.69167,59895
5.70100,58738
5.71035,59061
5.71968,58610
5.72902,54762
5.73837,54425
5.74770,64340
5.75703,75367
5.76638,74294
5.77572,74913
5.78505,69725
5.79440,59416
5.80373,49093
5.81307,46202
5.82242,48174
5.83175,56693
5.84110,61874
5.85043,55858
5.85977,48105
5.86912,44839
5.87845,42716
5.88778,39272
5.89713,35049
5.90647,35569
5.91580,50387
5.92515,74697
5.93448,81292
5.94382,79485
5.95317,92862
5.96250,87175
5.97183,70085
5.98118,51815
5.99052,41930
5.99985,39061
6.00920,38562
6.01853,36459
6.02788,32329
6.03722,28883
6.04655,26075
6.05590,26367
6.06523,26924
6.07457,28266
6.08392,26919
6.09325,21327
6.10258,19811
6.11193,20751
6.12127,23922
6.13060,31530
6.13995,36186
6.14928,31564
6.15862,23663
6.16797,18921
6.17730,18540
6.18663,19545
6.19598,18668
6.20532,18185
6.21467,18847
6.22400,21428
6.23333,27225
6.24268,29217
6.25202,27375
6.26135,23037
6.27070,29557
6.28003,42117
6.28937,43368
6.29872,33558
6.30805,26606
6.31738,19796
6.32673,20159
6.33607,17538
6.34540,18072
6.35475,16810
6.36408,19781
6.37343,21931
6.38277,32974
6.39210,76524
6.40145,299381
6.41078,810647
6.42012,1174782
6.42947,912655
6.43880,420170
6.44813,145440
6.45748,58601
6.46682,36720
6.47615,31383
6.48550,26566
6.49483,25333
6.50417,24283
6.51352,24775
6.52285,25697
6.53218,24003
6.54153,22029
6.55087,20591
6.56022,19966
6.56955,19972
6.57888,19891
6.58823,22174
6.59757,23054
6.60690,24851
6.61625,23958
6.62558,26410
6.63492,25857
6.64427,25806
6.65360,26184
6.66293,28932
6.67228,27604
6.68162,27274
6.69095,25026
6.70030,30258
6.70963,35086
6.71897,39896
6.72832,41250
6.73765,35840
6.74700,30210
6.75633,25771
6.76567,24502
6.77502,24347
6.78435,27936
6.79368,32583
6.80303,35849
6.81237,35953
6.82170,30559
6.83105,24546
6.84038,24652
6.84972,26165
6.85907,26981
6.86840,26577
6.87773,23240
6.88708,22582
6.89642,22086
6.90575,22937
6.91510,27169
6.92443,32098
6.93378,34531
6.94312,34656
6.95245,30270
6.96180,28205
6.97113,26097
6.98047,26230
6.98982,24237
6.99915,22883
7.00848,20733
7.01783,21844
7.02717,22226
7.03650,21021
7.04585,18938
7.05518,16494
7.06452,16803
7.07387,16552
7.08320,18657
7.09253,18823
7.10188,22638
7.11122,26781
7.12057,27596
7.12990,23618
7.13923,20857
7.14858,18785
7.15792,18434
7.16725,16577
7.17660,16577
7.18593,17247
7.19527,18779
7.20462,19626
7.21395,20035
7.22328,26941
7.23263,51095
7.24197,88424
7.25130,95779
7.26065,67635
7.26998,41398
7.27932,29766
7.28867,27428
7.29800,23985
7.30735,21155
7.31668,17698
7.32602,16511
7.33537,15695
7.34470,15464
7.35403,16317
7.36338,15800
7.37272,16717
7.38205,23827
7.39140,54810
7.40073,136969
7.41007,227665
7.41942,242100
7.42875,165961
7.43808,86041
7.44743,43738
7.45677,25141
7.46612,20443
7.47545,18574
7.48478,21474
7.49413,23591
7.50347,21532
7.51280,18676
7.52215,16738
7.53148,15133
7.54082,15109
7.55017,16388
7.55950,17529
7.56883,18962
7.57818,20697
7.58752,21094
7.59685,20407
7.60620,21673
7.61553,25204
7.62487,24990
7.63422,24795
7.64355,22946
7.65290,20874
7.66223,20087
7.67157,19546
7.68092,21580
7.69025,21688
7.69958,20551
7.70893,21290
7.71827,21489
7.72760,22360
7.73695,23650
7.74628,25670
7.75562,27505
7.76497,25144
7.77430,25174
7.78363,24221
7.79298,24247
7.80232,22738
7.81165,20088
7.82100,17343
7.83033,17976
7.83968,18799
7.84902,25888
7.85835,48742
7.86770,82251
7.87703,97016
7.88637,78662
7.89572,50047
7.90505,45505
7.91438,69709
7.92373,100261
7.93307,89862
7.94240,59514
7.95175,49335
7.96108,57160
7.97042,52818
7.97977,42124
7.98910,33241
7.99843,28959
8.00778,26040
8.01712,23049
8.02647,24391
8.03580,28995
8.04513,36721
8.05448,37290
8.06382,29917
8.07315,21263
8.08250,24834
8.09183,41405
8.10117,57022
8.11052,51909
8.11985,38604
8.12918,25299
8.13853,21593
8.14787,19003
8.15720,18037
8.16655,17962
8.17588,17938
8.18523,18493
8.19457,20435
8.20390,20107
8.21325,19095
8.22258,18875
8.23192,19127
8.24127,22397
8.25060,24086
8.25993,22460
8.26928,19875
8.27862,19277
8.28795,17920
8.29730,18137
8.30663,18889
8.31597,19116
8.32532,18916
8.33465,18665
8.34398,18632
8.35333,18084
8.36267,17623
8.37202,17150
8.38135,18797
8.39068,24190
8.40003,26609
8.40937,27533
8.41870,25138
8.42805,25213
8.43738,24346
8.44672,24045
8.45607,23073
8.46540,23537
8.47473,22540
8.48408,21503
8.49342,22202
8.50275,20532
8.51210,19284
8.52143,19706
8.53077,19616
8.54012,19089
8.54945,20112
8.55880,21134
8.56813,25646
8.57747,26857
8.58682,25934
8.59615,28108
8.60548,27921
8.61483,26722
8.62417,23226
8.63350,22967
8.64285,21281
8.65218,20286
8.66152,21780
8.67087,20794
8.68020,20841
8.68953,19829
8.69888,19450
8.70822,21462
8.71755,20591
8.72690,19829
8.73623,19582
8.74558,23854
8.75492,29347
8.76425,28441
8.77360,27716
8.78293,25767
8.79227,33398
8.80162,62535
8.81095,102992
8.82028,108201
8.82963,73491
8.83897,40046
8.84830,24266
8.85765,22221
8.86698,21311
8.87632,24110
8.88567,23286
8.89500,23098
8.90433,22659
8.91368,22501
8.92302,22582
8.93237,23572
8.94170,22970
8.95103,20054
8.96038,20575
8.96972,23779
8.97905,26604
8.98840,26517
8.99773,26566
9.00707,25810
9.01642,27211
9.02575,25463
9.03508,24734
9.04443,24817
9.05377,24775
9.06310,26335
9.07245,30111
9.08178,31337
9.09113,33006
9.10047,31868
9.10980,26533
9.11915,27856
9.12848,32695
9.13782,42049
9.14717,42019
9.15650,32731
9.16583,23961
9.17518,23382
9.18452,21260
9.19385,21945
9.20320,24481
9.21253,36904
9.22187,60362
9.23122,78568
9.24055,73090
9.24988,57096
9.25923,39308
9.26857,31642
9.27792,26939
9.28725,26029
9.29658,24578
9.30593,24658
9.31527,26017
9.32460,33692
9.33395,42856
9.34328,42287
9.35262,43048
9.36197,81535
9.37130,164693
9.38063,216552
9.38998,176405
9.39932,114949
9.40865,73246
9.41800,51484
9.42733,46388
9.43667,39284
9.44602,33230
9.45535,26690
9.46470,23330
9.47403,22747
9.48337,22379
9.49272,24035
9.50205,26107
9.51138,25861
9.52073,25631
9.53007,27174
9.53940,30087
9.54875,35063
9.55808,45259
9.56742,54321
9.57677,51591
9.58610,37782
9.59543,32214
9.60478,33313
9.61412,32179
9.62345,27799
9.63280,27279
9.64213,30011
9.65148,34604
9.66082,41200
9.67015,40912
9.67950,34214
9.68883,25984
9.69817,23957
9.70752,22293
9.71685,29095
9.72618,73547
9.73553,252313
9.74487,550820
9.75420,666608
9.76355,467171
9.77288,241132
9.78222,131526
9.79157,93172
9.80090,73873
9.81025,60491
9.81958,55064
9.82892,54521
9.83827,60190
9.84760,66079
9.85693,58971
9.86628,49534
9.87562,46045
9.88495,53823
9.89430,68013
9.90363,69201
9.91297,73125
9.92232,76646
9.93165,76149
9.94098,56512
9.95033,41216
9.95967,33332
9.96900,36721
9.97835,64233
9.98768,129028
9.99703,187906
10.00637,183076
10.01570,112202
10.02505,61183
10.03438,38377
10.04372,33373
10.05307,34601
10.06240,43930
10.07173,51765
10.08108,57240
10.09042,51104
10.09975,45932
10.10910,81931
10.11843,265079
10.12777,617614
10.13712,789297
10.14645,643233
10.15578,857985
10.16513,1646733
10.17447,1814900
10.18382,997479
10.19315,301695
10.20248,70817
10.21183,37562
10.22117,36036
10.23050,41186
10.23985,63082
10.24918,78721
10.25852,68685
10.26787,47069
10.27720,36415
10.28653,30947
10.29588,32202
10.30522,32549
10.31455,33298
10.32390,29814
10.33323,26666
10.34257,25887
10.35192,26134
10.36125,26980
10.37060,27247
10.37993,23314
10.38927,23876
10.39862,22552
10.40795,23448
10.41728,25854
10.42663,26837
10.43597,28113
10.44530,28417
10.45465,30919
10.46398,34929
10.47332,37846
10.48267,34588
10.49200,28099
10.50133,24772
10.51068,24078
10.52002,23432
10.52935,23764
10.53870,24149
10.54803,25635
10.55738,26432
10.56672,25539
10.57605,25991
10.58540,25478
10.59473,23140
10.60407,22778
10.61342,23024
10.62275,23748
10.63208,27848
10.64143,31034
10.65077,28839
10.66010,24901
10.66945,25753
10.67878,32105
10.68812,34900
10.69747,32614
10.70680,31130
10.71613,35868
10.72548,39463
10.73482,36173
10.74417,35289
10.75350,49545
10.76283,79970
10.77218,105200
10.78152,241239
10.79085,1045780
10.80020,3057356
10.80953,4694935
10.81887,3804221
10.82822,1586605
10.83755,402438
10.84688,103255
10.85623,54607
10.86557,51308
10.87490,63258
10.88425,70611
10.89358,63526
10.90293,49992
10.91227,37352
10.92160,34588
10.93095,37101
10.94028,37465
10.94962,33455
10.95897,31656
10.96830,32537
10.97763,31158
10.98698,26547
10.99632,25679
11.00565,24255
11.01500,25025
11.02433,24185
11.03367,24480
11.04302,25345
11.05235,25403
11.06168,22395
11.07103,25403
11.08037,26467
11.08972,25008
11.09905,28124
11.10838,39030
11.11773,46735
11.12707,43156
11.13640,35755
11.14575,32655
11.15508,29244
11.16442,29354
11.17377,31014
11.18310,30140
11.19243,26648
11.20178,25717
11.21112,23246
11.22045,24228
11.22980,24056
11.23913,24924
11.24847,23359
11.25782,27764
11.26715,31129
11.27650,29917
11.28583,26029
11.29517,24210
11.30452,22854
11.31385,23762
11.32318,24146
11.33253,27305
11.34187,36718
11.35120,48028
11.36055,54271
11.36988,49639
11.37922,41565
11.38857,33299
11.39790,33891
11.40723,37220
11.41658,39249
11.42592,35218
11.43525,30004
11.44460,25441
11.45393,26358
11.46328,33681
11.47262,40341
11.48195,39330
11.49130,32244
11.50063,24331
11.50997,22741
11.51932,21948
11.52865,21750
11.53798,21876
11.54733,24728
11.55667,36105
11.56600,61363
11.57535,105556
11.58468,126955
11.59402,106180
11.60337,74762
11.61270,54900
11.62205,44561
11.63138,38394
11.64072,39196
11.65007,51132
11.65940,64342
11.66873,65374
11.67808,55248
11.68742,41548
11.69675,34736
11.70610,33997
11.71543,34182
11.72477,30762
11.73412,30179
11.74345,28855
11.75278,29192
11.76213,28324
11.77147,30597
11.78080,32382
11.79015,36015
11.79948,36500
11.80883,31346
11.81817,29061
11.82750,29867
11.83685,30337
11.84618,31154
11.85552,30383
11.86487,29475
11.87420,32277
11.88353,32457
11.89288,32568
11.90222,28401
11.91155,26643
11.92090,24116
11.93023,25975
11.93957,32371
11.94892,39545
11.95825,37246
11.96758,32022
11.97693,26108
11.98627,25593
11.99562,29041
12.00495,42432
12.01428,63495
12.02363,69016
12.03297,57800
12.04230,42400
12.05165,34568
12.06098,29267
12.07032,26260
12.07967,25321
12.08900,26396
12.09833,27049
12.10768,27643
12.11702,25074
12.12635,26544
12.13570,25664
12.14503,27677
12.15437,31391
12.16372,56034
12.17305,121516
12.18240,191769
12.19173,158813
12.20107,80834
12.21042,38873
12.21975,32388
12.22908,36433
12.23843,40290
12.24777,35512
12.25710,34960
12.26645,59180
12.27578,136702
12.28512,203818
12.29447,172051
12.30380,89992
12.31313,47892
12.32248,36839
12.33182,36654
12.34115,41139
12.35050,38097
12.35983,31722
12.36918,30239
12.37852,29840
12.38785,35982
12.39720,42009
12.40653,40475
12.41587,37387
12.42522,34529
12.43455,32488
12.44388,29407
12.45323,29132
12.46257,31588
12.47190,34152
12.48125,35473
12.49058,35917
12.49992,36689
12.50927,39673
12.51860,38418
12.52793,38651
12.53728,37677
12.54662,36547
12.55597,35283
12.56530,39227
12.57463,42929
12.58398,45289
12.59332,39267
12.60265,35623
12.61200,31172
12.62133,31660
12.63067,34979
12.64002,42770
12.64935,45768
12.65868,43129
12.66803,36419
12.67737,31069
12.68670,27446
12.69605,23945
12.70538,25170
12.71473,28282
12.72407,32240
12.73340,32783
12.74275,32424
12.75208,33818
12.76142,34295
12.77077,32033
12.78010,26068
12.78943,24569
12.79878,25727
12.80812,28308
12.81745,29537
12.82680,30442
12.83613,30347
12.84547,28608
12.85482,27574
12.86415,27021
12.87348,26452
12.88283,25996
12.89217,28539
12.90152,29866
12.91085,28784
12.92018,27262
12.92953,25469
12.93887,25561
12.94820,28792
12.95755,28374
12.96688,26953
12.97622,26518
12.98557,23927
12.99490,22558
13.00423,24604
13.01358,24984
13.02292,27584
13.03225,34013
13.04160,35675
13.05093,32598
13.06027,28606
13.06962,32780
13.07895,35514
13.08830,32257
13.09763,29876
13.10697,28349
13.11632,28155
13.12565,29718
13.13498,33732
13.14433,35375
13.15367,35441
13.16300,37651
13.17235,39339
13.18168,50380
13.19102,118849
13.20037,427416
13.20970,1054691
13.21903,1398505
13.22838,954063
13.23772,387644
13.24705,148037
13.25640,96549
13.26573,72154
13.27508,48919
13.28442,38658
13.29375,32412
13.30310,31720
13.31243,35852
13.32177,43626
13.33112,43587
13.34045,40395
13.34978,39987
13.35913,34114
13.36847,32321
13.37780,28988
13.38715,31052
13.39648,37975
13.40582,42022
13.41517,36827
13.42450,29779
13.43385,32435
13.44318,41546
13.45252,39956
13.46187,36984
13.47120,38224
13.48053,42171
13.48988,41719
13.49922,40963
13.50855,41427
13.51790,59853
13.52723,92887
13.53657,105033
13.54592,76765
13.55525,46635
13.56458,31736
13.57393,28184
13.58327,25854
13.59260,24440
13.60195,24973
13.61128,24269
13.62063,24009
13.62997,25501
13.63930,28625
13.64865,34335
13.65798,35697
13.66732,33028
13.67667,27207
13.68600,25932
13.69533,23116
13.70468,23858
13.71402,24548
13.72335,25006
13.73270,22072
13.74203,22171
13.75137,23440
13.76072,24113
13.77005,24472
13.77938,24286
13.78873,24344
13.79807,26458
13.80742,30160
13.81675,30629
13.82608,27480
13.83543,24605
13.84477,23950
13.85410,26003
13.86345,26397
13.87278,29250
13.88212,34558
13.89147,46284
13.90080,71110
13.91013,113306
13.91948,163799
13.92882,163273
13.93815,96692
13.94750,52857
13.95683,41713
13.96617,40534
13.97552,34672
13.98485,31074
13.99420,31784
14.00353,29609
14.01287,27005
14.02222,26740
14.03155,27875
14.04088,60751
14.05023,341609
14.05957,1637257
14.06890,4344705
14.07825,5790192
14.08758,3757970
14.09692,1156043
14.10627,194366
14.11560,54691
14.12493,39573
14.13428,37010
14.14362,35943
14.15295,36591
14.16230,37117
14.17163,37641
14.18098,44538
14.19032,64186
14.19965,89131
14.20900,79653
14.21833,52249
14.22767,33576
14.23702,27363
14.24635,24473
14.25568,24410
14.26503,26211
14.27437,27353
14.28370,27751
14.29305,26604
14.30238,24939
14.31172,27759
14.32107,34455
14.33040,41515
14.33975,42093
14.34908,39475
14.35842,33540
14.36777,28392
14.37710,24942
14.38643,24573
14.39578,26803
14.40512,23176
14.41445,23810
14.42380,23276
14.43313,24610
14.44247,24833
14.45182,27683
14.46115,32730
14.47048,37837
14.47983,35442
14.48917,30859
14.49850,27582
14.50785,26806
14.51718,22833
14.52653,23455
14.53587,24240
14.54520,26171
14.55455,27887
14.56388,28831
14.57322,29351
14.58257,28081
14.59190,24253
14.60123,23638
14.61058,22124
14.61992,23831
14.62925,25381
14.63860,28929
14.64793,36349
14.65727,43002
14.66662,44009
14.67595,37652
14.68528,31554
14.69463,27273
14.70397,27304
14.71332,25886
14.72265,25362
14.73198,26891
14.74133,27757
14.75067,28275
14.76000,27691
14.76935,30284
14.77868,30996
14.78802,30573
14.79737,29977
14.80670,27295
14.81603,27425
14.82538,28596
14.83472,27856
14.84405,24503
14.85340,23673
14.86273,28735
14.87207,36744
14.88142,39748
14.89075,35907
14.90010,30877
14.90943,27015
14.91877,27445
14.92812,25222
14.93745,25342
14.94678,26127
14.95613,28536
14.96547,29464
14.97480,32589
14.98415,32538
14.99348,30063
15.00282,28484
15.01217,32257
15.02150,31483
15.03083,28429
15.04018,26641
15.04952,29567
15.05887,30453
15.06820,29544
15.07753,29305
15.08688,27185
15.09622,24758
15.10555,24344
15.11490,25979
15.12423,30420
15.13357,34058
15.14292,33326
15.15225,29503
15.16158,25490
15.17093,24348
15.18027,24244
15.18960,26210
15.19895,34334
15.20828,49694
15.21762,65179
15.22697,60091
15.23630,48162
15.24565,35668
15.25498,30282
15.26432,25883
15.27367,26554
15.28300,25643
15.29233,24881
15.30168,25032
15.31102,24973
15.32035,28625
15.32970,31530
15.33903,32814
15.34837,30578
15.35772,30470
15.36705,33408
15.37638,36808
15.38573,33361
15.39507,27574
15.40440,25977
15.41375,24448
15.42308,28276
15.43243,30092
15.44177,28252
15.45110,28056
15.46045,25527
15.46978,24639
15.47912,25273
15.48847,26790
15.49780,28623
15.50713,32146
15.51648,41904
15.52582,49603
15.53515,47169
15.54450,35875
15.55383,28584
15.56317,25094
15.57252,24375
15.58185,24177
15.59118,23668
15.60053,23789
15.60987,24976
15.61922,25383
15.62855,28475
15.63788,32084
15.64723,32493
15.65657,33204
15.66590,33125
15.67525,34612
15.68458,34861
15.69392,40295
15.70327,53845
15.71260,58420
15.72193,48131
15.73128,32890
15.74062,29216
15.74995,34579
15.75930,37752
15.76863,38790
15.77797,36515
15.78732,32490
15.79665,28576
15.80600,33428
15.81533,52486
15.82467,98845
15.83402,162420
15.84335,215082
15.85268,198702
15.86203,120267
15.87137,63049
15.88070,46612
15.89005,48911
15.89938,50563
15.90872,50479
15.91807,45129
15.92740,35928
15.93673,32458
15.94608,28410
15.95542,26566
15.96477,29329
15.97410,34573
15.98343,45030
15.99278,59464
16.00212,60070
16.01145,47737
16.02080,35975
16.03013,31135
16.03947,30692
16.04882,31123
16.05815,33516
16.06748,32938
16.07683,30453
16.08617,30572
16.09550,29737
16.10485,31711
16.11418,34319
16.12352,36459
16.13287,36292
16.14220,33399
16.15155,31053
16.16088,30032
16.17022,30455
16.17957,30916
16.18890,30606
16.19823,36064
16.20758,39019
16.21692,41603
16.22625,42100
16.23560,44630
16.24493,44968
16.25427,42550
16.26362,42491
16.27295,63477
16.28228,177547
16.29163,475331
16.30097,731615
16.31030,618841
16.31965,297608
16.32898,102069
16.33833,42434
16.34767,31762
16.35700,26254
16.36635,24878
16.37568,24053
16.38502,23427
16.39437,25997
16.40370,26374
16.41303,26325
16.42238,27323
16.43172,26671
16.44105,28509
16.45040,30317
16.45973,36724
16.46907,38015
16.47842,41720
16.48775,48297
16.49708,49206
16.50643,39836
16.51577,35831
16.52512,32367
16.53445,32591
16.54378,29432
16.55313,28619
16.56247,24348
16.57180,26997
16.58115,29059
16.59048,30243
16.59982,26973
16.60917,28333
16.61850,31415
16.62783,37267
16.63718,41761
16.64652,40158
16.65585,37188
16.66520,32192
16.67453,30266
16.68388,32334
16.69322,38487
16.70255,41893
16.71190,41156
16.72123,35320
16.73057,32251
16.73992,48076
16.74925,82067
16.75858,100499
16.76793,72971
16.77727,43135
16.78660,31457
16.79595,29874
16.80528,30396
16.81462,33925
16.82397,38580
16.83330,44290
16.84263,45502
16.85198,39368
16.86132,32316
16.87067,28938
16.88000,26401
16.88933,28706
16.89868,29598
16.90802,36904
16.91735,42987
16.92670,45501
16.93603,38888
16.94537,38791
16.95472,43951
16.96405,46630
16.97338,44190
16.98273,38056
16.99207,32029
17.00140,29238
17.01075,30932
17.02008,37888
17.02942,59115
17.03877,79080
17.04810,67121
17.05745,47512
17.06678,35171
17.07612,33044
17.08547,33038
17.09480,29112
17.10413,30553
17.11348,28709
17.12282,30520
17.13215,36137
17.14150,40340
17.15083,38429
17.16017,30821
17.16952,28650
17.17885,27475
17.18818,28149
17.19753,27734
17.20687,26545
17.21620,24494
17.22555,25207
17.23488,25558
17.24423,25645
17.25357,27410
17.26290,27823
17.27225,30104
17.28158,35434
17.29092,37420
17.30027,37127
17.30960,35455
17.31893,37785
17.32828,39041
17.33762,36828
17.34695,32444
17.35630,28981
17.36563,31063
17.37497,49291
17.38432,88288
17.39365,116133
17.40298,95770
17.41233,63350
17.42167,49779
17.43102,39367
17.44035,37006
17.44968,36245
17.45903,37724
17.46837,39352
17.47770,45762
17.48705,77111
17.49638,296895
17.50572,1059112
17.51507,2058620
17.52440,2052532
17.53373,963373
17.54308,259113
17.55242,69796
17.56175,44543
17.57110,42019
17.58043,44120
17.58977,43223
17.59912,39129
17.60845,33455
17.61780,30675
17.62713,33725
17.63647,32626
17.64582,33162
17.65515,35007
17.66448,39586
17.67383,42648
17.68317,54479
17.69250,62330
17.70185,57711
17.71118,47707
17.72052,41849
17.72987,37331
17.73920,34941
17.74853,36946
17.75788,39737
17.76722,42173
17.77657,41286
17.78590,38268
17.79523,35564
17.80458,33577
17.81392,31749
17.82325,30418
17.83260,30566
17.84193,33470
17.85127,35622
17.86062,41337
17.86995,44547
17.87928,45640
17.88863,38910
17.89797,35949
17.90730,31458
17.91665,31051
17.92598,28652
17.93532,30521
17.94467,29383
17.95400,28386
17.96335,27873
17.97268,29987
17.98202,28451
17.99137,27651
18.00070,27697
18.01003,29607
18.01938,33379
18.02872,39385
18.03805,53981
18.04740,102274
18.05673,168414
18.06607,189103
18.07542,129664
18.08475,67134
18.09408,37894
18.10343,33291
18.11277,31628
18.12210,33345
18.13145,30629
18.14078,32061
18.15013,32731
18.15947,32014
18.16880,32397
18.17815,34445
18.18748,35020
18.19682,34211
18.20617,32781
18.21550,33281
18.22483,34719
18.23418,33236
18.24352,30517
18.25285,27532
18.26220,27729
18.27153,30663
18.28087,35779
18.29022,37573
18.29955,40396
18.30888,42583
18.31823,40936
18.32757,41250
18.33692,44848
18.34625,46931
18.35558,49007
18.36493,47901
18.37427,43396
18.38360,38763
18.39295,38218
18.40228,37780
18.41162,36215
18.42097,35318
18.43030,33262
18.43963,38513
18.44898,42947
18.45832,41794
18.46765,37808
18.47700,32537
18.48633,35159
18.49568,43308
18.50502,53613
18.51435,61284
18.52370,56673
18.53303,47590
18.54237,39093
18.55172,37123
18.56105,36946
18.57038,36398
18.57973,37293
18.58907,40920
18.59840,46166
18.60775,52213
18.61708,49313
18.62642,41019
18.63577,38149
18.64510,37886
18.65443,36159
18.66378,35264
18.67312,31194
18.68247,33486
18.69180,34284
18.70113,36035
18.71048,38694
18.71982,38919
18.72915,38802
18.73850,37735
18.74783,34953
18.75717,31951
18.76652,28719
18.77585,26708
18.78518,27495
18.79453,27910
18.80387,28334
18.81320,29499
18.82255,30138
18.83188,29751
18.84122,28970
18.85057,27021
18.85990,29550
18.86925,27844
18.87858,27580
18.88792,26964
18.89727,29843
18.90660,34219
18.91593,39669
18.92528,38985
18.93462,37838
18.94395,37365
18.95330,39855
18.96263,45346
18.97197,52382
18.98132,48541
18.99065,42937
18.99998,35692
19.00933,34105
19.01867,34088
19.02800,34623
19.03735,37579
19.04668,47704
19.05603,62168
19.06537,85428
19.07470,128622
19.08405,186705
19.09338,185491
19.10272,122637
19.11207,63350
19.12140,38778
19.13073,32238
19.14008,29112
19.14942,28009
19.15875,26200
19.16810,26217
19.17743,26999
19.18677,28288
19.19612,31508
19.20545,34365
19.21478,36674
19.22413,37499
19.23347,36545
19.24282,35379
19.25215,33839
19.26148,37684
19.27083,43085
19.28017,45700
19.28950,45210
19.29885,50459
19.30818,67595
19.31752,89366
19.32687,79300
19.33620,58252
19.34553,43409
19.35488,37020
19.36422,31387
19.37355,29838
19.38290,29666
19.39223,32314
19.40158,32681
19.41092,31554
19.42025,30997
19.42960,28655
19.43893,25997
19.44827,25027
19.45762,27498
19.46695,27474
19.47628,31785
19.48563,34082
19.49497,37988
19.50430,36758
19.51365,32911
19.52298,31126
19.53232,30811
19.54167,29897
19.55100,31650
19.56033,28249
19.56968,29201
19.57902,30904
19.58837,32766
19.59770,33002
19.60703,34736
19.61638,34028
19.62572,34426
19.63505,37367
19.64440,37719
19.65373,34090
19.66307,30319
19.67242,29222
19.68175,31425
19.69108,33679
19.70043,37093
19.70977,39938
19.71910,41604
19.72845,50230
19.73778,53075
19.74712,50254
19.75647,40838
19.76580,35885
19.77515,33677
19.78448,36024
19.79382,32972
19.80317,31462
19.81250,31097
19.82183,29629
19.83118,29477
19.84052,29062
19.84985,27444
19.85920,29074
19.86853,39110
19.87787,51393
19.88722,55224
19.89655,44889
19.90588,36343
19.91523,32789
19.92457,32662
19.93390,32790
19.94325,34213
19.95258,48594
19.96193,70760
19.97127,98625
19.98060,109162
19.98995,76874
19.99928,50218
20.00862,41389
20.01797,39453
20.02730,38680
20.03663,39742
20.04598,38218
20.05532,37226
20.06465,36105
20.07400,35600
20.08333,36113
20.09267,36430
20.10202,33291
20.11135,31399
20.12070,29565
20.13003,29906
20.13937,31007
20.14872,37158
20.15805,42642
20.16738,42423
20.17673,37627
20.18607,33139
20.19540,31465
20.20475,29499
20.21408,31331
20.22342,31169
20.23277,30395
20.24210,31132
20.25143,29865
20.26078,29646
20.27012,28060
20.27945,29258
20.28880,28240
20.29813,30326
20.30748,30015
20.31682,29411
20.32615,26275
20.33550,25726
20.34483,27026
20.35417,28258
20.36352,29081
20.37285,30465
20.38218,28166
20.39153,27271
20.40087,28414
20.41020,26695
20.41955,27274
20.42888,28715
20.43822,27661
20.44757,29464
20.45690,29989
20.46623,32527
20.47558,35784
20.48492,35057
20.49427,32882
20.50360,28377
20.51293,27093
20.52228,26299
20.53162,27840
20.54095,30157
20.55030,32006
20.55963,45066
20.56897,95456
20.57832,182992
20.58765,199830
20.59698,128471
20.60633,65115
20.61567,41638
20.62500,36090
20.63435,35009
20.64368,37773
20.65302,36370
20.66237,35365
20.67170,32659
20.68105,31636
20.69038,33824
20.69972,30404
20.70907,32795
20.71840,32486
20.72773,33137
20.73708,32047
20.74642,29146
20.75575,31783
20.76510,29706
20.77443,29170
20.78377,29342
20.79312,32770
20.80245,37487
20.81178,34496
20.82113,30435
20.83047,27773
20.83980,27596
20.84915,26702
20.85848,26690
20.86783,28496
20.87717,28269
20.88650,30061
20.89585,32579
20.90518,31189
20.91452,29981
20.92387,28532
20.93320,27512
20.94253,28157
20.95188,26545
20.96122,26651
20.97055,26260
20.97990,25336
20.98923,27497
20.99857,26877
21.00792,26332
21.01725,27005
21.02658,26229
21.03593,24784
21.04527,26602
21.05462,26230
21.06395,28138
21.07328,28254
21.08263,28054
21.09197,27596
21.10130,26849
21.11065,27979
21.11998,30031
21.12932,30021
21.13867,28541
21.14800,27585
21.15733,29162
21.16668,30586
21.17602,33542
21.18535,41120
21.19470,42074
21.20403,37731
21.21338,33021
21.22272,30059
21.23205,28129
21.24140,28396
21.25073,28224
21.26007,28059
21.26942,29636
21.27875,34731
21.28808,39121
21.29743,39240
21.30677,34514
21.31610,31547
21.32545,30812
21.33478,29876
21.34412,28933
21.35347,29326
21.36280,30890
21.37213,28094
21.38148,26868
21.39082,30112
21.40017,30073
21.40950,30488
21.41883,30622
21.42818,31188
21.43752,29635
21.44685,29302
21.45620,26906
21.46553,27778
21.47487,28951
21.48422,29797
21.49355,31477
21.50288,31720
21.51223,29228
21.52157,29674
21.53090,28552
21.54025,28429
21.54958,31474
21.55892,38357
21.56827,53038
21.57760,64071
21.58695,60066
21.59628,44477
21.60562,36121
21.61497,31773
21.62430,31161
21.63363,31769
21.64298,29550
21.65232,28188
21.66165,28677
21.67100,32702
21.68033,37185
21.68967,39160
21.69902,35618
21.70835,36279
21.71768,36638
21.72703,36966
21.73637,32484
21.74570,30695
21.75505,30235
21.76438,26789
21.77373,27383
21.78307,27989
21.79240,29073
21.80175,32380
21.81108,34672
21.82042,37246
21.82977,36138
21.83910,32254
21.84843,30091
21.85778,31092
21.86712,29781
21.87645,32518
21.88580,35983
21.89513,38497
21.90447,36549
21.91382,34332
21.92315,30046
21.93250,29800
21.94183,28367
21.95117,29590
21.96052,31638
21.96985,35462
21.97918,38319
21.98853,43382
21.99787,44493
22.00720,40849
22.01655,35442
22.02588,33283
22.03522,35361
22.04457,38309
22.05390,39497
22.06323,38337
22.07258,37291
22.08192,37098
22.09125,34218
22.10060,31957
22.10993,33758
22.11928,30730
22.12862,29673
22.13795,30186
22.14730,32793
22.15663,37775
22.16597,45680
22.17532,47883
22.18465,44112
22.19398,36154
22.20333,33700
22.21267,34679
22.22200,35284
22.23135,38398
22.24068,37699
22.25002,38202
22.25937,36669
22.26870,38639
22.27803,46815
22.28738,51350
22.29672,51627
22.30607,45426
22.31540,39677
22.32473,36714
22.33408,32787
22.34342,36750
22.35275,41406
22.36210,47565
22.37143,50521
22.38077,52113
22.39012,49431
22.39945,42894
22.40878,35877
22.41813,38143
22.42747,39156
22.43680,41601
22.44615,44000
22.45548,40269
22.46482,37049
22.47417,38141
22.48350,34478
22.49285,35178
22.50218,34840
22.51152,34105
22.52087,33582
22.53020,32614
22.53953,34196
22.54888,34332
22.55822,36212
22.56755,39826
22.57690,40964
22.58623,42916
22.59557,41950
22.60492,42811
22.61425,44366
22.62358,43135
22.63293,42542
22.64227,40454
22.65160,37440
22.66095,35139
22.67028,34284
22.67963,38339
22.68897,41811
22.69830,45275
22.70765,41396
22.71698,40738
22.72632,40309
22.73567,43445
22.74500,45539
22.75433,45839
22.76368,46193
22.77302,44351
22.78235,40082
22.79170,40035
22.80103,45536
22.81037,47495
22.81972,45069
22.82905,42846
22.83840,40550
22.84773,40183
22.85707,36530
22.86642,35556
22.87575,38490
22.88508,38225
22.89443,37477
22.90377,37870
22.91310,37377
22.92245,39109
22.93178,41680
22.94112,38609
22.95047,35554
22.95980,35444
22.96913,34190
22.97848,33226
22.98782,31627
22.99715,30044
23.00650,30155
23.01583,29768
23.02518,30831
23.03452,30114
23.04385,30618
23.05320,30126
23.06253,31574
23.07187,30450
23.08122,30921
23.09055,30951
23.09988,30359
23.10923,30437
23.11857,29173
23.12790,29455
23.13725,29956
23.14658,29578
23.15592,30355
23.16527,31120
23.17460,31744
23.18393,29294
23.19328,30249
23.20262,28877
23.21197,29325
23.22130,27777
23.23063,31530
23.23998,30306
23.24932,34372
23.25865,32980
23.26800,35051
23.27733,33257
23.28667,31834
23.29602,30111
23.30535,30211
23.31468,30431
23.32403,35055
23.33337,40041
23.34270,42860
23.35205,40108
23.36138,33552
23.37072,31687
23.38007,31558
23.38940,29825
23.39875,30171
23.40808,30162
23.41742,29637
23.42677,29147
23.43610,28757
23.44543,30399
23.45478,29466
23.46412,29731
23.47345,29341
23.48280,28702
23.49213,28407
23.50147,27607
23.51082,28353
23.52015,29932
23.52948,30211
23.53883,28368
23.54817,28269
23.55752,27392
23.56685,26885
23.57618,28299
23.58553,29823
23.59487,30479
23.60420,28583
23.61355,28005
23.62288,28088
23.63222,26559
23.64157,27300
23.65090,27554
23.66023,27342
23.66958,27514
23.67892,26711
23.68825,29375
23.69760,30966
23.70693,32960
23.71627,31652
23.72562,34959
23.73495,35494
23.74430,33378
23.75363,31410
23.76297,28329
23.77232,27723
23.78165,27302
23.79098,26821
23.80033,26563
23.80967,28017
23.81900,27989
23.82835,29396
23.83768,27275
23.84702,26141
23.85637,26382
23.86570,25882
23.87503,27579
23.88438,26831
23.89372,27861
23.90305,28170
23.91240,28747
23.92173,27952
23.93108,27266
23.94042,25469
23.94975,27024
23.95910,26505
23.96843,27298
23.97777,26368
23.98712,26553
23.99645,25948
24.00578,27165
24.01513,27110
24.02447,30084
24.03380,28759
24.04315,25833
24.05248,26797
24.06182,26006
24.07117,28673
24.08050,28783
24.08983,28148
24.09918,27852
24.10852,27138
24.11787,25942
24.12720,27891
24.13653,26725
24.14588,28082
24.15522,27565
24.16455,26164
24.17390,27120
24.18323,28047
24.19257,26447
24.20192,25603
24.21125,26249
24.22058,27065
24.22993,27278
24.23927,27660
24.24860,27391
24.25795,27921
24.26728,27664
24.27662,27423
24.28597,27829
24.29530,27905
24.30465,27685
24.31398,27628
24.32332,29846
24.33267,29675
24.34200,28630
24.35133,27892
24.36068,26348
24.37002,28669
24.37935,28584
24.38870,28921
24.39803,28639
24.40737,27813
24.41672,25980
24.42605,27449
24.43538,27099
24.44473,27899
24.45407,26618
24.46340,26768
24.47275,28315
24.48208,27123
24.49143,27105
24.50077,26008
24.51010,26163
24.51945,27501
24.52878,27674
24.53812,27502
24.54747,28958
24.55680,27409
24.56613,28033
24.57548,27085
24.58482,28177
24.59415,27671
24.60350,28484
24.61283,30049
24.62217,29896
24.63152,28893
24.64085,28177
24.65020,28508
24.65953,29350
24.66887,30905
24.67822,30870
24.68755,30349
24.69688,28714
24.70623,27617
24.71557,28117
24.72490,29058
24.73425,27456
24.74358,27883
24.75292,27515
24.76227,28630
24.77160,28647
24.78093,25045
24.79028,27660
24.79962,26161
24.80895,27981
24.81830,27151
24.82763,28081
24.83698,26327
24.84632,25931
24.85565,27254
24.86500,27592
24.87433,27212
24.88367,28937
24.89302,27670
24.90235,28533
24.91168,27459
24.92103,28088
24.93037,27563
24.93970,26340
24.94905,26477
24.95838,27543
24.96772,28067
24.97707,25945
24.98640,28129
24.99573,27763
25.00508,26791
25.01442,27750
25.02377,28188
25.03310,27637
25.04243,27136
25.05178,28064
25.06112,27681
25.07045,27251
25.07980,27757
25.08913,28056
25.09847,27463
25.10782,28346
25.11715,27010
25.12648,27799
25.13583,29378
25.14517,29875
25.15450,30313
25.16385,30134
25.17318,30490
25.18252,29000
25.19187,29078
25.20120,30507
25.21055,30475
25.21988,28626
25.22922,28045
25.23857,28953
25.24790,26391
25.25723,28509
25.26658,27646
25.27592,27525
25.28525,27789
25.29460,29493
25.30393,31036
25.31327,37389
25.32262,63828
25.33195,98793
25.34128,114750
25.35063,86240
25.35997,55879
25.36932,46254
25.37865,39733
25.38798,37778
25.39733,35485
25.40667,37364
25.41600,35688
25.42535,35413
25.43468,34587
25.44402,35759
25.45337,34310
25.46270,36250
25.47203,34360
25.48138,37953
25.49072,37842
25.50005,38002
25.50940,37780
25.51873,38752
25.52807,38017
25.53742,38096
25.54675,36376
25.55610,37333
25.56543,35750
25.57477,37387
25.58412,36510
25.59345,34020
25.60278,35270
25.61213,33297
25.62147,34223
25.63080,34129
25.64015,34627
25.64948,35275
25.65882,35453
25.66817,36807
25.67750,35659
25.68683,34212
25.69618,33298
25.70552,32771
25.71485,32457
25.72420,32628
25.73353,33267
25.74288,34403
25.75222,34219
25.76155,32679
25.77090,33406
25.78023,33073
25.78957,34389
25.79892,32255
25.80825,34677
25.81758,35785
25.82693,34536
25.83627,34222
25.84560,34282
25.85495,34132
25.86428,32787
25.87362,32820
25.88297,32560
25.89230,32411
25.90163,32293
25.91098,32826
25.92032,33174
25.92967,32903
25.93900,33958
25.94833,34644
25.95768,35901
25.96702,32986
25.97635,32576
25.98570,32148
25.99503,31504
26.00437,32013
26.01372,32776
26.02305,33613
26.03238,34351
26.04173,33606
26.05107,35508
26.06040,35595
26.06975,34212
26.07908,33618
26.08842,33880
26.09777,34575
26.10710,33971
26.11645,34442
26.12578,32323
26.13512,34199
26.14447,35655
26.15380,35146
26.16313,34942
26.17248,37653
26.18182,36258
26.19115,33847
26.20050,34211
26.20983,32399
26.21917,33116
26.22852,31251
26.23785,34050
26.24718,32159
26.25653,31610
26.26587,32887
26.27522,31984
26.28455,33619
26.29388,34208
26.30323,32040
26.31257,33362
26.32190,35065
26.33125,34684
26.34058,31203
26.34992,30998
26.35927,31708
26.36860,32221
26.37793,32396
26.38728,32487
26.39662,31935
26.40595,31002
26.41530,30346
26.42463,31691
26.43397,30183
26.44332,31764
26.45265,33040
26.46200,33330
26.47133,33768
26.48067,33006
26.49002,34436
26.49935,33028
26.50868,33269
26.51803,34909
26.52737,35077
26.53670,36803
26.54605,36943
26.55538,35052
26.56472,36361
26.57407,33539
26.58340,32662
26.59273,34140
26.60208,37513
26.61142,39833
26.62075,35244
26.63010,33643
26.63943,33456
26.64878,32360
26.65812,35328
26.66745,35658
26.67680,34266
26.68613,35110
26.69547,31427
26.70482,31059
26.71415,31702
26.72348,32888
26.73283,32071
26.74217,32433
26.75150,31254
26.76085,33399
26.77018,32604
26.77952,32656
26.78887,32906
26.79820,32682
26.80753,33062
26.81688,31308
26.82622,33971
26.83557,35023
26.84490,36140
26.85423,35757
26.86358,36962
26.87292,35258
26.88225,32060
26.89160,32535
26.90093,31541
26.91027,32669
26.91962,31160
26.92895,32232
26.93828,33509
26.94763,31536
26.95697,32569
26.96630,32170
26.97565,33288
26.98498,32879
26.99433,32592
27.00367,35060
27.01300,34242
27.02235,32658
27.03168,34303
27.04102,33557
27.05037,34557
27.05970,34667
27.06903,35165
27.07838,33522
27.08772,34551
27.09705,32876
27.10640,32950
27.11573,35392
27.12507,33691
27.13442,34946
27.14375,36208
27.15308,35258
27.16243,36943
27.17177,35300
27.18112,35330
27.19045,35324
27.19978,35191
27.20913,33261
27.21847,33974
27.22780,35840
27.23715,38144
27.24648,37210
27.25582,42199
27.26517,44146
27.27450,41466
27.28383,37138
27.29318,36386
27.30252,35725
27.31185,35768
27.32120,34992
27.33053,36113
27.33987,35264
27.34922,34282
27.35855,34696
27.36790,36933
27.37723,39052
27.38657,40034
27.39592,39354
27.40525,38788
27.41458,40396
27.42393,38767
27.43327,40231
27.44260,39805
27.45195,39233
27.46128,40290
27.47062,39166
27.47997,40201
27.48930,38765
27.49863,41439
27.50798,43070
27.51732,43229
27.52665,40656
27.53600,42489
27.54533,40865
27.55468,38974
27.56402,38029
27.57335,37554
27.58270,37165
27.59203,37965
27.60137,35677
27.61072,37736
27.62005,37553
27.62938,38365
27.63873,37625
27.64807,36680
27.65740,41628
27.66675,54854
27.67608,80069
27.68542,94257
27.69477,80850
27.70410,57866
27.71343,50794
27.72278,45931
27.73212,43329
27.74147,43242
27.75080,43101
27.76013,42558
27.76948,41585
27.77882,40711
27.78815,40645
27.79750,41321
27.80683,40005
27.81617,40469
27.82552,41000
27.83485,40204
27.84418,38695
27.85353,40380
27.86287,40465
27.87220,38289
27.88155,39453
27.89088,38132
27.90022,37740
27.90957,39143
27.91890,43668
27.92825,48938
27.93758,46532
27.94692,44765
27.95627,42642
27.96560,40759
27.97493,40958
27.98428,40196
27.99362,40360
28.00295,41032
28.01230,40379
28.02163,38399
28.03097,39126
28.04032,40062
28.04965,37814
28.05898,39658
28.06833,38865
28.07767,37607
28.08702,38816
28.09635,36957
28.10568,39564
28.11503,40608
28.12437,40565
28.13370,41309
28.14305,42838
28.15238,41374
28.16172,42807
28.17107,40527
28.18040,41081
28.18973,41783
28.19908,39761
28.20842,39939
28.21775,39615
28.22710,39740
28.23643,39566
28.24577,40240
28.25512,39346
28.26445,37027
28.27380,39989
28.28313,40060
28.29247,40587
28.30182,38699
28.31115,39298
28.32048,40220
28.32983,40565
28.33917,39116
28.34850,39055
28.35785,38027
28.36718,39701
28.37652,39284
28.38587,40345
28.39520,39223
28.40453,38685
28.41388,39830
28.42322,41418
28.43255,39807
28.44190,38984
28.45123,39622
28.46058,40240
28.46992,40916
28.47925,39554
28.48860,42295
28.49793,40227
28.50727,39896
28.51662,40053
28.52595,42618
28.53528,40920
28.54463,41350
28.55397,42700
28.56330,42120
28.57265,42588
28.58198,43460
28.59132,44627
28.60067,45709
28.61000,45927
28.61933,44513
28.62868,42976
28.63802,42270
28.64737,43905
28.65670,47253
28.66603,54953
28.67538,69870
28.68472,86634
28.69405,83531
28.70340,70760
28.71273,56307
28.72207,51548
28.73142,47815
28.74075,47353
28.75008,47128
28.75943,46297
28.76877,46760
28.77810,44612
28.78745,45736
28.79678,44606
28.80613,44037
28.81547,44294
28.82480,45647
28.83415,42748
28.84348,42309
28.85282,43699
28.86217,44104
28.87150,43144
28.88083,44357
28.89018,45076
28.89952,44799
28.90885,44199
28.91820,45084
28.92753,43165
28.93687,45932
28.94622,44113
28.95555,46371
28.96488,45823
28.97423,47840
28.98357,48657
28.99292,46276
29.00225,47607
29.01158,46173
29.02093,44389
29.03027,47222
29.03960,48423
29.04895,45180
29.05828,46623
29.06762,45085
29.07697,44266
29.08630,43884
29.09563,46873
29.10498,47672
29.11432,47293
29.12365,46365
29.13300,46834
29.14233,46820
29.15167,46698
29.16102,46612
29.17035,45962
29.17970,48442
29.18903,48350
29.19837,49521
29.20772,51114
29.21705,47939
29.22638,50785
29.23573,49628
29.24507,48313
29.25440,46644
29.26375,46787
29.27308,45086
29.28242,45526
29.29177,47987
29.30110,47444
29.31043,47557
29.31978,46144
29.32912,47142
29.33845,48562
29.34780,47336
29.35713,47059
29.36648,47573
29.37582,48219
29.38515,48032
29.39450,48573
29.40383,50769
29.41317,48857
29.42252,48453
29.43185,46932
29.44118,47533
29.45053,48526
29.45987,52435
29.46920,52184
29.47855,54691
29.48788,52958
29.49722,51734
29.50657,49529
29.51590,48110
29.52523,50193
29.53458,48912
29.54392,46479
29.55327,46930
29.56260,47761
29.57193,47449
29.58128,48211
29.59062,47251
29.59995,45598
29.60930,47043
29.61863,47136
29.62797,46865
29.63732,48397
29.64665,47846
29.65598,44693
29.66533,49354
29.67467,48256
29.68400,47789
29.69335,47409
29.70268,46939
29.71202,48999
29.72137,48354
29.73070,49717
29.74005,48708
29.74938,50602
29.75872,50271
29.76807,48300
29.77740,47973
29.78673,48720
29.79608,47638
29.80542,48517
29.81475,49986
29.82410,47696
29.83343,48323
29.84277,47892
29.85212,46271
29.86145,48496
29.87078,47593
29.88013,47258
29.88947,49091
29.89882,48593
29.90815,50388
29.91748,51734
29.92683,53602
29.93617,57252
29.94550,54347
29.95485,55476
29.96418,61803
29.97352,76293
29.98287,91542
29.99220,93167
30.00153,85385
30.01088,72302
30.02022,64771
30.02955,61719
30.03890,58562
30.04823,59555
30.05757,58389
30.06692,55632
30.07625,57537
30.08560,56332
30.09493,54459
30.10427,57075
30.11362,56644
30.12295,57060
30.13228,57400
30.14163,57903
30.15097,58101
30.16030,56687
30.16965,58201
30.17898,57823
30.18832,56656
30.19767,55603
30.20700,57323
30.21633,56502
30.22568,56979
30.23502,55334
30.24435,55235
30.25370,56620
30.26303,56443
30.27238,57486
30.28172,60147
30.29105,60549
30.30040,60074
30.30973,56303
30.31907,57948
30.32842,58145
30.33775,60872
30.34708,64583
30.35643,69056
30.36577,75846
30.37510,75709
30.38445,71331
30.39378,70882
30.40312,69390
30.41247,69587
30.42180,64641
30.43113,64978
30.44048,60751
30.44982,59902
30.45917,62049
30.46850,60756
30.47783,58929
30.48718,60175
30.49652,59610
30.50585,58521
30.51520,55977
30.52453,55770
30.53387,56928
30.54322,55155
30.55255,55552
30.56188,55886
30.57123,58438
30.58057,58207
30.58990,56262
30.59925,59135
30.60858,61261
30.61793,62611
30.62727,63014
30.63660,66019
30.64595,71217
30.65528,71141
30.66462,68824
30.67397,68459
30.68330,67499
30.69263,65698
30.70198,66451
30.71132,61842
30.72065,63022
30.73000,63993
30.73933,61979
30.74867,60574
30.75802,60246
30.76735,59792
30.77668,59378
30.78603,57734
30.79537,57522
30.80472,60784
30.81405,60670
30.82338,60833
30.83273,60781
30.84207,58556
30.85140,61671
30.86075,61911
30.87008,62532
30.87942,61405
30.88877,63014
30.89810,63868
30.90743,66834
30.91678,65583
30.92612,65935
30.93545,66793
30.94480,65140
30.95413,66059
30.96347,64077
30.97282,64691
30.98215,65522
30.99150,64760
31.00083,63391
31.01017,64591
31.01952,64212
31.02885,61916
31.03818,62909
31.04753,63286
31.05687,61671
31.06620,63184
31.07555,61795
31.08488,63920
31.09422,62289
31.10357,63922
31.11290,63178
31.12223,65264
31.13158,65417
31.14092,64588
31.15025,63271
31.15960,63823
31.16893,63530
31.17828,65294
31.18762,64386
31.19695,66584
31.20630,67018
31.21563,64565
31.22497,63331
31.23432,62357
31.24365,64070
31.25298,63440
31.26233,63339
31.27167,63381
31.28100,63597
31.29035,65451
31.29968,63846
31.30902,65002
31.31837,64894
31.32770,62823
31.33703,64280
31.34638,62261
31.35572,63380
31.36507,61356
