D:\数据\20220217\LCLN-ZS1E #000390.D Thu Feb 17 20:31:03 2022
Start of data points
0.09767,22406
0.10702,22252
0.11635,22324
0.12568,22373
0.13503,23086
0.14437,22667
0.15370,22530
0.16305,22865
0.17238,22187
0.18172,21617
0.19107,21851
0.20040,20716
0.20975,20679
0.21908,20843
0.22842,19852
0.23777,20160
0.24710,20850
0.25643,20248
0.26578,19637
0.27512,19819
0.28445,19829
0.29380,19921
0.30313,19968
0.31247,20369
0.32182,19292
0.33115,19239
0.34048,18976
0.34983,19868
0.35917,19033
0.36850,19824
0.37785,19159
0.38718,19575
0.39653,19127
0.40587,18507
0.41520,19050
0.42455,18457
0.43388,15395
0.44322,14875
0.45257,12864
0.46190,9423
0.47123,5762
0.48058,4802
0.48992,5339
0.49925,5130
0.50860,5134
0.51793,5296
0.52727,4371
0.53662,4603
0.54595,5394
0.55528,4995
0.56463,4058
0.57397,5521
0.58332,4701
0.59265,4666
0.60198,3880
0.61133,4919
0.62067,4813
0.63000,4961
0.63935,4394
0.64868,4090
0.65802,4634
0.66737,4949
0.67670,4139
0.68603,4413
0.69538,3762
0.70472,4401
0.71405,4164
0.72340,4640
0.73273,4370
0.74208,4808
0.75142,4185
0.76075,4226
0.77010,4456
0.77943,4015
0.78877,4458
0.79812,3706
0.80745,4528
0.81678,4746
0.82613,3991
0.83547,4137
0.84480,4414
0.85415,4387
0.86348,4378
0.87282,4758
0.88217,4591
0.89150,4147
0.90083,4331
0.91018,3952
0.91952,4236
0.92887,4383
0.93820,4201
0.94753,4098
0.95688,3938
0.96622,4181
0.97555,4357
0.98490,4668
0.99423,4543
1.00357,3915
1.01292,3767
1.02225,4481
1.03158,3698
1.04093,4019
1.05027,4269
1.05960,3500
1.06895,4186
1.07828,3718
1.08762,4166
1.09697,4223
1.10630,4021
1.11565,4552
1.12498,4133
1.13432,4056
1.14367,4657
1.15300,4450
1.16233,4416
1.17168,4645
1.18102,4357
1.19035,3797
1.19970,3932
1.20903,3909
1.21837,4229
1.22772,4117
1.23705,4111
1.24638,4176
1.25573,4567
1.26507,4217
1.27440,3830
1.28375,4536
1.29308,3707
1.30243,4413
1.31177,4485
1.32110,4329
1.33045,3869
1.33978,3962
1.34912,4160
1.35847,4042
1.36780,3868
1.37713,4126
1.38648,3983
1.39582,3898
1.40515,3582
1.41450,3812
1.42383,3416
1.43317,3728
1.44252,3659
1.45185,4224
1.46120,3555
1.47053,3695
1.47987,3475
1.48922,3761
1.49855,3575
1.50788,3361
1.51723,3569
1.52657,3449
1.53590,3449
1.54525,3318
1.55458,3919
1.56392,3623
1.57327,3694
1.58260,3461
1.59193,3619
1.60128,4657
1.61062,8557
1.61995,13814
1.62930,18840
1.63863,21763
1.64798,27728
1.65732,36254
1.66665,39079
1.67600,38664
1.68533,36479
1.69467,30550
1.70402,23708
1.71335,18275
1.72268,15897
1.73203,17154
1.74137,18127
1.75070,20101
1.76005,21190
1.76938,22130
1.77872,23900
1.78807,23532
1.79740,24638
1.80673,24603
1.81608,25423
1.82542,24367
1.83477,24829
1.84410,24535
1.85343,24061
1.86278,24961
1.87212,32382
1.88145,56715
1.89080,108881
1.90013,165300
1.90947,200711
1.91882,222671
1.92815,266499
1.93748,384647
1.94683,599672
1.95617,794257
1.96550,815002
1.97485,685683
1.98418,520699
1.99352,404095
2.00287,348759
2.01220,323699
2.02155,299322
2.03088,256095
2.04022,208729
2.04957,155293
2.05890,117190
2.06823,94575
2.07758,95078
2.08692,271302
2.09625,690683
2.10560,683043
2.11493,387223
2.12427,228173
2.13362,288204
2.14295,515002
2.15228,594111
2.16163,464456
2.17097,298316
2.18030,194471
2.18965,187667
2.19898,225654
2.20833,188139
2.21767,129079
2.22700,102805
2.23635,137206
2.24568,250870
2.25502,938240
2.26437,2305529
2.27370,2585564
2.28303,1912970
2.29238,1182493
2.30172,686897
2.31105,806092
2.32040,2008148
2.32973,2672018
2.33907,1763742
2.34842,840119
2.35775,385583
2.36710,248318
2.37643,251637
2.38577,238075
2.39512,187339
2.40445,139769
2.41378,121256
2.42313,118840
2.43247,113392
2.44180,91089
2.45115,71449
2.46048,67238
2.46982,74556
2.47917,87300
2.48850,82319
2.49783,68798
2.50718,58782
2.51652,53377
2.52585,50307
2.53520,48555
2.54453,50999
2.55388,62332
2.56322,162719
2.57255,334346
2.58190,323569
2.59123,230326
2.60057,158819
2.60992,134209
2.61925,165319
2.62858,194058
2.63793,163161
2.64727,129340
2.65660,115156
2.66595,94235
2.67528,71541
2.68462,56543
2.69397,49305
2.70330,46712
2.71263,58616
2.72198,101248
2.73132,147825
2.74067,173400
2.75000,187066
2.75933,215624
2.76868,258923
2.77802,338436
2.78735,331636
2.79670,212397
2.80603,152301
2.81537,115558
2.82472,103361
2.83405,89954
2.84338,76060
2.85273,89190
2.86207,159227
2.87140,202719
2.88075,164947
2.89008,114154
2.89942,83032
2.90877,69649
2.91810,63861
2.92745,60740
2.93678,55702
2.94612,50065
2.95547,47694
2.96480,44850
2.97413,43706
2.98348,44841
2.99282,46109
3.00215,53741
3.01150,64793
3.02083,79488
3.03017,152437
3.03952,224064
3.04885,190259
3.05818,138891
3.06753,119993
3.07687,116480
3.08622,99762
3.09555,75011
3.10488,56109
3.11423,45456
3.12357,42202
3.13290,42514
3.14225,48628
3.15158,57303
3.16092,71460
3.17027,74647
3.17960,65727
3.18893,53639
3.19828,48314
3.20762,44878
3.21695,42829
3.22630,38670
3.23563,36456
3.24497,36988
3.25432,39010
3.26365,40338
3.27300,39533
3.28233,37046
3.29167,37417
3.30102,40715
3.31035,44126
3.31968,41714
3.32903,38327
3.33837,38969
3.34770,37817
3.35705,36824
3.36638,36205
3.37572,37527
3.38507,36095
3.39440,35062
3.40373,33887
3.41308,39557
3.42242,47573
3.43175,57494
3.44110,61776
3.45043,60847
3.45978,53407
3.46912,47537
3.47845,44140
3.48780,45105
3.49713,44005
3.50647,41590
3.51582,38147
3.52515,36830
3.53448,35836
3.54383,41989
3.55317,78293
3.56250,197687
3.57185,349739
3.58118,359678
3.59052,247460
3.59987,177410
3.60920,153218
3.61853,120018
3.62788,87078
3.63722,72822
3.64657,63945
3.65590,54141
3.66523,49275
3.67458,48377
3.68392,47797
3.69325,43454
3.70260,40538
3.71193,46932
3.72127,69190
3.73062,91343
3.73995,89574
3.74928,63336
3.75863,47502
3.76797,38864
3.77730,35563
3.78665,35905
3.79598,41847
3.80532,44904
3.81467,54005
3.82400,60715
3.83335,58883
3.84268,52243
3.85202,52083
3.86137,51537
3.87070,47808
3.88003,44899
3.88938,49416
3.89872,55055
3.90805,60719
3.91740,62509
3.92673,66746
3.93607,76006
3.94542,90084
3.95475,99594
3.96408,86029
3.97343,75031
3.98277,64565
3.99210,54586
4.00145,49431
4.01078,47293
4.02013,42101
4.02947,42809
4.03880,47114
4.04815,53879
4.05748,55497
4.06682,60115
4.07617,76782
4.08550,103037
4.09483,125698
4.10418,121498
4.11352,90882
4.12285,63384
4.13220,47876
4.14153,43360
4.15087,42085
4.16022,42169
4.16955,40959
4.17890,37102
4.18823,35408
4.19757,36608
4.20692,40847
4.21625,42977
4.22558,42953
4.23493,38063
4.24427,39263
4.25360,48553
4.26295,52633
4.27228,49039
4.28162,47299
4.29097,47067
4.30030,41227
4.30963,39901
4.31898,43109
4.32832,50824
4.33765,51818
4.34700,48602
4.35633,47014
4.36568,53009
4.37502,70830
4.38435,74386
4.39370,63066
4.40303,48112
4.41237,39153
4.42172,36423
4.43105,33803
4.44038,33997
4.44973,33767
4.45907,36748
4.46840,44592
4.47775,60230
4.48708,74164
4.49642,71613
4.50577,56589
4.51510,45027
4.52443,41787
4.53378,41857
4.54312,41575
4.55247,37620
4.56180,37162
4.57113,35236
4.58048,36030
4.58982,35335
4.59915,36060
4.60850,36694
4.61783,36240
4.62717,36550
4.63652,45234
4.64585,56126
4.65518,56247
4.66453,48779
4.67387,42771
4.68320,40396
4.69255,38333
4.70188,38843
4.71122,46262
4.72057,51075
4.72990,47730
4.73925,42193
4.74858,36873
4.75792,35342
4.76727,35781
4.77660,40828
4.78593,42907
4.79528,40807
4.80462,40791
4.81395,42120
4.82330,43814
4.83263,43541
4.84197,38711
4.85132,37425
4.86065,39139
4.86998,48490
4.87933,59635
4.88867,59193
4.89802,49070
4.90735,42459
4.91668,37844
4.92603,39578
4.93537,39320
4.94470,41478
4.95405,40867
4.96338,37841
4.97272,35614
4.98207,35098
4.99140,39486
5.00073,44592
5.01008,47528
5.01942,45178
5.02875,45374
5.03810,45628
5.04743,42451
5.05677,40522
5.06612,38461
5.07545,39349
5.08480,41328
5.09413,43047
5.10347,44448
5.11282,39196
5.12215,38342
5.13148,39323
5.14083,41746
5.15017,43789
5.15950,41914
5.16885,47548
5.17818,70970
5.18752,83458
5.19687,71343
5.20620,50571
5.21553,39245
5.22488,36550
5.23422,39078
5.24355,44637
5.25290,46874
5.26223,51848
5.27158,120857
5.28092,353447
5.29025,721896
5.29960,825071
5.30893,547993
5.31827,251064
5.32762,111198
5.33695,67767
5.34628,50292
5.35563,45455
5.36497,39678
5.37430,40772
5.38365,44242
5.39298,52398
5.40232,57763
5.41167,52710
5.42100,47586
5.43033,41965
5.43968,39099
5.44902,38077
5.45837,43381
5.46770,47414
5.47703,45944
5.48638,44622
5.49572,43174
5.50505,42916
5.51440,41858
5.52373,46256
5.53307,56581
5.54242,60841
5.55175,59110
5.56108,52466
5.57043,46931
5.57977,41610
5.58910,39687
5.59845,36750
5.60778,35652
5.61712,36216
5.62647,35335
5.63580,35173
5.64515,37109
5.65448,36930
5.66382,40399
5.67317,42856
5.68250,42225
5.69183,40848
5.70118,47192
5.71052,68743
5.71985,96424
5.72920,94994
5.73853,73948
5.74787,73912
5.75722,90570
5.76655,83777
5.77588,62308
5.78523,43872
5.79457,37291
5.80392,35830
5.81325,39114
5.82258,50537
5.83193,61776
5.84127,56976
5.85060,45859
5.85995,41055
5.86928,38965
5.87862,38659
5.88797,40163
5.89730,40592
5.90663,51344
5.91598,81977
5.92532,133702
5.93465,169128
5.94400,166639
5.95333,133839
5.96267,90030
5.97202,53271
5.98135,39512
5.99070,36115
6.00003,35991
6.00937,37454
6.01872,37093
6.02805,38832
6.03738,36203
6.04673,35944
6.05607,32285
6.06540,30680
6.07475,27990
6.08408,24856
6.09342,22637
6.10277,21957
6.11210,20405
6.12143,21874
6.13078,27301
6.14012,33578
6.14945,31579
6.15880,23713
6.16813,20662
6.17748,18087
6.18682,18496
6.19615,17693
6.20550,17468
6.21483,18273
6.22417,20006
6.23352,22741
6.24285,24696
6.25218,28664
6.26153,49943
6.27087,71288
6.28020,59850
6.28955,36207
6.29888,22808
6.30822,17265
6.31757,15036
6.32690,14051
6.33623,14616
6.34558,14886
6.35492,14725
6.36427,15016
6.37360,17773
6.38293,24192
6.39228,56700
6.40162,211603
6.41095,566389
6.42030,819501
6.42963,621065
6.43897,270891
6.44832,78926
6.45765,34965
6.46698,23061
6.47633,22136
6.48567,20159
6.49500,18089
6.50435,17373
6.51368,18611
6.52303,19312
6.53237,18202
6.54170,17397
6.55105,15415
6.56038,14901
6.56972,15442
6.57907,16563
6.58840,18632
6.59773,17793
6.60708,20624
6.61642,20067
6.62575,20581
6.63510,20989
6.64443,22384
6.65377,23059
6.66312,23856
6.67245,26883
6.68178,26479
6.69113,27107
6.70047,27094
6.70982,25776
6.71915,20940
6.72848,18712
6.73783,16432
6.74717,16315
6.75650,16221
6.76585,18584
6.77518,20486
6.78452,23811
6.79387,28879
6.80320,35631
6.81253,31945
6.82188,25495
6.83122,22077
6.84055,22966
6.84990,23077
6.85923,19892
6.86857,17086
6.87792,17745
6.88725,19583
6.89660,24000
6.90593,26364
6.91527,27158
6.92462,22376
6.93395,20186
6.94328,17286
6.95263,19241
6.96197,21481
6.97130,20232
6.98065,18559
6.98998,18028
6.99932,19457
7.00867,22955
7.01800,26113
7.02733,20054
7.03668,16918
7.04602,14024
7.05535,13642
7.06470,13936
7.07403,16154
7.08338,15920
7.09272,15739
7.10205,20628
7.11140,23356
7.12073,20874
7.13007,19746
7.13942,18635
7.14875,16467
7.15808,15440
7.16743,15253
7.17677,14049
7.18610,15979
7.19545,18269
7.20478,17445
7.21412,18768
7.22347,29903
7.23280,68545
7.24213,125002
7.25148,137652
7.26082,87691
7.27017,45841
7.27950,30341
7.28883,24592
7.29818,24658
7.30752,20529
7.31685,17668
7.32620,14790
7.33553,14868
7.34487,15205
7.35422,15219
7.36355,14407
7.37288,14925
7.38223,25165
7.39157,67278
7.40090,176130
7.41025,293029
7.41958,314656
7.42893,214108
7.43827,111694
7.44760,51129
7.45695,34839
7.46628,27241
7.47562,23122
7.48497,20985
7.49430,17604
7.50363,16815
7.51298,15497
7.52232,15834
7.53165,15779
7.54100,15515
7.55033,17733
7.55967,21149
7.56902,28000
7.57835,37984
7.58768,38892
7.59703,30315
7.60637,26814
7.61572,26288
7.62505,26643
7.63438,24714
7.64373,21811
7.65307,18955
7.66240,18530
7.67175,19475
7.68108,19863
7.69042,19730
7.69977,19987
7.70910,20138
7.71843,19989
7.72778,20014
7.73712,23264
7.74645,23550
7.75580,23073
7.76513,21532
7.77447,24407
7.78382,26167
7.79315,24411
7.80250,19716
7.81183,18060
7.82117,16570
7.83052,15698
7.83985,18270
7.84918,31064
7.85853,64242
7.86787,118761
7.87720,137268
7.88655,96669
7.89588,53938
7.90522,57707
7.91457,107979
7.92390,159250
7.93323,157713
7.94258,118977
7.95192,84800
7.96125,60283
7.97060,49344
7.97993,50130
7.98928,48304
7.99862,36739
8.00795,27021
8.01730,24613
8.02663,25172
8.03597,32372
8.04532,43059
8.05465,42759
8.06398,33224
8.07333,25828
8.08267,38087
8.09200,59724
8.10135,63285
8.11068,44631
8.12002,25410
8.12937,18890
8.13870,17842
8.14805,15845
8.15738,16503
8.16672,16493
8.17607,17757
8.18540,19435
8.19473,21718
8.20408,23731
8.21342,23879
8.22275,22213
8.23210,21010
8.24143,20458
8.25077,18821
8.26012,20574
8.26945,19162
8.27878,19254
8.28813,18498
8.29747,18732
8.30680,18889
8.31615,17581
8.32548,16739
8.33483,16646
8.34417,16205
8.35350,17238
8.36285,19534
8.37218,22738
8.38152,23670
8.39087,24231
8.40020,25445
8.40953,27767
8.41888,23619
8.42822,25321
8.43755,23787
8.44690,23829
8.45623,21960
8.46557,22395
8.47492,21700
8.48425,21983
8.49358,20607
8.50293,27682
8.51227,32279
8.52162,32571
8.53095,29947
8.54028,28958
8.54963,28264
8.55897,27429
8.56830,24832
8.57765,23559
8.58698,22416
8.59632,22456
8.60567,25127
8.61500,24664
8.62433,23545
8.63368,20420
8.64302,20448
8.65235,19300
8.66170,20437
8.67103,22608
8.68037,20695
8.68972,23014
8.69905,23556
8.70840,24152
8.71773,21911
8.72707,20712
8.73642,23309
8.74575,30975
8.75508,39536
8.76443,39365
8.77377,33914
8.78310,35502
8.79245,76883
8.80178,211460
8.81112,372319
8.82047,371514
8.82980,218232
8.83913,83010
8.84848,32545
8.85782,24528
8.86715,22818
8.87650,24462
8.88583,25639
8.89518,27097
8.90452,25708
8.91385,23775
8.92320,25150
8.93253,25389
8.94187,26387
8.95122,25836
8.96055,27009
8.96988,26504
8.97923,24387
8.98857,23512
8.99790,25962
9.00725,25546
9.01658,24310
9.02592,23314
9.03527,22809
9.04460,24818
9.05393,26510
9.06328,27439
9.07262,29595
9.08197,33555
9.09130,38097
9.10063,37340
9.10998,30726
9.11932,26151
9.12865,29937
9.13800,36602
9.14733,35019
9.15667,28726
9.16602,24588
9.17535,21752
9.18468,19966
9.19403,21963
9.20337,24298
9.21270,30854
9.22205,53633
9.23138,79818
9.24073,95719
9.25007,77576
9.25940,52375
9.26875,37158
9.27808,27739
9.28742,23972
9.29677,22767
9.30610,21227
9.31543,28128
9.32478,45515
9.33412,63494
9.34345,62004
9.35280,71184
9.36213,139506
9.37147,222370
9.38082,224139
9.39015,149577
9.39948,91892
9.40883,60233
9.41817,49604
9.42752,49383
9.43685,42681
9.44618,32296
9.45553,24176
9.46487,21182
9.47420,22554
9.48355,24964
9.49288,29544
9.50222,32301
9.51157,29041
9.52090,26246
9.53023,30078
9.53958,36768
9.54892,45933
9.55825,59503
9.56760,76039
9.57693,66881
9.58627,48072
9.59562,45481
9.60495,51034
9.61430,48147
9.62363,36032
9.63297,29386
9.64232,27843
9.65165,28750
9.66098,28864
9.67033,27986
9.67967,25991
9.68900,28832
9.69835,29395
9.70768,30669
9.71702,54675
9.72637,255605
9.73570,968804
9.74503,1979686
9.75438,2236093
9.76372,1468512
9.77305,619127
9.78240,251576
9.79173,142663
9.80108,103921
9.81042,85686
9.81975,79468
9.82910,85028
9.83843,95071
9.84777,103704
9.85712,92772
9.86645,74967
9.87578,77792
9.88513,96788
9.89447,110233
9.90380,120339
9.91315,156643
9.92248,179533
9.93182,141036
9.94117,81004
9.95050,49998
9.95985,39279
9.96918,47428
9.97852,82493
9.98787,145645
9.99720,169854
10.00653,137242
10.01588,120515
10.02522,135654
10.03455,128519
10.04390,88183
10.05323,58197
10.06257,55823
10.07192,67971
10.08125,71580
10.09058,57569
10.09993,44864
10.10927,58273
10.11860,154252
10.12795,324923
10.13728,411294
10.14663,595910
10.15597,1743126
10.16530,3851344
10.17465,4344865
10.18398,2333332
10.19332,612335
10.20267,115914
10.21200,46973
10.22133,49633
10.23068,79296
10.24002,115913
10.24935,116488
10.25870,77227
10.26803,45663
10.27737,35900
10.28672,38030
10.29605,42648
10.30538,43773
10.31473,38757
10.32407,33229
10.33342,28512
10.34275,27226
10.35208,26764
10.36143,28653
10.37077,26560
10.38010,25776
10.38945,25860
10.39878,24764
10.40812,23394
10.41747,25920
10.42680,27278
10.43613,29282
10.44548,30820
10.45482,34156
10.46415,37310
10.47350,35870
10.48283,27937
10.49217,24779
10.50152,23175
10.51085,22955
10.52020,23962
10.52953,25010
10.53887,26417
10.54822,25318
10.55755,24426
10.56688,24243
10.57623,26137
10.58557,25966
10.59490,26894
10.60425,24749
10.61358,25014
10.62292,25788
10.63227,29359
10.64160,30980
10.65093,27118
10.66028,25662
10.66962,29573
10.67895,33614
10.68830,38345
10.69763,35309
10.70698,39059
10.71632,51460
10.72565,57047
10.73500,53403
10.74433,89505
10.75367,189401
10.76302,244793
10.77235,187169
10.78168,144332
10.79103,288147
10.80037,657462
10.80970,847552
10.81905,593820
10.82838,243824
10.83772,79958
10.84707,63215
10.85640,186820
10.86575,495448
10.87508,748200
10.88442,633608
10.89377,308496
10.90310,115394
10.91243,48045
10.92178,40564
10.93112,42981
10.94045,39262
10.94980,33776
10.95913,31832
10.96847,32524
10.97782,29894
10.98715,28039
10.99648,28428
11.00583,30560
11.01517,31236
11.02450,27173
11.03385,26090
11.04318,24016
11.05253,24370
11.06187,21550
11.07120,21598
11.08055,21260
11.08988,25137
11.09922,33775
11.10857,47563
11.11790,48705
11.12723,40428
11.13658,34279
11.14592,29906
11.15525,27889
11.16460,28215
11.17393,26776
11.18327,25462
11.19262,24159
11.20195,25122
11.21128,22273
11.22063,24300
11.22997,26241
11.23932,26704
11.24865,26981
11.25798,30440
11.26733,33377
11.27667,30601
11.28600,26825
11.29535,25400
11.30468,26973
11.31402,32728
11.32337,36740
11.33270,36255
11.34203,38543
11.35138,46109
11.36072,50665
11.37005,44428
11.37940,36162
11.38873,32228
11.39807,33245
11.40742,40710
11.41675,42108
11.42610,36499
11.43543,32263
11.44477,29542
11.45412,28124
11.46345,36982
11.47278,49346
11.48213,48783
11.49147,36901
11.50080,28377
11.51015,25911
11.51948,24911
11.52882,27181
11.53817,25926
11.54750,34308
11.55683,64596
11.56618,123487
11.57552,164554
11.58487,143789
11.59420,100981
11.60353,72161
11.61288,55093
11.62222,47696
11.63155,44407
11.64090,41219
11.65023,40345
11.65957,42134
11.66892,42405
11.67825,37337
11.68758,32584
11.69693,30221
11.70627,31034
11.71560,31230
11.72495,31946
11.73428,27605
11.74362,27261
11.75297,27884
11.76230,29383
11.77165,30196
11.78098,32610
11.79032,36082
11.79967,35289
11.80900,31588
11.81833,29208
11.82768,31052
11.83702,32379
11.84635,32555
11.85570,30155
11.86503,31662
11.87437,31515
11.88372,31900
11.89305,29700
11.90238,28604
11.91173,26783
11.92107,27937
11.93040,33053
11.93975,45609
11.94908,50615
11.95843,42453
11.96777,32922
11.97710,26978
11.98645,26571
11.99578,30427
12.00512,45545
12.01447,62907
12.02380,69116
12.03313,52662
12.04248,39242
12.05182,31874
12.06115,27314
12.07050,24554
12.07983,25960
12.08917,26236
12.09852,26026
12.10785,27105
12.11718,26427
12.12653,27235
12.13587,28882
12.14522,27993
12.15455,37044
12.16388,80526
12.17323,188030
12.18257,264508
12.19190,193246
12.20125,84973
12.21058,39347
12.21992,34248
12.22927,35115
12.23860,37328
12.24793,35313
12.25728,56563
12.26662,159421
12.27595,343565
12.28530,405457
12.29463,253380
12.30397,108288
12.31332,50862
12.32265,37800
12.33200,35488
12.34133,35774
12.35067,37673
12.36002,34787
12.36935,32510
12.37868,31897
12.38803,33035
12.39737,34167
12.40670,33210
12.41605,31687
12.42538,30272
12.43472,30034
12.44407,28319
12.45340,28318
12.46273,30372
12.47208,32328
12.48142,33794
12.49075,36374
12.50010,37105
12.50943,35873
12.51878,36075
12.52812,38236
12.53745,42988
12.54680,40584
12.55613,39979
12.56547,45230
12.57482,48593
12.58415,42792
12.59348,33680
12.60283,30814
12.61217,29280
12.62150,31622
12.63085,37273
12.64018,44086
12.64952,50195
12.65887,46933
12.66820,43237
12.67755,36706
12.68688,29443
12.69622,25854
12.70557,26206
12.71490,28133
12.72423,29220
12.73358,31177
12.74292,34218
12.75225,36815
12.76160,36430
12.77093,32419
12.78027,28663
12.78962,29416
12.79895,30026
12.80828,31067
12.81763,30836
12.82697,29529
12.83630,29195
12.84565,27213
12.85498,26453
12.86433,27662
12.87367,28583
12.88300,26839
12.89235,29978
12.90168,32337
12.91102,31614
12.92037,28934
12.92970,28222
12.93903,27032
12.94838,27395
12.95772,28607
12.96705,28957
12.97640,27000
12.98573,28761
12.99507,27459
13.00442,28332
13.01375,27897
13.02308,35435
13.03243,44305
13.04177,47049
13.05112,39161
13.06045,32378
13.06978,33527
13.07913,34683
13.08847,35336
13.09780,34449
13.10715,32942
13.11648,30564
13.12582,33469
13.13517,38656
13.14450,41183
13.15383,39294
13.16318,40277
13.17252,41619
13.18185,42330
13.19120,65678
13.20053,160626
13.20987,327699
13.21922,391276
13.22855,268154
13.23790,135899
13.24723,112243
13.25657,109353
13.26592,84670
13.27525,60904
13.28458,47754
13.29393,40769
13.30327,38402
13.31260,37300
13.32195,42228
13.33128,42875
13.34062,44841
13.34997,43766
13.35930,41294
13.36863,34759
13.37798,33011
13.38732,35393
13.39667,39082
13.40600,42348
13.41533,38517
13.42468,46146
13.43402,64534
13.44335,75018
13.45270,65258
13.46203,49911
13.47137,44367
13.48072,45782
13.49005,40700
13.49938,35571
13.50873,44701
13.51807,83826
13.52740,147247
13.53675,158695
13.54608,103766
13.55542,52995
13.56477,35200
13.57410,30065
13.58345,27223
13.59278,26042
13.60212,25662
13.61147,26191
13.62080,27862
13.63013,36642
13.63948,50658
13.64882,63512
13.65815,56077
13.66750,43526
13.67683,33346
13.68617,27034
13.69552,26066
13.70485,24496
13.71418,24235
13.72353,23625
13.73287,25006
13.74220,23843
13.75155,25298
13.76088,25245
13.77023,26888
13.77957,26818
13.78890,31095
13.79825,38554
13.80758,44654
13.81692,45386
13.82627,35348
13.83560,28997
13.84493,30093
13.85428,33997
13.86362,35767
13.87295,36343
13.88230,41732
13.89163,63117
13.90097,118784
13.91032,256480
13.91965,413936
13.92898,373945
13.93833,188116
13.94767,75394
13.95702,49503
13.96635,43869
13.97568,34902
13.98503,31873
13.99437,33880
14.00370,35457
14.01305,34664
14.02238,32492
14.03172,37623
14.04107,108208
14.05040,699334
14.05973,3056122
14.06908,7331256
14.07842,1.042541E+07
14.08775,7458978
14.09710,2336454
14.10643,344776
14.11577,68641
14.12512,42171
14.13445,39555
14.14380,43380
14.15313,49281
14.16247,56378
14.17182,65007
14.18115,99474
14.19048,182032
14.19983,234814
14.20917,175994
14.21850,82338
14.22785,42063
14.23718,30050
14.24652,26342
14.25587,27276
14.26520,28429
14.27453,30092
14.28388,29928
14.29322,29011
14.30257,28515
14.31190,31211
14.32123,40400
14.33058,48419
14.33992,52677
14.34925,46345
14.35860,36037
14.36793,30839
14.37727,27889
14.38662,27594
14.39595,27041
14.40528,26671
14.41463,25172
14.42397,25098
14.43330,27225
14.44265,29120
14.45198,36855
14.46132,45380
14.47067,47547
14.48000,43401
14.48935,34292
14.49868,29290
14.50802,26324
14.51737,24877
14.52670,24639
14.53603,25676
14.54538,27997
14.55472,30252
14.56405,32274
14.57340,30396
14.58273,27191
14.59207,25363
14.60142,26101
14.61075,25128
14.62008,26913
14.62943,32402
14.63877,41850
14.64810,56736
14.65745,59657
14.66678,51555
14.67613,38453
14.68547,33201
14.69480,29935
14.70415,27940
14.71348,27845
14.72282,26292
14.73217,29378
14.74150,29774
14.75083,30400
14.76018,32326
14.76952,36152
14.77885,36905
14.78820,34670
14.79753,30884
14.80687,27782
14.81622,28932
14.82555,28963
14.83488,27812
14.84423,27863
14.85357,29942
14.86292,39256
14.87225,49688
14.88158,52795
14.89093,43167
14.90027,34781
14.90960,30722
14.91895,34030
14.92828,36329
14.93762,36078
14.94697,31245
14.95630,29515
14.96563,30947
14.97498,31608
14.98432,30110
14.99365,29576
15.00300,32933
15.01233,36607
15.02168,34391
15.03102,29695
15.04035,31805
15.04970,34751
15.05903,34539
15.06837,33984
15.07772,33317
15.08705,29145
15.09638,27770
15.10573,26722
15.11507,29730
15.12440,33792
15.13375,40596
15.14308,37127
15.15242,32245
15.16177,29130
15.17110,27017
15.18043,27206
15.18978,35565
15.19912,48402
15.20847,69387
15.21780,87037
15.22713,78447
15.23648,60657
15.24582,43759
15.25515,36600
15.26450,31897
15.27383,30297
15.28317,29266
15.29252,29712
15.30185,29977
15.31118,31371
15.32053,30058
15.32987,34703
15.33920,36088
15.34855,34501
15.35788,33510
15.36722,37540
15.37657,37141
15.38590,35219
15.39525,28378
15.40458,27319
15.41392,27783
15.42327,33006
15.43260,32879
15.44193,33255
15.45128,30000
15.46062,26116
15.46995,27233
15.47930,31776
15.48863,35832
15.49797,38915
15.50732,45170
15.51665,55162
15.52598,63172
15.53533,56172
15.54467,43366
15.55400,30865
15.56335,28614
15.57268,28526
15.58203,29447
15.59137,29299
15.60070,31892
15.61005,33653
15.61938,32956
15.62872,37159
15.63807,38353
15.64740,39662
15.65673,39789
15.66608,42313
15.67542,39237
15.68475,35277
15.69410,42558
15.70343,55628
15.71277,59972
15.72212,48959
15.73145,37691
15.74078,35338
15.75013,44827
15.75947,50171
15.76882,46782
15.77815,41085
15.78748,35802
15.79683,34978
15.80617,54105
15.81550,113008
15.82485,214227
15.83418,305973
15.84352,338532
15.85287,261455
15.86220,142240
15.87153,72203
15.88088,54117
15.89022,56510
15.89955,59780
15.90890,58129
15.91823,46353
15.92757,42961
15.93692,36032
15.94625,33406
15.95560,32919
15.96493,35928
15.97427,48602
15.98362,65685
15.99295,80999
16.00228,76206
16.01163,57746
16.02097,41976
16.03030,34745
16.03965,34056
16.04898,35105
16.05832,35996
16.06767,35908
16.07700,35070
16.08633,32929
16.09568,33763
16.10502,35576
16.11437,42883
16.12370,47232
16.13303,46141
16.14238,40536
16.15172,36657
16.16105,35497
16.17040,36697
16.17973,35657
16.18907,34135
16.19842,37190
16.20775,43028
16.21708,47025
16.22643,48098
16.23577,47089
16.24510,41615
16.25445,42247
16.26378,43029
16.27312,49860
16.28247,96357
16.29180,189894
16.30115,270196
16.31048,236817
16.31982,145524
16.32917,81586
16.33850,49235
16.34783,37774
16.35718,29984
16.36652,27646
16.37585,26356
16.38520,27246
16.39453,28595
16.40387,29840
16.41322,32249
16.42255,32454
16.43188,32729
16.44123,33526
16.45057,38140
16.45990,42072
16.46925,41371
16.47858,38214
16.48793,38720
16.49727,39472
16.50660,37038
16.51595,40821
16.52528,40422
16.53462,36958
16.54397,35781
16.55330,33343
16.56263,32813
16.57198,35101
16.58132,36263
16.59065,34525
16.60000,33214
16.60933,29897
16.61867,32235
16.62802,39262
16.63735,42128
16.64668,44204
16.65603,42717
16.66537,38260
16.67472,34698
16.68405,40079
16.69338,49682
16.70273,54649
16.71207,46077
16.72140,37878
16.73075,37727
16.74008,63247
16.74942,107652
16.75877,122930
16.76810,87261
16.77743,48740
16.78678,33962
16.79612,33467
16.80545,34752
16.81480,36686
16.82413,42550
16.83348,48119
16.84282,45422
16.85215,41843
16.86150,35079
16.87083,31461
16.88017,31320
16.88952,30436
16.89885,34435
16.90818,43804
16.91753,53474
16.92687,49908
16.93620,45655
16.94555,47644
16.95488,55101
16.96422,57329
16.97357,57648
16.98290,47786
16.99223,37515
17.00158,33188
17.01092,33555
17.02027,47638
17.02960,77773
17.03893,101292
17.04828,83190
17.05762,54854
17.06695,41888
17.07630,39333
17.08563,36629
17.09497,36248
17.10432,34161
17.11365,33552
17.12298,35266
17.13233,43054
17.14167,48647
17.15100,42895
17.16035,40662
17.16968,38374
17.17902,38364
17.18837,36407
17.19770,33390
17.20705,29240
17.21638,28480
17.22572,28317
17.23507,30695
17.24440,29562
17.25373,31464
17.26308,33983
17.27242,36489
17.28175,41392
17.29110,44822
17.30043,40757
17.30977,38153
17.31912,39833
17.32845,42005
17.33778,39745
17.34713,35300
17.35647,32667
17.36580,41753
17.37515,85322
17.38448,183395
17.39383,223570
17.40317,161654
17.41250,83794
17.42185,53259
17.43118,43011
17.44052,40158
17.44987,40614
17.45920,39544
17.46853,38105
17.47788,40839
17.48722,107683
17.49655,519283
17.50590,1735019
17.51523,3197764
17.52457,3125311
17.53392,1460302
17.54325,358706
17.55258,74572
17.56193,43107
17.57127,41948
17.58062,46983
17.58995,49656
17.59928,44639
17.60863,39055
17.61797,35609
17.62730,35201
17.63665,36901
17.64598,37297
17.65532,39814
17.66467,44812
17.67400,50077
17.68333,59836
17.69268,63939
17.70202,57710
17.71135,50588
17.72070,43741
17.73003,39649
17.73937,36958
17.74872,39257
17.75805,44073
17.76740,47703
17.77673,46818
17.78607,42410
17.79542,38040
17.80475,35437
17.81408,34386
17.82343,33208
17.83277,31822
17.84210,34116
17.85145,38811
17.86078,45541
17.87012,49803
17.87947,44977
17.88880,41177
17.89813,40162
17.90748,33848
17.91682,33853
17.92617,33205
17.93550,36603
17.94483,35554
17.95418,34626
17.96352,35626
17.97285,34514
17.98220,33461
17.99153,32419
18.00087,30230
18.01022,31449
18.01955,31760
18.02888,29890
18.03823,32439
18.04757,36156
18.05690,39190
18.06625,38220
18.07558,33557
18.08492,31365
18.09427,32571
18.10360,41399
18.11295,46694
18.12228,47858
18.13162,44901
18.14097,38478
18.15030,40872
18.15963,36940
18.16898,36328
18.17832,34798
18.18765,33370
18.19700,32948
18.20633,31977
18.21567,31477
18.22502,32375
18.23435,33891
18.24368,30993
18.25303,30837
18.26237,29635
18.27170,31766
18.28105,39141
18.29038,44665
18.29973,46935
18.30907,48298
18.31840,46143
18.32775,44826
18.33708,46750
18.34642,52569
18.35577,55127
18.36510,52505
18.37443,49961
18.38378,50911
18.39312,63884
18.40245,91640
18.41180,101810
18.42113,80169
18.43047,54911
18.43982,45483
18.44915,50112
18.45850,46447
18.46783,39766
18.47717,35954
18.48652,39937
18.49585,51519
18.50518,66947
18.51453,74990
18.52387,69595
18.53320,57120
18.54255,48611
18.55188,46519
18.56122,47839
18.57057,43878
18.57990,37624
18.58923,36431
18.59858,38546
18.60792,41884
18.61725,47186
18.62660,48206
18.63593,47947
18.64528,44829
18.65462,44932
18.66395,40153
18.67330,38621
18.68263,40917
18.69197,40579
18.70132,44000
18.71065,46127
18.71998,48077
18.72933,47431
18.73867,43988
18.74800,39348
18.75735,38229
18.76668,32640
18.77602,30937
18.78537,29502
18.79470,32528
18.80403,34132
18.81338,36791
18.82272,37414
18.83207,36348
18.84140,32388
18.85073,32498
18.86008,31179
18.86942,29659
18.87875,29929
18.88810,29335
18.89743,31400
18.90677,38004
18.91612,47003
18.92545,47482
18.93478,43131
18.94413,42608
18.95347,48109
18.96280,57121
18.97215,60359
18.98148,54803
18.99082,45820
19.00017,38931
19.00950,35555
19.01885,33541
19.02818,34477
19.03752,42156
19.04687,61293
19.05620,83112
19.06553,96347
19.07488,112083
19.08422,133594
19.09355,129134
19.10290,90948
19.11223,56964
19.12157,40577
19.13092,30609
19.14025,29281
19.14958,28407
19.15893,28523
19.16827,27624
19.17760,29574
19.18695,32031
19.19628,37416
19.20563,43621
19.21497,41820
19.22430,40029
19.23365,37618
19.24298,34138
19.25232,32527
19.26167,33830
19.27100,38623
19.28033,43353
19.28968,46015
19.29902,48953
19.30835,62074
19.31770,75717
19.32703,73020
19.33637,54422
19.34572,41678
19.35505,33130
19.36438,31724
19.37373,28887
19.38307,30741
19.39242,32862
19.40175,33729
19.41108,35690
19.42043,32800
19.42977,29135
19.43910,27590
19.44845,26933
19.45778,29340
19.46712,32008
19.47647,36418
19.48580,41333
19.49513,41480
19.50448,38606
19.51382,32843
19.52315,31764
19.53250,33364
19.54183,31957
19.55118,28770
19.56052,30631
19.56985,31739
19.57920,35705
19.58853,36288
19.59787,36632
19.60722,34104
19.61655,33443
19.62588,36490
19.63523,41675
19.64457,44073
19.65390,39177
19.66325,33850
19.67258,31521
19.68192,32227
19.69127,37550
19.70060,37492
19.70993,39832
19.71928,45805
19.72862,56907
19.73797,65160
19.74730,57775
19.75663,44192
19.76598,42101
19.77532,42075
19.78465,41826
19.79400,39229
19.80333,36348
19.81267,33356
19.82202,33351
19.83135,31284
19.84068,28078
19.85003,28341
19.85937,32412
19.86870,42967
19.87805,62316
19.88738,63457
19.89672,52542
19.90607,41425
19.91540,36704
19.92475,35181
19.93408,33654
19.94342,33204
19.95277,38579
19.96210,39915
19.97143,37848
19.98078,33297
19.99012,30608
19.99945,29407
20.00880,31387
20.01813,34303
20.02747,33402
20.03682,35491
20.04615,37449
20.05548,37873
20.06483,39432
20.07417,35957
20.08350,37201
20.09285,35483
20.10218,31590
20.11153,30061
20.12087,27948
20.13020,27411
20.13955,30395
20.14888,37463
20.15822,45649
20.16757,44490
20.17690,37827
20.18623,32779
20.19558,30359
20.20492,29869
20.21425,31566
20.22360,31962
20.23293,32063
20.24227,31736
20.25162,30014
20.26095,30879
20.27030,28814
20.27963,30584
20.28897,31259
20.29832,32491
20.30765,29754
20.31698,29316
20.32633,26477
20.33567,26113
20.34500,28243
20.35435,29882
20.36368,30361
20.37302,31208
20.38237,29030
20.39170,27059
20.40103,27135
20.41038,28049
20.41972,26931
20.42905,28432
20.43840,30033
20.44773,28810
20.45708,31972
20.46642,39458
20.47575,47619
20.48510,45476
20.49443,35044
20.50377,29226
20.51312,27663
20.52245,29655
20.53178,31348
20.54113,31344
20.55047,38538
20.55980,65428
20.56915,160825
20.57848,297447
20.58782,302177
20.59717,177990
20.60650,78075
20.61583,45001
20.62518,44237
20.63452,51833
20.64387,68103
20.65320,71048
20.66253,58782
20.67188,45569
20.68122,40371
20.69055,38376
20.69990,36262
20.70923,37114
20.71857,38843
20.72792,36758
20.73725,36776
20.74658,37437
20.75593,35102
20.76527,33503
20.77460,32262
20.78395,35654
20.79328,40035
20.80262,40763
20.81197,39290
20.82130,34559
20.83065,32880
20.83998,30039
20.84932,29009
20.85867,29220
20.86800,28793
20.87733,28941
20.88668,32583
20.89602,36052
20.90535,36946
20.91470,38306
20.92403,33338
20.93337,30811
20.94272,30457
20.95205,30684
20.96138,28839
20.97073,28303
20.98007,27702
20.98940,27881
20.99875,29623
21.00808,29336
21.01743,29281
21.02677,28475
21.03610,29203
21.04545,29598
21.05478,29793
21.06412,30017
21.07347,30349
21.08280,29448
21.09213,31119
21.10148,32238
21.11082,33920
21.12015,35256
21.12950,32980
21.13883,33182
21.14817,30729
21.15752,31737
21.16685,36272
21.17618,48927
21.18553,60006
21.19487,59263
21.20422,48125
21.21355,37489
21.22288,33274
21.23223,31047
21.24157,29775
21.25090,30946
21.26025,31543
21.26958,36025
21.27892,42618
21.28827,49976
21.29760,48928
21.30693,41542
21.31628,33897
21.32562,32521
21.33495,29923
21.34430,30852
21.35363,33750
21.36298,31478
21.37232,30288
21.38165,32420
21.39100,32613
21.40033,33842
21.40967,36188
21.41902,37522
21.42835,37512
21.43768,33751
21.44703,32604
21.45637,31052
21.46570,29317
21.47505,31888
21.48438,36968
21.49372,38190
21.50307,38824
21.51240,37244
21.52173,34411
21.53108,33971
21.54042,32353
21.54977,34642
21.55910,41252
21.56843,57215
21.57778,66594
21.58712,59403
21.59645,44196
21.60580,37382
21.61513,36667
21.62447,34404
21.63382,35568
21.64315,35811
21.65248,33785
21.66183,35167
21.67117,41363
21.68050,47975
21.68985,47318
21.69918,44172
21.70852,42911
21.71787,41705
21.72720,42471
21.73655,40078
21.74588,35962
21.75522,32189
21.76457,32385
21.77390,31526
21.78323,32917
21.79258,32156
21.80192,38746
21.81125,45913
21.82060,50388
21.82993,46711
21.83927,40183
21.84862,35493
21.85795,34143
21.86728,34201
21.87663,36635
21.88597,39612
21.89530,43307
21.90465,44063
21.91398,41948
21.92333,36195
21.93267,34167
21.94200,33577
21.95135,33787
21.96068,38892
21.97002,45933
21.97937,49541
21.98870,53997
21.99803,56966
22.00738,52055
22.01672,43769
22.02605,38133
22.03540,41928
22.04473,47929
22.05407,51223
22.06342,49569
22.07275,46905
22.08210,44907
22.09143,41767
22.10077,38956
22.11012,36357
22.11945,35093
22.12878,34323
22.13813,36735
22.14747,40585
22.15680,47367
22.16615,59439
22.17548,62378
22.18482,56151
22.19417,47142
22.20350,40646
22.21283,41377
22.22218,46614
22.23152,50927
22.24085,50165
22.25020,44908
22.25953,44721
22.26888,46031
22.27822,57870
22.28755,68198
22.29690,70331
22.30623,60888
22.31557,48278
22.32492,40816
22.33425,39675
22.34358,43021
22.35293,49092
22.36227,57904
22.37160,57685
22.38095,57403
22.39028,51376
22.39962,47553
22.40897,42017
22.41830,39962
22.42763,44811
22.43698,51431
22.44632,51555
22.45567,48602
22.46500,44727
22.47433,41170
22.48368,39266
22.49302,37659
22.50235,36860
22.51170,38238
22.52103,38231
22.53037,37416
22.53972,34190
22.54905,35970
22.55838,39657
22.56773,43856
22.57707,52004
22.58640,53664
22.59575,53864
22.60508,58020
22.61442,58843
22.62377,57267
22.63310,51299
22.64245,46390
22.65178,40994
22.66112,38033
22.67047,38898
22.67980,42246
22.68913,52846
22.69848,53356
22.70782,50489
22.71715,45290
22.72650,47821
22.73583,55594
22.74517,61610
22.75452,57752
22.76385,54321
22.77318,48337
22.78253,44993
22.79187,46702
22.80120,53588
22.81055,59439
22.81988,57799
22.82923,50634
22.83857,47928
22.84790,44033
22.85725,40856
22.86658,41969
22.87592,44255
22.88527,43664
22.89460,42996
22.90393,44096
22.91328,46071
22.92262,50532
22.93195,51895
22.94130,47976
22.95063,48197
22.95997,47067
22.96932,47117
22.97865,45711
22.98800,40730
22.99733,36701
23.00667,34854
23.01602,35797
23.02535,34052
23.03468,35872
23.04403,36833
23.05337,37844
23.06270,36646
23.07205,36296
23.08138,36583
23.09072,35324
23.10007,33086
23.10940,33935
23.11873,31792
23.12808,33727
23.13742,33579
23.14675,34001
23.15610,35741
23.16543,36020
23.17478,37785
23.18412,36499
23.19345,33867
23.20280,33019
23.21213,32561
23.22147,33553
23.23082,34995
23.24015,36493
23.24948,39382
23.25883,42433
23.26817,44314
23.27750,40556
23.28685,38129
23.29618,36674
23.30552,33864
23.31487,34692
23.32420,41534
23.33353,50026
23.34288,55506
23.35222,47482
23.36157,40284
23.37090,35835
23.38023,36427
23.38958,36765
23.39892,34730
23.40825,36632
23.41760,32825
23.42693,34220
23.43627,36807
23.44562,38846
23.45495,38504
23.46428,37287
23.47363,37721
23.48297,33787
23.49230,31647
23.50165,33283
23.51098,32405
23.52032,34034
23.52967,37048
23.53900,36135
23.54835,35102
23.55768,34103
23.56702,33591
23.57637,35956
23.58570,38179
23.59503,36486
23.60438,36135
23.61372,33230
23.62305,33274
23.63240,32427
23.64173,30328
23.65107,31827
23.66042,31423
23.66975,32247
23.67908,34302
23.68843,36944
23.69777,39644
23.70712,42255
23.71645,41682
23.72578,39769
23.73513,42549
23.74447,38641
23.75380,34220
23.76315,33599
23.77248,32203
23.78182,32590
23.79117,31923
23.80050,32604
23.80983,33777
23.81918,32317
23.82852,32160
23.83785,32163
23.84720,31138
23.85653,31361
23.86587,31541
23.87522,31822
23.88455,32110
23.89390,33338
23.90323,33993
23.91257,33597
23.92192,32817
23.93125,33175
23.94058,31151
23.94993,33534
23.95927,33963
23.96860,31826
23.97795,31124
23.98728,31186
23.99662,31456
24.00597,32059
24.01530,32218
24.02463,32845
24.03398,31357
24.04332,31588
24.05265,29910
24.06200,29765
24.07133,31321
24.08068,33704
24.09002,31999
24.09935,32402
24.10870,30759
24.11803,30049
24.12737,31157
24.13672,31277
24.14605,30341
24.15538,33560
24.16473,30901
24.17407,32341
24.18340,31304
24.19275,30133
24.20208,29925
24.21142,30310
24.22077,31796
24.23010,31242
24.23943,32416
24.24878,33142
24.25812,32383
24.26747,32068
24.27680,31276
24.28613,31543
24.29548,33896
24.30482,31708
24.31415,34852
24.32350,36686
24.33283,36915
24.34217,33949
24.35152,32325
24.36085,30345
24.37018,31512
24.37953,32940
24.38887,32828
24.39820,34092
24.40755,32648
24.41688,32857
24.42622,33401
24.43557,31661
24.44490,32044
24.45425,32040
24.46358,30451
24.47292,31279
24.48227,30665
24.49160,31398
24.50093,33521
24.51028,31860
24.51962,32228
24.52895,32342
24.53830,33283
24.54763,33742
24.55697,34559
24.56632,34741
24.57565,31672
24.58498,33509
24.59433,33331
24.60367,34823
24.61300,36071
24.62235,36613
24.63168,33800
24.64103,31751
24.65037,33019
24.65970,37525
24.66905,37854
24.67838,39241
24.68772,36024
24.69707,34117
24.70640,34012
24.71573,33485
24.72508,32619
24.73442,31851
24.74375,33895
24.75310,30826
24.76243,31582
24.77177,31552
24.78112,30963
24.79045,31430
24.79980,31254
24.80913,31446
24.81847,31586
24.82782,31925
24.83715,30385
24.84648,31035
24.85583,30624
24.86517,32157
24.87450,34514
24.88385,35297
24.89318,32910
24.90252,33675
24.91187,33671
24.92120,32441
24.93053,31821
24.93988,32259
24.94922,32828
24.95855,35710
24.96790,33024
24.97723,33878
24.98658,32849
24.99592,32295
25.00525,31517
25.01460,29888
25.02393,31072
25.03327,31653
25.04262,31335
25.05195,31994
25.06128,32818
25.07063,31255
25.07997,33665
25.08930,32429
25.09865,32854
25.10798,33298
25.11732,32332
25.12667,34392
25.13600,35092
25.14533,35515
25.15468,34765
25.16402,35087
25.17337,34113
25.18270,33259
25.19203,33160
25.20138,32455
25.21072,33909
25.22005,32672
25.22940,32991
25.23873,33002
25.24807,33334
25.25742,32209
25.26675,34323
25.27608,35164
25.28543,34434
25.29477,36455
25.30410,40206
25.31345,52581
25.32278,88287
25.33213,140831
25.34147,154338
25.35080,118302
25.36015,79054
25.36948,61719
25.37882,54992
25.38817,51708
25.39750,49017
25.40683,46856
25.41618,44667
25.42552,46031
25.43485,44910
25.44420,45817
25.45353,46530
25.46287,47114
25.47222,48993
25.48155,53485
25.49088,54779
25.50023,55384
25.50957,50625
25.51892,50406
25.52825,47908
25.53758,47801
25.54693,49017
25.55627,46045
25.56560,46327
25.57495,43735
25.58428,44020
25.59362,42435
25.60297,41435
25.61230,40092
25.62163,41050
25.63098,42715
25.64032,42672
25.64965,42085
25.65900,43630
25.66833,43491
25.67767,41072
25.68702,42374
25.69635,41090
25.70570,39086
25.71503,40639
25.72437,39463
25.73372,41673
25.74305,42490
25.75238,41651
25.76173,42294
25.77107,41032
25.78040,38485
25.78975,39768
25.79908,41282
25.80842,44488
25.81777,42277
25.82710,43456
25.83643,42146
25.84578,40959
25.85512,39098
25.86445,38681
25.87380,39603
25.88313,38063
25.89248,39325
25.90182,38602
25.91115,38639
25.92050,39132
25.92983,40405
25.93917,41657
25.94852,42305
25.95785,44701
25.96718,44001
25.97653,42295
25.98587,40201
25.99520,39087
26.00455,38149
26.01388,40203
26.02322,39768
26.03257,42253
26.04190,41683
26.05123,42584
26.06058,41562
26.06992,41987
26.07927,41284
26.08860,39575
26.09793,38402
26.10728,40360
26.11662,41747
26.12595,43028
26.13530,47449
26.14463,50355
26.15397,50976
26.16332,47203
26.17265,46394
26.18198,43683
26.19133,40261
26.20067,40220
26.21000,39434
26.21935,37455
26.22868,38675
26.23802,37689
26.24737,35980
26.25670,37619
26.26605,38039
26.27538,37565
26.28472,39263
26.29407,40156
26.30340,40438
26.31273,41720
26.32208,44090
26.33142,41310
26.34075,40762
26.35010,42722
26.35943,41576
26.36877,40535
26.37812,38916
26.38745,40406
26.39678,40151
26.40613,39050
26.41547,42548
26.42482,41524
26.43415,43976
26.44348,48737
26.45283,52304
26.46217,55149
26.47150,54124
26.48085,54375
26.49018,57585
26.49952,60690
26.50887,59934
26.51820,60562
26.52753,65029
26.53688,67751
26.54622,72506
26.55555,67347
26.56490,65401
26.57423,62606
26.58357,62912
26.59292,61218
26.60225,58747
26.61160,56512
26.62093,58601
26.63027,51429
26.63962,53066
26.64895,53773
26.65828,53237
26.66763,53190
26.67697,50603
26.68630,49579
26.69565,49272
26.70498,47272
26.71432,46533
26.72367,47971
26.73300,46089
26.74233,46596
26.75168,43833
26.76102,48661
26.77035,49569
26.77970,48032
26.78903,49323
26.79838,49034
26.80772,47091
26.81705,48708
26.82640,47067
26.83573,46002
26.84507,48371
26.85442,48948
26.86375,46698
26.87308,45822
26.88243,44520
26.89177,43999
26.90110,44532
26.91045,44864
26.91978,43264
26.92912,42358
26.93847,43607
26.94780,42731
26.95713,43026
26.96648,43424
26.97582,43054
26.98517,44003
26.99450,44387
27.00383,46133
27.01318,44168
27.02252,43390
27.03185,45603
27.04120,46697
27.05053,49401
27.05987,50321
27.06922,50749
27.07855,48483
27.08788,46323
27.09723,47017
27.10657,46674
27.11590,47785
27.12525,51635
27.13458,53430
27.14393,55287
27.15327,52308
27.16260,51096
27.17195,49157
27.18128,46551
27.19062,45343
27.19997,43180
27.20930,44815
27.21863,45599
27.22798,44045
27.23732,47391
27.24665,51666
27.25600,58224
27.26533,59319
27.27467,54811
27.28402,48204
27.29335,48853
27.30268,50361
27.31203,50400
27.32137,49481
27.33072,45165
27.34005,46043
27.34938,45536
27.35873,43143
27.36807,43617
27.37740,44078
27.38675,45488
27.39608,42990
27.40542,44431
27.41477,46301
27.42410,47179
27.43343,50074
27.44278,48966
27.45212,46517
27.46145,45894
27.47080,45951
27.48013,46785
27.48947,45154
27.49882,46474
27.50815,47598
27.51750,47788
27.52683,47185
27.53617,47003
27.54552,45048
27.55485,43881
27.56418,45054
27.57353,45029
27.58287,45467
27.59220,44138
27.60155,45005
27.61088,45607
27.62022,45716
27.62957,45041
27.63890,47571
27.64823,48664
27.65758,57323
27.66692,71961
27.67625,94682
27.68560,99206
27.69493,85839
27.70428,69709
27.71362,61928
27.72295,54163
27.73230,51208
27.74163,51938
27.75097,50953
27.76032,50836
27.76965,50371
27.77898,53106
27.78833,51997
27.79767,55024
27.80700,55353
27.81635,51597
27.82568,52725
27.83502,52820
27.84437,52253
27.85370,50598
27.86303,50508
27.87238,51360
27.88172,53587
27.89107,53348
27.90040,53135
27.90973,50007
27.91908,51293
27.92842,49427
27.93775,48940
27.94710,48954
27.95643,49430
27.96577,50063
27.97512,51680
27.98445,52005
27.99378,51403
28.00313,52435
28.01247,48127
28.02180,48833
28.03115,50968
28.04048,50537
28.04983,54244
28.05917,55970
28.06850,56406
28.07785,55674
28.08718,52221
28.09652,54542
28.10587,52118
28.11520,53037
28.12453,55771
28.13388,57244
28.14322,55777
28.15255,55702
28.16190,58188
28.17123,57582
28.18057,55665
28.18992,54550
28.19925,55069
28.20858,54217
28.21793,54343
28.22727,53879
28.23662,54101
28.24595,50373
28.25528,52661
28.26463,51312
28.27397,52930
28.28330,51723
28.29265,49544
28.30198,51243
28.31132,52284
28.32067,53168
28.33000,51423
28.33933,50120
28.34868,51921
28.35802,52547
28.36735,53252
28.37670,53308
28.38603,56242
28.39537,56054
28.40472,55820
28.41405,54012
28.42340,54090
28.43273,54681
28.44207,54989
28.45142,55868
28.46075,55535
28.47008,53932
28.47943,55336
28.48877,56236
28.49810,55437
28.50745,55300
28.51678,56343
28.52612,56892
28.53547,55990
28.54480,55043
28.55413,59847
28.56348,57951
28.57282,59012
28.58215,61477
28.59150,67247
28.60083,66745
28.61018,64090
28.61952,66544
28.62885,64123
28.63820,61256
28.64753,63137
28.65687,71359
28.66622,99064
28.67555,143899
28.68488,173014
28.69423,151128
28.70357,108034
28.71290,80655
28.72225,67522
28.73158,66775
28.74092,64137
28.75027,60534
28.75960,62413
28.76895,61932
28.77828,59960
28.78762,59463
28.79697,60068
28.80630,59880
28.81563,60914
28.82498,58614
28.83432,60628
28.84365,61413
28.85300,58619
28.86233,60755
28.87167,58033
28.88102,56919
28.89035,60186
28.89968,60952
28.90903,61828
28.91837,62180
28.92770,62263
28.93705,61991
28.94638,62670
28.95573,67087
28.96507,71450
28.97440,75349
28.98375,73883
28.99308,68988
29.00242,66432
29.01177,63104
29.02110,63664
29.03043,64918
29.03978,63440
29.04912,61659
29.05845,62035
29.06780,61650
29.07713,63275
29.08647,60911
29.09582,61087
29.10515,62471
29.11448,64464
29.12383,61328
29.13317,62469
29.14252,63473
29.15185,63119
29.16118,62289
29.17053,62709
29.17987,62111
29.18920,65739
29.19855,66270
29.20788,66493
29.21722,66919
29.22657,65034
29.23590,62528
29.24523,64847
29.25458,64594
29.26392,62696
29.27325,63093
29.28260,64047
29.29193,61441
29.30127,62603
29.31062,62087
29.31995,61536
29.32930,63810
29.33863,62406
29.34797,63509
29.35732,62810
29.36665,65568
29.37598,64323
29.38533,63496
29.39467,63506
29.40400,64701
29.41335,60500
29.42268,63474
29.43202,64961
29.44137,64411
29.45070,65881
29.46003,68568
29.46938,74985
29.47872,74662
29.48805,70940
29.49740,69937
29.50673,65986
29.51608,67381
29.52542,66516
29.53475,62610
29.54410,65200
29.55343,64147
29.56277,63457
29.57212,62116
29.58145,63986
29.59078,62266
29.60013,63106
29.60947,63697
29.61880,62675
29.62815,60844
29.63748,61262
29.64682,62010
29.65617,61298
29.66550,64451
29.67483,62882
29.68418,63229
29.69352,62663
29.70287,64413
29.71220,62095
29.72153,67087
29.73088,69871
29.74022,71946
29.74955,67272
29.75890,66381
29.76823,65000
29.77757,64000
29.78692,62535
29.79625,63701
29.80558,63323
29.81493,62497
29.82427,61617
29.83360,61364
29.84295,61975
29.85228,59767
29.86163,62961
29.87097,63502
29.88030,63049
29.88965,63895
29.89898,63698
29.90832,65792
29.91767,61224
29.92700,64012
29.93633,64141
29.94568,62384
29.95502,64328
29.96435,64740
29.97370,64287
29.98303,63348
29.99237,65472
30.00172,62522
30.01105,61849
30.02038,62340
30.02973,60217
30.03907,60973
30.04842,60835
30.05775,62768
30.06708,62123
30.07643,60821
30.08577,63242
30.09510,62711
30.10445,62368
30.11378,63279
30.12312,61978
30.13247,63064
30.14180,63326
30.15113,61934
30.16048,65997
30.16982,61543
30.17915,63585
30.18850,65905
30.19783,65209
30.20717,63188
30.21652,62947
30.22585,65360
30.23520,63660
30.24453,62861
30.25387,62959
30.26322,63741
30.27255,60206
30.28188,63616
30.29123,65180
30.30057,64282
30.30990,64623
30.31925,63923
30.32858,64738
30.33792,66968
30.34727,62582
30.35660,65432
30.36593,66570
30.37528,67312
30.38462,67099
30.39395,70737
30.40330,71670
30.41263,69874
30.42198,70735
30.43132,68953
30.44065,70259
30.45000,69347
30.45933,70079
30.46867,68060
30.47802,69412
30.48735,67655
30.49668,67453
30.50603,68648
30.51537,68860
30.52470,70267
30.53405,68007
30.54338,68885
30.55272,67837
30.56207,68804
30.57140,72471
30.58075,70849
30.59008,73506
30.59942,74354
30.60877,77473
30.61810,79073
30.62743,84553
30.63678,92561
30.64612,95172
30.65545,99297
30.66480,100611
30.67413,96764
30.68347,91342
30.69282,90543
30.70215,88065
30.71148,85241
30.72083,82840
30.73017,79573
30.73950,81053
30.74885,82379
30.75818,77340
30.76753,81679
30.77687,77414
30.78620,79827
30.79555,80563
30.80488,77288
30.81422,79915
30.82357,79535
30.83290,78658
30.84223,81255
30.85158,81455
30.86092,81139
30.87025,80935
30.87960,81109
30.88893,84666
30.89827,82532
30.90762,83934
30.91695,85726
30.92628,83053
30.93563,88015
30.94497,88257
30.95432,87950
30.96365,85247
30.97298,85652
30.98233,83905
30.99167,81457
31.00100,81689
31.01035,79678
31.01968,80744
31.02902,77572
31.03837,80001
31.04770,79175
31.05703,78475
31.06638,76761
31.07572,75414
31.08505,75597
31.09440,74863
31.10373,72196
31.11307,73311
31.12242,74073
31.13175,73485
31.14110,73989
31.15043,75365
31.15977,75865
31.16912,76212
31.17845,73272
31.18778,76610
31.19713,79465
31.20647,78638
31.21580,81096
31.22515,78607
31.23448,79869
31.24382,84155
31.25317,81372
31.26250,84924
31.27183,85129
31.28118,85080
31.29052,84734
31.29985,88578
31.30920,87240
31.31853,89866
31.32788,90649
31.33722,90310
31.34655,88958
31.35590,89108
31.36523,87262
