D:\数据\20220224\LCLN-ZS1E #000429.D Thu Feb 24 19:56:05 2022
Start of data points
0.09765,19877
0.10698,19320
0.11633,19864
0.12567,20733
0.13500,20380
0.14435,20085
0.15368,20026
0.16303,20310
0.17237,19292
0.18170,18880
0.19105,19089
0.20038,19294
0.20972,17823
0.21907,18230
0.22840,18095
0.23773,17603
0.24708,18354
0.25642,18698
0.26575,17962
0.27510,18564
0.28443,18342
0.29377,17259
0.30312,17592
0.31245,18182
0.32178,17629
0.33113,17550
0.34047,17804
0.34982,18039
0.35915,18274
0.36848,17800
0.37783,17581
0.38717,16386
0.39650,15090
0.40585,13522
0.41518,12879
0.42452,10763
0.43387,7623
0.44320,5301
0.45253,5067
0.46188,4844
0.47122,4963
0.48055,4299
0.48990,4593
0.49923,4684
0.50857,4259
0.51792,4254
0.52725,4193
0.53660,4073
0.54593,4360
0.55527,5235
0.56462,4033
0.57395,4347
0.58328,4184
0.59263,4090
0.60197,4437
0.61130,4394
0.62065,4633
0.62998,4194
0.63932,3886
0.64867,3965
0.65800,3816
0.66733,3776
0.67668,4242
0.68602,4456
0.69537,4222
0.70470,3512
0.71403,3975
0.72338,4139
0.73272,4251
0.74205,4328
0.75140,3955
0.76073,3977
0.77007,4266
0.77942,4099
0.78875,3795
0.79808,4250
0.80743,4072
0.81677,4092
0.82610,4019
0.83545,4600
0.84478,3835
0.85412,3959
0.86347,3846
0.87280,3415
0.88215,3719
0.89148,3370
0.90082,3814
0.91017,3759
0.91950,3466
0.92883,4056
0.93818,3613
0.94752,3640
0.95685,3692
0.96620,3645
0.97553,3780
0.98487,4194
0.99422,4415
1.00355,3754
1.01288,3733
1.02223,3833
1.03157,3686
1.04090,3944
1.05025,3951
1.05958,3678
1.06893,3993
1.07827,3772
1.08760,3964
1.09695,3458
1.10628,3393
1.11562,3738
1.12497,3935
1.13430,3676
1.14363,3385
1.15298,3943
1.16232,3797
1.17165,3728
1.18100,3875
1.19033,3689
1.19967,4170
1.20902,4150
1.21835,3670
1.22768,4107
1.23703,3609
1.24637,3834
1.25572,3429
1.26505,3586
1.27438,3655
1.28373,3525
1.29307,3590
1.30240,3390
1.31175,3872
1.32108,3730
1.33042,3416
1.33977,3770
1.34910,3865
1.35843,4009
1.36778,3763
1.37712,3841
1.38645,3056
1.39580,3518
1.40513,3366
1.41447,3557
1.42382,3741
1.43315,3592
1.44250,3600
1.45183,3310
1.46117,3574
1.47052,3485
1.47985,3508
1.48918,3672
1.49853,3501
1.50787,3442
1.51720,3916
1.52655,3513
1.53588,3579
1.54522,3185
1.55457,3997
1.56390,3614
1.57323,3826
1.58258,5238
1.59192,10340
1.60125,15243
1.61060,17067
1.61993,21114
1.62928,30293
1.63862,38433
1.64795,40521
1.65730,37811
1.66663,33603
1.67597,29472
1.68532,25293
1.69465,19206
1.70398,14491
1.71333,14666
1.72267,15913
1.73200,17351
1.74135,17849
1.75068,18684
1.76002,20471
1.76937,21490
1.77870,21759
1.78805,22005
1.79738,22205
1.80672,22263
1.81607,21962
1.82540,21631
1.83473,21162
1.84408,22503
1.85342,21953
1.86275,22291
1.87210,24697
1.88143,33324
1.89077,63101
1.90012,107401
1.90945,144064
1.91878,157149
1.92813,167007
1.93747,186715
1.94680,219959
1.95615,251856
1.96548,252125
1.97483,217776
1.98417,169828
1.99350,130137
2.00285,106732
2.01218,91938
2.02152,85844
2.03087,85934
2.04020,87141
2.04953,76877
2.05888,67057
2.06822,58583
2.07755,59419
2.08690,89536
2.09623,146552
2.10557,138606
2.11492,93504
2.12425,96608
2.13358,213354
2.14293,454294
2.15227,512853
2.16162,386631
2.17095,238769
2.18028,151867
2.18963,117917
2.19897,131905
2.20830,116451
2.21765,83118
2.22698,73605
2.23632,110173
2.24567,200086
2.25500,763510
2.26433,2504524
2.27368,3335876
2.28302,2665293
2.29235,1621066
2.30170,901181
2.31103,791895
2.32037,1925725
2.32972,3115662
2.33905,2396340
2.34840,1173744
2.35773,514380
2.36707,253298
2.37642,175826
2.38575,145900
2.39508,113897
2.40443,90497
2.41377,82231
2.42310,82286
2.43245,78514
2.44178,65705
2.45112,54452
2.46047,50879
2.46980,52750
2.47913,58909
2.48848,59139
2.49782,50711
2.50717,44584
2.51650,42097
2.52583,39894
2.53518,38555
2.54452,39356
2.55385,46954
2.56320,198750
2.57253,499741
2.58187,512106
2.59122,357270
2.60055,220376
2.60988,147350
2.61923,121869
2.62857,117121
2.63790,100052
2.64725,89623
2.65658,83389
2.66592,68820
2.67527,54656
2.68460,47550
2.69395,42212
2.70328,39235
2.71262,43995
2.72197,66458
2.73130,90777
2.74063,108929
2.74998,127620
2.75932,142085
2.76865,123522
2.77800,112343
2.78733,133847
2.79667,136977
2.80602,109373
2.81535,84482
2.82468,70831
2.83403,61485
2.84337,55042
2.85270,59178
2.86205,86322
2.87138,108837
2.88073,98466
2.89007,75255
2.89940,61640
2.90875,52887
2.91808,49584
2.92742,46350
2.93677,42727
2.94610,39188
2.95543,38281
2.96478,36572
2.97412,34699
2.98345,36665
2.99280,39181
3.00213,45424
3.01147,50424
3.02082,51109
3.03015,56539
3.03948,66779
3.04883,64109
3.05817,60039
3.06752,72483
3.07685,86947
3.08618,77851
3.09553,60235
3.10487,44630
3.11420,36259
3.12355,34211
3.13288,35325
3.14222,35903
3.15157,41272
3.16090,53482
3.17023,56103
3.17958,50717
3.18892,43368
3.19825,40751
3.20760,38446
3.21693,35818
3.22627,32655
3.23562,30960
3.24495,30666
3.25430,32477
3.26363,33116
3.27297,33170
3.28232,32515
3.29165,30610
3.30098,33161
3.31033,33760
3.31967,34174
3.32900,30786
3.33835,31220
3.34768,29983
3.35702,29919
3.36637,31129
3.37570,30107
3.38503,30820
3.39438,29630
3.40372,30725
3.41307,34221
3.42240,41946
3.43173,44975
3.44108,43607
3.45042,40726
3.45975,37926
3.46910,33871
3.47843,34528
3.48777,37234
3.49712,35478
3.50645,33094
3.51578,31111
3.52513,30240
3.53447,29032
3.54380,32154
3.55315,52827
3.56248,121507
3.57182,219353
3.58117,237953
3.59050,175694
3.59985,132123
3.60918,103956
3.61852,76997
3.62787,58591
3.63720,45521
3.64653,42995
3.65588,38114
3.66522,37678
3.67455,36268
3.68390,36846
3.69323,35276
3.70257,33858
3.71192,32800
3.72125,34677
3.73058,38559
3.73993,39752
3.74927,35019
3.75860,31206
3.76795,30400
3.77728,29137
3.78663,29575
3.79597,30607
3.80530,31949
3.81465,33523
3.82398,36690
3.83332,35813
3.84267,34666
3.85200,35757
3.86133,35645
3.87068,34093
3.88002,32616
3.88935,33776
3.89870,37251
3.90803,41590
3.91737,44401
3.92672,45784
3.93605,48456
3.94538,52498
3.95473,47483
3.96407,44386
3.97342,40059
3.98275,36051
3.99208,31977
4.00143,31601
4.01077,30888
4.02010,29518
4.02945,30945
4.03878,32348
4.04812,38974
4.05747,40496
4.06680,40480
4.07613,45757
4.08548,56921
4.09482,72727
4.10415,79620
4.11350,65134
4.12283,48615
4.13218,38285
4.14152,31962
4.15085,30577
4.16020,31311
4.16953,28939
4.17887,29806
4.18822,28898
4.19755,29133
4.20688,29399
4.21623,30421
4.22557,32462
4.23490,31555
4.24425,31610
4.25358,34674
4.26292,35230
4.27227,33821
4.28160,34558
4.29093,33169
4.30028,32037
4.30962,29692
4.31897,31870
4.32830,33450
4.33763,34825
4.34698,34595
4.35632,33033
4.36565,32405
4.37500,33032
4.38433,32923
4.39367,33545
4.40302,30142
4.41235,28556
4.42168,27070
4.43103,28453
4.44037,28150
4.44970,28032
4.45905,27900
4.46838,33245
4.47772,40691
4.48707,49136
4.49640,46964
4.50575,40292
4.51508,33312
4.52442,31360
4.53377,29752
4.54310,30767
4.55243,28491
4.56178,28340
4.57112,29104
4.58045,28380
4.58980,28912
4.59913,28681
4.60847,27426
4.61782,29554
4.62715,29872
4.63648,31130
4.64583,38939
4.65517,39592
4.66450,37196
4.67385,33961
4.68318,31855
4.69253,31861
4.70187,36846
4.71120,47490
4.72055,52638
4.72988,47413
4.73922,39741
4.74857,32933
4.75790,30010
4.76723,30316
4.77658,34872
4.78592,34602
4.79525,33123
4.80460,32689
4.81393,34651
4.82327,37934
4.83262,35064
4.84195,33552
4.85128,30626
4.86063,37811
4.86997,55297
4.87932,79038
4.88865,79773
4.89798,63353
4.90733,47720
4.91667,42138
4.92600,38427
4.93535,36508
4.94468,34308
4.95402,33504
4.96337,31912
4.97270,29170
4.98203,29453
4.99138,31905
5.00072,32230
5.01005,31965
5.01940,32064
5.02873,33729
5.03808,36011
5.04742,36857
5.05675,35985
5.06610,35223
5.07543,41018
5.08477,47298
5.09412,45813
5.10345,40917
5.11278,36520
5.12213,32530
5.13147,33481
5.14080,34942
5.15015,37720
5.15948,36702
5.16882,35701
5.17817,38629
5.18750,41945
5.19683,37654
5.20618,33817
5.21552,30217
5.22487,28705
5.23420,29008
5.24353,33057
5.25288,34327
5.26222,35256
5.27155,46211
5.28090,92229
5.29023,166163
5.29957,189470
5.30892,145818
5.31825,93716
5.32758,68272
5.33693,57608
5.34627,45589
5.35560,35296
5.36495,32729
5.37428,33752
5.38362,37236
5.39297,45064
5.40230,48537
5.41165,46974
5.42098,41910
5.43032,36588
5.43967,31113
5.44900,30188
5.45833,29741
5.46768,31275
5.47702,31994
5.48635,33171
5.49570,34677
5.50503,35665
5.51437,36601
5.52372,39537
5.53305,48348
5.54238,47258
5.55173,41404
5.56107,35559
5.57040,33718
5.57975,31905
5.58908,31401
5.59843,29712
5.60777,29755
5.61710,29654
5.62645,28704
5.63578,29350
5.64512,29417
5.65447,30367
5.66380,33582
5.67313,33275
5.68248,33970
5.69182,31861
5.70115,32976
5.71050,32000
5.71983,32916
5.72917,30321
5.73852,32536
5.74785,35874
5.75720,43532
5.76653,43551
5.77587,37628
5.78522,33077
5.79455,30168
5.80388,28745
5.81323,31484
5.82257,33969
5.83190,37206
5.84125,37441
5.85058,32432
5.85992,31026
5.86927,30745
5.87860,31305
5.88793,32785
5.89728,32357
5.90662,37580
5.91595,64521
5.92530,117144
5.93463,139807
5.94398,121554
5.95332,87418
5.96265,57291
5.97200,35426
5.98133,26560
5.99067,24423
6.00002,24803
6.00935,26301
6.01868,26804
6.02803,28638
6.03737,30570
6.04670,30082
6.05605,29672
6.06538,27105
6.07472,23541
6.08407,21236
6.09340,17368
6.10273,15106
6.11208,14503
6.12142,15219
6.13077,16528
6.14010,19424
6.14943,18154
6.15878,16130
6.16812,16165
6.17745,15868
6.18680,14991
6.19613,13458
6.20547,12299
6.21482,12896
6.22415,14381
6.23348,16606
6.24283,16846
6.25217,16744
6.26150,21473
6.27085,25057
6.28018,24330
6.28952,17902
6.29887,15384
6.30820,12559
6.31755,12390
6.32688,11951
6.33622,12248
6.34557,12228
6.35490,12264
6.36423,12346
6.37358,13645
6.38292,16859
6.39225,28910
6.40160,77988
6.41093,190654
6.42027,270056
6.42962,204262
6.43895,93318
6.44828,35397
6.45763,20806
6.46697,18846
6.47630,19063
6.48565,18585
6.49498,17121
6.50433,17205
6.51367,18038
6.52300,18848
6.53235,18550
6.54168,16901
6.55102,16188
6.56037,14916
6.56970,15500
6.57903,16902
6.58838,17737
6.59772,18733
6.60705,19351
6.61640,19457
6.62573,18261
6.63507,18775
6.64442,19422
6.65375,19183
6.66308,19367
6.67243,20896
6.68177,21082
6.69112,20905
6.70045,20607
6.70978,19145
6.71913,17595
6.72847,17166
6.73780,14688
6.74715,13957
6.75648,14955
6.76582,14712
6.77517,16212
6.78450,17649
6.79383,20688
6.80318,24083
6.81252,23206
6.82185,19610
6.83120,16362
6.84053,16815
6.84988,14720
6.85922,15179
6.86855,14864
6.87790,15719
6.88723,15732
6.89657,17457
6.90592,18410
6.91525,19250
6.92458,18043
6.93393,15893
6.94327,15941
6.95260,15723
6.96195,16078
6.97128,15978
6.98062,14902
6.98997,14457
6.99930,14895
7.00863,15227
7.01798,15749
7.02732,15735
7.03667,14948
7.04600,12508
7.05533,12043
7.06468,11610
7.07402,12840
7.08335,13728
7.09270,15107
7.10203,16865
7.11137,19074
7.12072,18617
7.13005,18363
7.13938,16056
7.14873,13981
7.15807,13955
7.16740,13126
7.17675,13566
7.18608,13141
7.19542,13475
7.20477,14438
7.21410,16604
7.22345,32475
7.23278,84051
7.24212,155033
7.25147,157565
7.26080,102754
7.27013,45704
7.27948,25591
7.28882,22174
7.29815,21282
7.30750,18541
7.31683,14694
7.32617,12323
7.33552,12777
7.34485,12293
7.35418,13641
7.36353,12331
7.37287,14171
7.38222,26213
7.39155,86715
7.40088,242865
7.41023,409325
7.41957,424719
7.42890,283878
7.43825,132226
7.44758,57615
7.45692,30060
7.46627,23179
7.47560,18130
7.48493,16218
7.49428,15809
7.50362,14649
7.51295,14484
7.52230,13973
7.53163,13733
7.54097,13575
7.55032,14568
7.55965,16422
7.56900,17864
7.57833,18923
7.58767,17497
7.59702,18005
7.60635,18080
7.61568,17562
7.62503,18508
7.63437,16918
7.64370,15772
7.65305,14273
7.66238,13394
7.67172,13934
7.68107,15266
7.69040,15694
7.69973,16236
7.70908,15579
7.71842,15526
7.72775,16250
7.73710,16723
7.74643,16182
7.75578,15519
7.76512,14368
7.77445,14995
7.78380,16057
7.79313,15710
7.80247,15164
7.81182,14246
7.82115,13193
7.83048,13559
7.83983,15754
7.84917,18579
7.85850,28203
7.86785,43780
7.87718,49195
7.88652,39815
7.89587,32797
7.90520,58323
7.91453,126089
7.92388,182167
7.93322,160802
7.94257,99596
7.95190,51888
7.96123,34118
7.97058,31017
7.97992,36660
7.98925,34032
7.99860,26396
8.00793,19236
8.01727,19287
8.02662,21811
8.03595,26542
8.04528,34004
8.05463,35645
8.06397,27028
8.07330,21323
8.08265,24192
8.09198,32795
8.10132,34835
8.11067,27933
8.12000,19098
8.12935,15861
8.13868,14984
8.14802,15338
8.15737,14898
8.16670,15089
8.17603,14200
8.18538,13677
8.19472,14514
8.20405,15243
8.21340,15793
8.22273,15411
8.23207,14166
8.24142,13625
8.25075,12484
8.26008,13728
8.26943,14005
8.27877,14633
8.28810,13900
8.29745,14131
8.30678,14130
8.31613,12683
8.32547,12816
8.33480,12364
8.34415,11286
8.35348,13025
8.36282,14599
8.37217,16605
8.38150,15434
8.39083,15606
8.40018,17051
8.40952,15939
8.41885,17122
8.42820,18248
8.43753,18233
8.44687,17949
8.45622,16037
8.46555,18114
8.47490,18238
8.48423,18904
8.49357,26110
8.50292,31507
8.51225,30576
8.52158,27508
8.53093,22365
8.54027,21569
8.54960,20546
8.55895,21180
8.56828,20131
8.57762,18644
8.58697,17937
8.59630,19361
8.60563,19733
8.61498,19656
8.62432,18138
8.63365,15842
8.64300,15211
8.65233,15636
8.66168,15298
8.67102,16462
8.68035,16552
8.68970,17384
8.69903,17626
8.70837,17934
8.71772,17801
8.72705,16939
8.73638,18279
8.74573,25364
8.75507,31518
8.76440,31338
8.77375,25723
8.78308,20623
8.79242,21157
8.80177,29097
8.81110,40246
8.82043,41035
8.82978,29016
8.83912,19502
8.84847,16153
8.85780,16783
8.86713,17018
8.87648,20768
8.88582,20497
8.89515,20258
8.90450,20885
8.91383,19217
8.92317,18796
8.93252,19771
8.94185,21749
8.95118,20365
8.96053,18944
8.96987,20912
8.97920,18872
8.98855,17865
8.99788,17876
9.00722,19421
9.01657,18704
9.02590,18015
9.03525,17102
9.04458,18442
9.05392,17628
9.06327,19332
9.07260,23225
9.08193,26541
9.09128,31525
9.10062,29739
9.10995,23056
9.11930,19463
9.12863,19299
9.13797,20084
9.14732,19981
9.15665,18397
9.16598,16385
9.17533,16131
9.18467,17004
9.19402,16471
9.20335,19380
9.21268,21892
9.22203,32756
9.23137,50219
9.24070,58884
9.25005,46362
9.25938,25673
9.26872,18887
9.27807,18376
9.28740,16683
9.29673,16546
9.30608,17508
9.31542,23549
9.32475,36386
9.33410,50272
9.34343,48886
9.35277,42242
9.36212,63244
9.37145,95879
9.38080,99964
9.39013,75282
9.39947,54390
9.40882,41754
9.41815,35786
9.42748,35777
9.43683,30299
9.44617,22197
9.45550,18545
9.46485,17131
9.47418,16448
9.48352,18511
9.49287,23365
9.50220,25389
9.51153,22030
9.52088,19294
9.53022,20675
9.53955,24594
9.54890,31608
9.55823,44921
9.56758,60653
9.57692,56861
9.58625,46125
9.59560,39512
9.60493,42899
9.61427,37624
9.62362,26701
9.63295,22647
9.64228,22077
9.65163,18808
9.66097,21072
9.67030,18156
9.67965,18894
9.68898,18556
9.69832,17657
9.70767,19325
9.71700,68352
9.72633,395945
9.73568,1459627
9.74502,2832058
9.75437,3110459
9.76370,1861010
9.77303,734474
9.78238,304867
9.79172,176942
9.80105,129532
9.81040,105412
9.81973,92736
9.82907,90109
9.83842,95760
9.84775,98881
9.85708,91798
9.86643,75250
9.87577,69045
9.88510,75791
9.89445,85068
9.90378,87198
9.91312,120924
9.92247,149656
9.93180,124426
9.94115,74056
9.95048,46264
9.95982,39518
9.96917,44040
9.97850,73325
9.98783,119244
9.99718,133349
10.00652,91693
10.01585,54251
10.02520,38461
10.03453,32813
10.04387,31700
10.05322,35226
10.06255,45545
10.07188,53002
10.08123,55481
10.09057,46409
10.09992,33941
10.10925,40505
10.11858,83637
10.12793,153386
10.13727,203619
10.14660,445672
10.15595,1553455
10.16528,3273238
10.17462,3533130
10.18397,1808685
10.19330,465206
10.20263,86753
10.21198,41511
10.22132,37957
10.23065,47537
10.24000,59123
10.24933,61950
10.25867,45971
10.26802,32657
10.27735,29785
10.28670,29809
10.29603,29924
10.30537,27840
10.31472,26882
10.32405,24175
10.33338,23911
10.34273,23557
10.35207,22548
10.36140,21712
10.37075,22863
10.38008,21259
10.38942,19881
10.39877,19540
10.40810,20081
10.41743,20373
10.42678,20763
10.43612,21321
10.44545,24113
10.45480,24513
10.46413,28142
10.47348,26258
10.48282,21373
10.49215,18252
10.50150,19342
10.51083,19883
10.52017,20710
10.52952,20113
10.53885,20458
10.54818,20066
10.55753,19904
10.56687,19204
10.57620,18931
10.58555,20703
10.59488,20364
10.60422,18979
10.61357,19093
10.62290,19807
10.63223,22827
10.64158,21167
10.65092,22394
10.66027,19989
10.66960,22591
10.67893,25991
10.68828,25588
10.69762,24028
10.70695,23364
10.71630,25561
10.72563,27301
10.73497,24943
10.74432,33392
10.75365,54959
10.76298,67533
10.77233,60151
10.78167,56866
10.79100,112896
10.80035,240777
10.80968,306370
10.81903,218760
10.82837,97399
10.83770,38033
10.84705,24759
10.85638,23116
10.86572,28289
10.87507,35234
10.88440,34445
10.89373,28774
10.90308,24734
10.91242,22715
10.92175,26237
10.93110,29973
10.94043,27434
10.94977,23980
10.95912,21739
10.96845,21438
10.97778,20973
10.98713,19905
10.99647,17665
11.00582,17456
11.01515,18315
11.02448,17888
11.03383,17492
11.04317,16900
11.05250,17898
11.06185,15855
11.07118,16149
11.08052,17090
11.08987,17122
11.09920,19091
11.10853,22298
11.11788,23147
11.12722,21318
11.13655,20077
11.14590,18829
11.15523,19362
11.16457,17751
11.17392,18812
11.18325,18739
11.19260,17878
11.20193,17632
11.21127,17802
11.22062,18721
11.22995,19844
11.23928,19134
11.24863,18533
11.25797,18873
11.26730,22004
11.27665,19123
11.28598,18028
11.29532,17315
11.30467,17831
11.31400,19851
11.32333,20091
11.33268,21947
11.34202,24032
11.35135,27243
11.36070,30773
11.37003,27594
11.37938,23260
11.38872,21819
11.39805,22048
11.40740,24433
11.41673,24263
11.42607,20643
11.43542,19382
11.44475,18281
11.45408,19745
11.46343,26203
11.47277,33835
11.48210,33150
11.49145,23838
11.50078,17833
11.51012,16895
11.51947,16525
11.52880,16932
11.53813,17285
11.54748,22072
11.55682,27787
11.56617,43256
11.57550,55339
11.58483,52479
11.59418,41648
11.60352,32667
11.61285,28168
11.62220,24637
11.63153,24468
11.64087,25542
11.65022,29220
11.65955,31617
11.66888,31083
11.67823,27020
11.68757,24088
11.69690,22336
11.70625,23192
11.71558,24171
11.72492,24372
11.73427,21830
11.74360,20183
11.75295,20042
11.76228,19985
11.77162,20720
11.78097,22312
11.79030,25269
11.79963,24712
11.80898,22980
11.81832,20667
11.82765,21700
11.83700,22876
11.84633,20924
11.85567,21176
11.86502,19584
11.87435,20551
11.88368,20431
11.89303,19284
11.90237,19196
11.91172,21455
11.92105,22669
11.93038,25585
11.93973,28902
11.94907,28659
11.95840,26653
11.96775,22447
11.97708,20308
11.98642,19487
11.99577,22731
12.00510,29657
12.01443,39069
12.02378,40655
12.03312,31502
12.04245,23263
12.05180,19992
12.06113,17064
12.07047,17743
12.07982,16721
12.08915,17820
12.09850,17577
12.10783,17281
12.11717,17213
12.12652,17392
12.13585,18136
12.14518,18574
12.15453,22987
12.16387,41870
12.17320,83870
12.18255,115344
12.19188,87692
12.20122,43024
12.21057,23369
12.21990,21016
12.22923,22944
12.23858,23238
12.24792,23443
12.25725,32138
12.26660,75607
12.27593,148836
12.28528,179204
12.29462,122285
12.30395,56758
12.31330,31958
12.32263,27012
12.33197,24272
12.34132,22059
12.35065,22007
12.35998,21019
12.36933,19975
12.37867,20103
12.38800,20646
12.39735,20712
12.40668,19283
12.41602,19559
12.42537,20635
12.43470,20118
12.44403,19163
12.45338,19197
12.46272,20323
12.47207,23245
12.48140,24432
12.49073,26849
12.50008,26015
12.50942,26556
12.51875,24238
12.52810,24426
12.53743,24603
12.54677,25147
12.55612,24650
12.56545,30744
12.57478,30234
12.58413,27538
12.59347,22361
12.60280,18933
12.61215,19815
12.62148,21068
12.63083,23049
12.64017,27956
12.64950,30817
12.65885,28961
12.66818,26779
12.67752,20957
12.68687,18327
12.69620,16683
12.70553,17969
12.71488,17825
12.72422,18282
12.73355,20140
12.74290,21386
12.75223,22076
12.76157,22993
12.77092,20401
12.78025,17847
12.78958,17817
12.79893,18808
12.80827,19174
12.81762,19524
12.82695,19061
12.83628,18342
12.84563,19325
12.85497,17568
12.86430,17557
12.87365,17108
12.88298,19180
12.89232,19242
12.90167,19848
12.91100,20934
12.92033,19726
12.92968,19127
12.93902,18926
12.94835,19989
12.95770,20070
12.96703,18915
12.97637,16987
12.98572,17569
12.99505,16455
13.00440,17088
13.01373,18493
13.02307,23185
13.03242,27930
13.04175,29329
13.05108,25523
13.06043,20746
13.06977,21165
13.07910,22582
13.08845,22219
13.09778,22866
13.10712,22601
13.11647,19939
13.12580,21694
13.13513,24469
13.14448,25368
13.15382,25091
13.16315,25622
13.17250,24261
13.18183,26906
13.19118,50057
13.20052,138779
13.20985,286469
13.21920,333325
13.22853,217797
13.23787,103979
13.24722,77162
13.25655,70458
13.26588,53745
13.27523,38633
13.28457,35191
13.29390,31600
13.30325,30782
13.31258,32703
13.32192,32255
13.33127,29879
13.34060,29752
13.34993,28787
13.35928,24990
13.36862,22567
13.37797,20881
13.38730,21593
13.39663,24300
13.40598,25362
13.41532,24025
13.42465,22939
13.43400,24852
13.44333,29847
13.45267,27600
13.46202,25971
13.47135,26173
13.48068,25578
13.49003,26447
13.49937,24597
13.50870,29914
13.51805,55473
13.52738,93926
13.53673,96914
13.54607,57737
13.55540,31355
13.56475,21542
13.57408,19261
13.58342,19004
13.59277,17881
13.60210,19211
13.61143,19616
13.62078,22204
13.63012,31291
13.63945,50403
13.64880,62078
13.65813,52086
13.66747,35219
13.67682,24731
13.68615,21336
13.69548,21127
13.70483,18919
13.71417,17507
13.72352,17471
13.73285,18234
13.74218,17076
13.75153,18145
13.76087,19159
13.77020,18833
13.77955,18838
13.78888,20907
13.79822,26885
13.80757,29927
13.81690,28606
13.82623,21318
13.83558,19203
13.84492,19218
13.85425,20084
13.86360,21909
13.87293,23126
13.88227,27043
13.89162,40527
13.90095,77115
13.91030,173224
13.91963,287752
13.92897,249527
13.93832,121142
13.94765,49974
13.95698,31630
13.96633,27357
13.97567,23543
13.98500,21959
13.99435,21924
14.00368,22317
14.01302,21875
14.02237,21552
14.03170,25469
14.04103,90369
14.05038,602932
14.05972,2577323
14.06905,6061166
14.07840,7390636
14.08773,4518567
14.09708,1235327
14.10642,189348
14.11575,47595
14.12510,32815
14.13443,30041
14.14377,31292
14.15312,33713
14.16245,38271
14.17178,41280
14.18113,54769
14.19047,89492
14.19980,107061
14.20915,79043
14.21848,44130
14.22782,27876
14.23717,20651
14.24650,20495
14.25585,19892
14.26518,20270
14.27452,21904
14.28387,20426
14.29320,18606
14.30253,18468
14.31188,21171
14.32122,25623
14.33055,31502
14.33990,32887
14.34923,29142
14.35857,23574
14.36792,20445
14.37725,18892
14.38658,18087
14.39593,19048
14.40527,19321
14.41460,18123
14.42395,17995
14.43328,17413
14.44263,21024
14.45197,25323
14.46130,30062
14.47065,30467
14.47998,28290
14.48932,22569
14.49867,20945
14.50800,19444
14.51733,18348
14.52668,18283
14.53602,17667
14.54535,18093
14.55470,18842
14.56403,18960
14.57337,18360
14.58272,17984
14.59205,17922
14.60138,16919
14.61073,16880
14.62007,17885
14.62942,19442
14.63875,23174
14.64808,28081
14.65743,30147
14.66677,28110
14.67610,22078
14.68545,19478
14.69478,19048
14.70412,18944
14.71347,18887
14.72280,19459
14.73213,19779
14.74148,18827
14.75082,19269
14.76015,18983
14.76950,17708
14.77883,18047
14.78817,19292
14.79752,18338
14.80685,19516
14.81620,19482
14.82553,20574
14.83487,18203
14.84422,18097
14.85355,19013
14.86288,24197
14.87223,29868
14.88157,30831
14.89090,24108
14.90025,19907
14.90958,20110
14.91892,19296
14.92827,18876
14.93760,18737
14.94693,19770
14.95628,18682
14.96562,19234
14.97495,20626
14.98430,20376
14.99363,21045
15.00298,23290
15.01232,24146
15.02165,22521
15.03100,20606
15.04033,21473
15.04967,22434
15.05902,22093
15.06835,21465
15.07768,21003
15.08703,17469
15.09637,16372
15.10570,17911
15.11505,19389
15.12438,22309
15.13372,25667
15.14307,22540
15.15240,20201
15.16175,17998
15.17108,17321
15.18042,17552
15.18977,21351
15.19910,27569
15.20843,40868
15.21778,48843
15.22712,44529
15.23645,32335
15.24580,25507
15.25513,22223
15.26447,20936
15.27382,20295
15.28315,19496
15.29248,20772
15.30183,19712
15.31117,19425
15.32050,20241
15.32985,22059
15.33918,22066
15.34853,22649
15.35787,22634
15.36720,23980
15.37655,24162
15.38588,21049
15.39522,18020
15.40457,17518
15.41390,18999
15.42323,20043
15.43258,20345
15.44192,20466
15.45125,18125
15.46060,17002
15.46993,18456
15.47927,19462
15.48862,20871
15.49795,23933
15.50728,28025
15.51663,35069
15.52597,36664
15.53532,31614
15.54465,24973
15.55398,21627
15.56333,18802
15.57267,18846
15.58200,18807
15.59135,19653
15.60068,19968
15.61002,21340
15.61937,22572
15.62870,24458
15.63803,23456
15.64738,23298
15.65672,24152
15.66605,26785
15.67540,23074
15.68473,22673
15.69407,28654
15.70342,32757
15.71275,36194
15.72210,30131
15.73143,25421
15.74077,24145
15.75012,28466
15.75945,31089
15.76878,30143
15.77813,26039
15.78747,24365
15.79680,39676
15.80615,126651
15.81548,405095
15.82482,823436
15.83417,1009317
15.84350,810019
15.85283,451629
15.86218,208408
15.87152,109143
15.88087,76785
15.89020,63607
15.89953,60158
15.90888,57002
15.91822,47919
15.92755,39972
15.93690,35608
15.94623,33897
15.95557,31091
15.96492,32859
15.97425,36716
15.98358,45322
15.99293,53597
16.00227,50709
16.01160,39127
16.02095,31017
16.03028,27380
16.03962,27285
16.04897,28254
16.05830,27397
16.06765,28023
16.07698,25774
16.08632,25847
16.09567,25026
16.10500,26259
16.11433,30189
16.12368,29429
16.13302,29404
16.14235,26692
16.15170,26466
16.16103,24145
16.17037,24794
16.17972,24626
16.18905,24314
16.19838,26745
16.20773,29035
16.21707,35686
16.22640,38505
16.23575,38479
16.24508,36926
16.25443,33309
16.26377,33131
16.27310,38625
16.28245,69375
16.29178,132224
16.30112,178018
16.31047,143778
16.31980,80469
16.32913,43426
16.33848,29869
16.34782,23882
16.35715,21529
16.36650,19829
16.37583,19739
16.38517,19974
16.39452,20410
16.40385,21951
16.41318,22573
16.42253,20911
16.43187,21949
16.44122,21879
16.45055,26611
16.45988,28377
16.46923,26233
16.47857,24634
16.48790,24637
16.49725,23337
16.50658,24992
16.51592,25317
16.52527,26283
16.53460,25232
16.54393,22462
16.55328,21882
16.56262,21333
16.57195,20013
16.58130,34862
16.59063,21470
16.59997,20999
16.60932,20938
16.61865,21892
16.62800,25168
16.63733,28210
16.64667,26773
16.65602,26346
16.66535,23885
16.67468,23327
16.68403,26814
16.69337,30480
16.70270,29709
16.71205,27906
16.72138,22857
16.73072,25595
16.74007,43185
16.74940,69972
16.75873,77243
16.76808,50038
16.77742,29271
16.78675,22111
16.79610,19319
16.80543,20434
16.81478,22222
16.82412,25940
16.83345,27880
16.84280,27449
16.85213,25130
16.86147,20687
16.87082,22687
16.88015,20527
16.88948,19276
16.89883,23300
16.90817,26842
16.91750,32060
16.92685,30800
16.93618,28480
16.94552,28225
16.95487,33273
16.96420,36821
16.97355,34568
16.98288,28335
16.99222,21561
17.00157,20315
17.01090,22199
17.02023,29925
17.02958,46907
17.03892,58189
17.04825,47949
17.05760,31138
17.06693,25570
17.07627,23941
17.08562,22502
17.09495,21705
17.10428,22396
17.11363,22354
17.12297,23235
17.13230,27136
17.14165,28811
17.15098,26076
17.16033,23366
17.16967,22785
17.17900,22481
17.18835,23145
17.19768,21538
17.20702,19668
17.21637,19567
17.22570,20863
17.23503,19087
17.24438,21324
17.25372,21390
17.26305,22284
17.27240,22186
17.28173,25430
17.29107,27295
17.30042,24204
17.30975,24407
17.31908,25383
17.32843,27444
17.33777,25506
17.34712,23346
17.35645,22117
17.36578,29044
17.37513,57823
17.38447,113573
17.39380,128350
17.40315,89328
17.41248,56284
17.42182,43127
17.43117,34234
17.44050,31711
17.44983,27191
17.45918,26816
17.46852,26429
17.47785,30184
17.48720,84013
17.49653,411817
17.50587,1281286
17.51522,2031778
17.52455,1730775
17.53390,705006
17.54323,167425
17.55257,43521
17.56192,28028
17.57125,29317
17.58058,31267
17.58993,31097
17.59927,28323
17.60860,26483
17.61795,24434
17.62728,24322
17.63662,23115
17.64597,24158
17.65530,24276
17.66463,29308
17.67398,33582
17.68332,40271
17.69267,42458
17.70200,38098
17.71133,34321
17.72068,29658
17.73002,25774
17.73935,24675
17.74870,25054
17.75803,28927
17.76737,31093
17.77672,31205
17.78605,26391
17.79538,25611
17.80473,24850
17.81407,23642
17.82340,22580
17.83275,23256
17.84208,22815
17.85142,25921
17.86077,29966
17.87010,31724
17.87945,30659
17.88878,25988
17.89812,23749
17.90747,23402
17.91680,21128
17.92613,21004
17.93548,21121
17.94482,20134
17.95415,20703
17.96350,22439
17.97283,22494
17.98217,21209
17.99152,19084
18.00085,19559
18.01018,20069
18.01953,19002
18.02887,19757
18.03820,22398
18.04755,27481
18.05688,31944
18.06623,31022
18.07557,25213
18.08490,21936
18.09425,20645
18.10358,22621
18.11292,22506
18.12227,22107
18.13160,23499
18.14093,23808
18.15028,22873
18.15962,21705
18.16895,22932
18.17830,22076
18.18763,20762
18.19697,19567
18.20632,19825
18.21565,20011
18.22498,20519
18.23433,21294
18.24367,20464
18.25302,19842
18.26235,19719
18.27168,21976
18.28103,23948
18.29037,24269
18.29970,25463
18.30905,24999
18.31838,27588
18.32772,25540
18.33707,27706
18.34640,32135
18.35573,33656
18.36508,30711
18.37442,26961
18.38375,25605
18.39310,30184
18.40243,37625
18.41177,42385
18.42112,36277
18.43045,30406
18.43980,32000
18.44913,31487
18.45847,28535
18.46782,24228
18.47715,23021
18.48648,26055
18.49583,33043
18.50517,40910
18.51450,45765
18.52385,41919
18.53318,34247
18.54252,30371
18.55187,25933
18.56120,28022
18.57053,25198
18.57988,23893
18.58922,23796
18.59857,25622
18.60790,27599
18.61723,27693
18.62658,28537
18.63592,28545
18.64525,28261
18.65460,26124
18.66393,25773
18.67327,28416
18.68262,29561
18.69195,28579
18.70128,29792
18.71063,31163
18.71997,29289
18.72930,29245
18.73865,27505
18.74798,26127
18.75732,25065
18.76667,22359
18.77600,20830
18.78535,21510
18.79468,22278
18.80402,22783
18.81337,23532
18.82270,24222
18.83203,23956
18.84138,22328
18.85072,20386
18.86005,20926
18.86940,20226
18.87873,20578
18.88807,21525
18.89742,21991
18.90675,25148
18.91608,29033
18.92543,28334
18.93477,26398
18.94410,26741
18.95345,30398
18.96278,32351
18.97213,32035
18.98147,28387
18.99080,26408
19.00015,24313
19.00948,22345
19.01882,21879
19.02817,23199
19.03750,28013
19.04683,41207
19.05618,53231
19.06552,59050
19.07485,70938
19.08420,87356
19.09353,76831
19.10287,52160
19.11222,34004
19.12155,24835
19.13088,20796
19.14023,20406
19.14957,21574
19.15892,19433
19.16825,18840
19.17758,19719
19.18693,21819
19.19627,25463
19.20560,25658
19.21495,24230
19.22428,25053
19.23362,23840
19.24297,21013
19.25230,21604
19.26163,20265
19.27098,23200
19.28032,26283
19.28965,26149
19.29900,29237
19.30833,34258
19.31768,37457
19.32702,34678
19.33635,27745
19.34570,25331
19.35503,20251
19.36437,19680
19.37372,19490
19.38305,19355
19.39238,19918
19.40173,21698
19.41107,22277
19.42040,21331
19.42975,20067
19.43908,19490
19.44842,19152
19.45777,19466
19.46710,20519
19.47643,23705
19.48578,25584
19.49512,26761
19.50447,23327
19.51380,23263
19.52313,22105
19.53248,22842
19.54182,22501
19.55115,22119
19.56050,21167
19.56983,22602
19.57917,25011
19.58852,25634
19.59785,24651
19.60718,22901
19.61653,23090
19.62587,25475
19.63520,29343
19.64455,27515
19.65388,26911
19.66322,23892
19.67257,22401
19.68190,22484
19.69125,23285
19.70058,23859
19.70992,25523
19.71927,31257
19.72860,38885
19.73793,42831
19.74728,33583
19.75662,28708
19.76595,25219
19.77530,26488
19.78463,26020
19.79397,24911
19.80332,23480
19.81265,21795
19.82198,22866
19.83133,21982
19.84067,20628
19.85000,19441
19.85935,22521
19.86868,31629
19.87803,39119
19.88737,36800
19.89670,30319
19.90605,27596
19.91538,25530
19.92472,24976
19.93407,24614
19.94340,31418
19.95273,43937
19.96208,62177
19.97142,65497
19.98075,50448
19.99010,35067
19.99943,28388
20.00877,26592
20.01812,27693
20.02745,26460
20.03678,27551
20.04613,28333
20.05547,26639
20.06482,25620
20.07415,26460
20.08348,26008
20.09283,25048
20.10217,24370
20.11150,23462
20.12085,22442
20.13018,20919
20.13952,24294
20.14887,28415
20.15820,31596
20.16753,28710
20.17688,25007
20.18622,23590
20.19555,21436
20.20490,22156
20.21423,22889
20.22358,22525
20.23292,22094
20.24225,22300
20.25160,21155
20.26093,21989
20.27027,21451
20.27962,21598
20.28895,22436
20.29828,22812
20.30763,21133
20.31697,21483
20.32630,19929
20.33565,19421
20.34498,19913
20.35432,21369
20.36367,21313
20.37300,22153
20.38233,21473
20.39168,20659
20.40102,21038
20.41037,20478
20.41970,20269
20.42903,20380
20.43838,21198
20.44772,21266
20.45705,23537
20.46640,26679
20.47573,28573
20.48507,27440
20.49442,25145
20.50375,21765
20.51308,20979
20.52243,20396
20.53177,22011
20.54110,22368
20.55045,26934
20.55978,44495
20.56912,96270
20.57847,164644
20.58780,154465
20.59715,84763
20.60648,40281
20.61582,27228
20.62517,26283
20.63450,28184
20.64383,31140
20.65318,30423
20.66252,28213
20.67185,25513
20.68120,24702
20.69053,24685
20.69987,25260
20.70922,24352
20.71855,23493
20.72788,25709
20.73723,23574
20.74657,22353
20.75590,22860
20.76525,21574
20.77458,21710
20.78393,22785
20.79327,26623
20.80260,27606
20.81195,26083
20.82128,23987
20.83062,22084
20.83997,20996
20.84930,20822
20.85863,19359
20.86798,20896
20.87732,21067
20.88665,20405
20.89600,22255
20.90533,23096
20.91467,23276
20.92402,21309
20.93335,20143
20.94270,20644
20.95203,19958
20.96137,18567
20.97072,20786
20.98005,19262
20.98938,19854
20.99873,20599
21.00807,19610
21.01740,18680
21.02675,19976
21.03608,19433
21.04542,19550
21.05477,20722
21.06410,20065
21.07343,19550
21.08278,20137
21.09212,20992
21.10145,21616
21.11080,22127
21.12013,21418
21.12948,22358
21.13882,21182
21.14815,21196
21.15750,22025
21.16683,25482
21.17617,28657
21.18552,36799
21.19485,37520
21.20418,31923
21.21353,25146
21.22287,23024
21.23220,21719
21.24155,21384
21.25088,21251
21.26022,23415
21.26957,26850
21.27890,29113
21.28823,33231
21.29758,29471
21.30692,24804
21.31627,22514
21.32560,21486
21.33493,22022
21.34428,21034
21.35362,22165
21.36295,20883
21.37230,20713
21.38163,20823
21.39097,21629
21.40032,22314
21.40965,24344
21.41898,24295
21.42833,24488
21.43767,24236
21.44700,22908
21.45635,22125
21.46568,21860
21.47502,21671
21.48437,24424
21.49370,25208
21.50305,24455
21.51238,22777
21.52172,23032
21.53107,21157
21.54040,22931
21.54973,21910
21.55908,24717
21.56842,29899
21.57775,31089
21.58710,28622
21.59643,24991
21.60577,22980
21.61512,22919
21.62445,21344
21.63378,22163
21.64313,21977
21.65247,21224
21.66180,22221
21.67115,24458
21.68048,26066
21.68983,25789
21.69917,25029
21.70850,24344
21.71785,23054
21.72718,25598
21.73652,24735
21.74587,22682
21.75520,21401
21.76453,21512
21.77388,20871
21.78322,21311
21.79255,22050
21.80190,22356
21.81123,24741
21.82057,26314
21.82992,25258
21.83925,22520
21.84858,22801
21.85793,21877
21.86727,22679
21.87662,24132
21.88595,25259
21.89528,26665
21.90463,28261
21.91397,25317
21.92330,23724
21.93265,23389
21.94198,22129
21.95132,23983
21.96067,24068
21.97000,26687
21.97933,30033
21.98868,33362
21.99802,34676
22.00735,30916
22.01670,27490
22.02603,26076
22.03538,25466
22.04472,25918
22.05405,26600
22.06340,25610
22.07273,26147
22.08207,26372
22.09142,25192
22.10075,23797
22.11008,23309
22.11943,22421
22.12877,22678
22.13810,23085
22.14745,24677
22.15678,27699
22.16612,28741
22.17547,30697
22.18480,28734
22.19413,24403
22.20348,24228
22.21282,25047
22.22217,28052
22.23150,28162
22.24083,27351
22.25018,26057
22.25952,24785
22.26885,24795
22.27820,26525
22.28753,27594
22.29687,28136
22.30622,26971
22.31555,24844
22.32488,22977
22.33423,24125
22.34357,24541
22.35290,25641
22.36225,27638
22.37158,26212
22.38092,25799
22.39027,23667
22.39960,23192
22.40895,23575
22.41828,24328
22.42762,24434
22.43697,25787
22.44630,25440
22.45563,26171
22.46498,23729
22.47432,23597
22.48365,23768
22.49300,24979
22.50233,24165
22.51167,24780
22.52102,26045
22.53035,24176
22.53968,24047
22.54903,23996
22.55837,24525
22.56770,25354
22.57705,26795
22.58638,27028
22.59573,26730
22.60507,25390
22.61440,26578
22.62375,25656
22.63308,27243
22.64242,23949
22.65177,23663
22.66110,23129
22.67043,22415
22.67978,26301
22.68912,25400
22.69845,27443
22.70780,25174
22.71713,24664
22.72647,24785
22.73582,26710
22.74515,27665
22.75450,29591
22.76383,31223
22.77317,28829
22.78252,26035
22.79185,23386
22.80118,24313
22.81053,23286
22.81987,23841
22.82920,23101
22.83855,23426
22.84788,23567
22.85722,24851
22.86657,22856
22.87590,23464
22.88523,23391
22.89458,22745
22.90392,23494
22.91325,22610
22.92260,22747
22.93193,23329
22.94128,24296
22.95062,22538
22.95995,22850
22.96930,21928
22.97863,21883
22.98797,20508
22.99732,21507
23.00665,21043
23.01598,20980
23.02533,20811
23.03467,20939
23.04400,20867
23.05335,21575
23.06268,21060
23.07202,21991
23.08137,22439
23.09070,22740
23.10003,20933
23.10938,21783
23.11872,21170
23.12807,22295
23.13740,21615
23.14673,22433
23.15608,20508
23.16542,21332
23.17475,20230
23.18410,20800
23.19343,21879
23.20277,21576
23.21212,21538
23.22145,22055
23.23078,21560
23.24013,23365
23.24947,24303
23.25880,25268
23.26815,24949
23.27748,27010
23.28682,24423
23.29617,23475
23.30550,23884
23.31485,24363
23.32418,26075
23.33352,29576
23.34287,30032
23.35220,27602
23.36153,23265
23.37088,22207
23.38022,22991
23.38955,22828
23.39890,22932
23.40823,22763
23.41757,21322
23.42692,23165
23.43625,22321
23.44558,21243
23.45493,22186
23.46427,22839
23.47360,21640
23.48295,22726
23.49228,22190
23.50163,22744
23.51097,21418
23.52030,22290
23.52965,25354
23.53898,27854
23.54832,24311
23.55767,24105
23.56700,22286
23.57633,23272
23.58568,23569
23.59502,23386
23.60435,21688
23.61370,21846
23.62303,21101
23.63237,20836
23.64172,21232
23.65105,20207
23.66040,22157
23.66973,20291
23.67907,21866
23.68842,22314
23.69775,24058
23.70708,23701
23.71643,24642
23.72577,24682
23.73510,24245
23.74445,22707
23.75378,22145
23.76312,21251
23.77247,23122
23.78180,21385
23.79113,21278
23.80048,22577
23.80982,20999
23.81915,21138
23.82850,20525
23.83783,21523
23.84718,20633
23.85652,20647
23.86585,22020
23.87520,21263
23.88453,21098
23.89387,21586
23.90322,21998
23.91255,21205
23.92188,21124
23.93123,21777
23.94057,20450
23.94990,20887
23.95925,21502
23.96858,21260
23.97792,20931
23.98727,20995
23.99660,21320
24.00593,21584
24.01528,21314
24.02462,20715
24.03397,21744
24.04330,19677
24.05263,19904
24.06198,21590
24.07132,21245
24.08065,21115
24.09000,20281
24.09933,22175
24.10867,22004
24.11802,21588
24.12735,22656
24.13668,21059
24.14603,20875
24.15537,21386
24.16470,20323
24.17405,20829
24.18338,21494
24.19272,21165
24.20207,21241
24.21140,21336
24.22075,19969
24.23008,21435
24.23942,21564
24.24877,22084
24.25810,22719
24.26743,21462
24.27678,21984
24.28612,21815
24.29545,22036
24.30480,23002
24.31413,23811
24.32347,23914
24.33282,24030
24.34215,23473
24.35148,23083
24.36083,22028
24.37017,21213
24.37952,23246
24.38885,22827
24.39818,22447
24.40753,21991
24.41687,21273
24.42620,21745
24.43555,20777
24.44488,21077
24.45422,21221
24.46357,20008
24.47290,20474
24.48223,21173
24.49158,21634
24.50092,21734
24.51025,21551
24.51960,21787
24.52893,23336
24.53827,22051
24.54762,22127
24.55695,22494
24.56630,22680
24.57563,21809
24.58497,21906
24.59432,23611
24.60365,22206
24.61298,23258
24.62233,23772
24.63167,23667
24.64100,23586
24.65035,23368
24.65968,22919
24.66902,23837
24.67837,23871
24.68770,23181
24.69703,23436
24.70638,22533
24.71572,22495
24.72505,22686
24.73440,21731
24.74373,22439
24.75308,23039
24.76242,21715
24.77175,21867
24.78110,22562
24.79043,22228
24.79977,21950
24.80912,22595
24.81845,23447
24.82778,22276
24.83713,22289
24.84647,21613
24.85580,23162
24.86515,23671
24.87448,23821
24.88382,25397
24.89317,23007
24.90250,23326
24.91183,24178
24.92118,22996
24.93052,23634
24.93987,23645
24.94920,22801
24.95853,24196
24.96788,23538
24.97722,22968
24.98655,22739
24.99590,22159
25.00523,23081
25.01457,22251
25.02392,22422
25.03325,23467
25.04258,22394
25.05193,22656
25.06127,22655
25.07060,21747
25.07995,22728
25.08928,23795
25.09862,23431
25.10797,23488
25.11730,25020
25.12665,24082
25.13598,24233
25.14532,23819
25.15467,23459
25.16400,24972
25.17333,23692
25.18268,24249
25.19202,23294
25.20135,23818
25.21070,22183
25.22003,24110
25.22937,22086
25.23872,23188
25.24805,23475
25.25738,21960
25.26673,22215
25.27607,23809
25.28540,22567
25.29475,23887
25.30408,26277
25.31343,40078
25.32277,59667
25.33210,73646
25.34145,66295
25.35078,43939
25.36012,33531
25.36947,29140
25.37880,26266
25.38813,26074
25.39748,25721
25.40682,26662
25.41615,24158
25.42550,25300
25.43483,24096
25.44417,25200
25.45352,25587
25.46285,25187
25.47220,26508
25.48153,28900
25.49087,27575
25.50022,27860
25.50955,26849
25.51888,24991
25.52823,26921
25.53757,25755
25.54690,24854
25.55625,25910
25.56558,25868
25.57492,23471
25.58427,26226
25.59360,23685
25.60293,24413
25.61228,24505
25.62162,25170
25.63095,25528
25.64030,26395
25.64963,25822
25.65898,27000
25.66832,25632
25.67765,26167
25.68700,26601
25.69633,25006
25.70567,25350
25.71502,25247
25.72435,26041
25.73368,25564
25.74303,26689
25.75237,27612
25.76170,26397
25.77105,27909
25.78038,27894
25.78972,27434
25.79907,30898
25.80840,31017
25.81773,32163
25.82708,28739
25.83642,29355
25.84577,28389
25.85510,27653
25.86443,26382
25.87378,28289
25.88312,28485
25.89245,28303
25.90180,27476
25.91113,27203
25.92047,26735
25.92982,26657
25.93915,27088
25.94848,26973
25.95783,26788
25.96717,27813
25.97650,25683
25.98585,25069
25.99518,25953
26.00452,26386
26.01387,25332
26.02320,25820
26.03255,26244
26.04188,27039
26.05122,26126
26.06057,25259
26.06990,26494
26.07923,26278
26.08858,25634
26.09792,26108
26.10725,26578
26.11660,27235
26.12593,27421
26.13527,28456
26.14462,28833
26.15395,27535
26.16328,27001
26.17263,26904
26.18197,26465
26.19132,26888
26.20065,25879
26.20998,26513
26.21933,26818
26.22867,25706
26.23800,25089
26.24735,26024
26.25668,26578
26.26602,25401
26.27537,24962
26.28470,24934
26.29403,26453
26.30338,26095
26.31272,25404
26.32205,25231
26.33140,26258
26.34073,26069
26.35007,27841
26.35942,26706
26.36875,25793
26.37810,27206
26.38743,26797
26.39677,26105
26.40612,27281
26.41545,28066
26.42478,28019
26.43413,27502
26.44347,28550
26.45280,29129
26.46215,29350
26.47148,29486
26.48082,29700
26.49017,29708
26.49950,28885
26.50883,28539
26.51818,27887
26.52752,29614
26.53685,31089
26.54620,29491
26.55553,28577
26.56488,29898
26.57422,29302
26.58355,27730
26.59290,29023
26.60223,27762
26.61157,28501
26.62092,27877
26.63025,28561
26.63958,29101
26.64893,29924
26.65827,28941
26.66760,28364
26.67695,27639
26.68628,30355
26.69562,27910
26.70497,29076
26.71430,28013
26.72363,26443
26.73298,28709
26.74232,29319
26.75167,28532
26.76100,26731
26.77033,28039
26.77968,29370
26.78902,28612
26.79835,28254
26.80770,28877
26.81703,27303
26.82637,29665
26.83572,31089
26.84505,30110
26.85438,30736
26.86373,29464
26.87307,29289
26.88240,30120
26.89175,28987
26.90108,30502
26.91042,29401
26.91977,28281
26.92910,29253
26.93845,29281
26.94778,28305
26.95712,27893
26.96647,29000
26.97580,27950
26.98513,28673
26.99448,27803
27.00382,27422
27.01315,27736
27.02250,28736
27.03183,27832
27.04117,26997
27.05052,28830
27.05985,28306
27.06918,28594
27.07853,27982
27.08787,27333
27.09722,28760
27.10655,28312
27.11588,27961
27.12523,29724
27.13457,27772
27.14390,28707
27.15325,27665
27.16258,29141
27.17192,28356
27.18127,27948
27.19060,27289
27.19993,27833
27.20928,27679
27.21862,29384
27.22795,28367
27.23730,27191
27.24663,30039
27.25597,33101
27.26532,34107
27.27465,31768
27.28400,30051
27.29333,28177
27.30267,27714
27.31202,29012
27.32135,27137
27.33068,27980
27.34003,27992
27.34937,28184
27.35870,29513
27.36805,30602
27.37738,31672
27.38672,32406
27.39607,31862
27.40540,32024
27.41473,30857
27.42408,32035
27.43342,31888
27.44275,31824
27.45210,32089
27.46143,29976
27.47078,31670
27.48012,30874
27.48945,31057
27.49880,31024
27.50813,32846
27.51747,31623
27.52682,30316
27.53615,32505
27.54548,30647
27.55483,32076
27.56417,30435
27.57350,30609
27.58285,30911
27.59218,28859
27.60152,28861
27.61087,30272
27.62020,30438
27.62953,29689
27.63888,29668
27.64822,29561
27.65757,33273
27.66690,42269
27.67623,56574
27.68558,60540
27.69492,52349
27.70425,43867
27.71360,39071
27.72293,36263
27.73227,36703
27.74162,32526
27.75095,32566
27.76028,31749
27.76963,31317
27.77897,32704
27.78830,30791
27.79765,30241
27.80698,32361
27.81633,31995
27.82567,31917
27.83500,31438
27.84435,31406
27.85368,32457
27.86302,32103
27.87237,33984
27.88170,32478
27.89103,31829
27.90038,32698
27.90972,32060
27.91905,32165
27.92840,31967
27.93773,32833
27.94707,31145
27.95642,33218
27.96575,34036
27.97508,32434
27.98443,32381
27.99377,31700
28.00312,31370
28.01245,31509
28.02178,30735
28.03113,30447
28.04047,31800
28.04980,30908
28.05915,30778
28.06848,32591
28.07782,32107
28.08717,31806
28.09650,31035
28.10583,32209
28.11518,33296
28.12452,33754
28.13385,33454
28.14320,32934
28.15253,33206
28.16187,32725
28.17122,31182
28.18055,33329
28.18990,33135
28.19923,34799
28.20857,34537
28.21792,34508
28.22725,33388
28.23658,32868
28.24593,32981
28.25527,33830
28.26460,33333
28.27395,34594
28.28328,32359
28.29262,33009
28.30197,34237
28.31130,33563
28.32063,33125
28.32998,34881
28.33932,34565
28.34865,33145
28.35800,32638
28.36733,32493
28.37668,33351
28.38602,34366
28.39535,33230
28.40470,33197
28.41403,33320
28.42337,32978
28.43272,33625
28.44205,33691
28.45138,34189
28.46073,34120
28.47007,32868
28.47940,34073
28.48875,33407
28.49808,34060
28.50742,33809
28.51677,34536
28.52610,32603
28.53543,33981
28.54478,34980
28.55412,34515
28.56347,33495
28.57280,34556
28.58213,35613
28.59148,35385
28.60082,33983
28.61015,35167
28.61950,34711
28.62883,36121
28.63817,35053
28.64752,37142
28.65685,39091
28.66618,48786
28.67553,58673
28.68487,65104
28.69420,62554
28.70355,51374
28.71288,46032
28.72222,40420
28.73157,39936
28.74090,39283
28.75025,39873
28.75958,37105
28.76892,38058
28.77827,37780
28.78760,36960
28.79693,36465
28.80628,37134
28.81562,36410
28.82495,37310
28.83430,36861
28.84363,38050
28.85297,37747
28.86232,37467
28.87165,36778
28.88098,36528
28.89033,36765
28.89967,37698
28.90902,39049
28.91835,38111
28.92768,37565
28.93703,38961
28.94637,38020
28.95570,38113
28.96505,39197
28.97438,39699
28.98372,37954
28.99307,38185
29.00240,40386
29.01173,38974
29.02108,39169
29.03042,38865
29.03975,39066
29.04910,38449
29.05843,39091
29.06777,38621
29.07712,37775
29.08645,37292
29.09580,38796
29.10513,39207
29.11447,38247
29.12382,38305
29.13315,37974
29.14248,39338
29.15183,40182
29.16117,40720
29.17050,38070
29.17985,39189
29.18918,40809
29.19852,39797
29.20787,40400
29.21720,40465
29.22653,38693
29.23588,39914
29.24522,42094
29.25455,40845
29.26390,40642
29.27323,42025
29.28258,42269
29.29192,40853
29.30125,42500
29.31060,41772
29.31993,41514
29.32927,40915
29.33862,41032
29.34795,41064
29.35728,41243
29.36663,40880
29.37597,42167
29.38530,42209
29.39465,41023
29.40398,42256
29.41332,40881
29.42267,42359
29.43200,41528
29.44133,42855
29.45068,43823
29.46002,45450
29.46937,47759
29.47870,47183
29.48803,45477
29.49738,44882
29.50672,44277
29.51605,42820
29.52540,44369
29.53473,43583
29.54407,42590
29.55342,43059
29.56275,42812
29.57208,42202
29.58143,42761
29.59077,41392
29.60010,41500
29.60945,41313
29.61878,43584
29.62813,42030
29.63747,42811
29.64680,42587
29.65615,42321
29.66548,43281
29.67482,42551
29.68417,41680
29.69350,42745
29.70283,42836
29.71218,44963
29.72152,43285
29.73085,43985
29.74020,44541
29.74953,43049
29.75887,42315
29.76822,43520
29.77755,41969
29.78688,41978
29.79623,44018
29.80557,40594
29.81492,42536
29.82425,41281
29.83358,43424
29.84293,42665
29.85227,42112
29.86160,42540
29.87095,42677
29.88028,42015
29.88962,40473
29.89897,44574
29.90830,44017
29.91763,42762
29.92698,43119
29.93632,41950
29.94565,44263
29.95500,44436
29.96433,44794
29.97367,43425
29.98302,44067
29.99235,46205
30.00170,47384
30.01103,46882
30.02037,49477
30.02972,48363
30.03905,46693
30.04838,45932
30.05773,44123
30.06707,45671
30.07640,45181
30.08575,44736
30.09508,44956
30.10442,44528
30.11377,45822
30.12310,46437
30.13243,44354
30.14178,46483
30.15112,46238
30.16045,46797
30.16980,46395
30.17913,45983
30.18848,45999
30.19782,45337
30.20715,45460
30.21650,45706
30.22583,43989
30.23517,44185
30.24452,44797
30.25385,44018
30.26318,44354
30.27253,44571
30.28187,46813
30.29120,45023
30.30055,47368
30.30988,47739
30.31922,47188
30.32857,47703
30.33790,46551
30.34723,46337
30.35658,47011
30.36592,49078
30.37527,50714
30.38460,48599
30.39393,47948
30.40328,49340
30.41262,47742
30.42195,48676
30.43130,45799
30.44063,45850
30.44997,45414
30.45932,47769
30.46865,45575
30.47798,46708
30.48733,44884
30.49667,44805
30.50600,44757
30.51535,45661
30.52468,47269
30.53403,47004
30.54337,46693
30.55270,46472
30.56205,45458
30.57138,47089
30.58072,48705
30.59007,49384
30.59940,51626
30.60873,52971
30.61808,55343
30.62742,54269
30.63675,56141
30.64610,57501
30.65543,57688
30.66477,58412
30.67412,56998
30.68345,56975
30.69278,56291
30.70213,53365
30.71147,54350
30.72082,50394
30.73015,51329
30.73948,51458
30.74883,48717
30.75817,51249
30.76750,50485
30.77685,51315
30.78618,51149
30.79552,51461
30.80487,50544
30.81420,50322
30.82353,52303
30.83288,50947
30.84222,53142
30.85155,54371
30.86090,55505
30.87023,55451
30.87957,56659
30.88892,59507
30.89825,58318
30.90760,56972
30.91693,55915
30.92627,58184
30.93562,58942
30.94495,58085
30.95428,59220
30.96363,58232
30.97297,56598
30.98230,55942
30.99165,56795
31.00098,56611
31.01032,54591
31.01967,57341
31.02900,55352
31.03833,55118
31.04768,55104
31.05702,54096
31.06635,56091
31.07570,54932
31.08503,55309
31.09438,57463
31.10372,56581
31.11305,56829
31.12240,58614
31.13173,57114
31.14107,58152
31.15042,59224
31.15975,57177
31.16908,57577
31.17843,57253
31.18777,56073
31.19710,58061
31.20645,57662
31.21578,57292
31.22512,57788
31.23447,56721
31.24380,57950
31.25315,55332
31.26248,57493
31.27182,58006
31.28117,56302
31.29050,56229
31.29983,57120
31.30918,57009
31.31852,56271
31.32785,57177
31.33720,57865
31.34653,59992
31.35587,58246
31.36522,57652
