D:\数据\20220209\LCLN-ZS1E #000352.D Wed Feb 09 20:34:21 2022
Start of data points
0.09768,19744
0.10703,19743
0.11637,21395
0.12570,21777
0.13505,22265
0.14438,20863
0.15372,19547
0.16307,20373
0.17240,19368
0.18175,19243
0.19108,19007
0.20042,19344
0.20977,19424
0.21910,18624
0.22843,19226
0.23778,18083
0.24712,18163
0.25645,17872
0.26580,18184
0.27513,17745
0.28447,18684
0.29382,18971
0.30315,17800
0.31248,18665
0.32183,18351
0.33117,17747
0.34050,17500
0.34985,18629
0.35918,18088
0.36853,19113
0.37787,18385
0.38720,17309
0.39655,13444
0.40588,12541
0.41522,10881
0.42457,6190
0.43390,4282
0.44323,4103
0.45258,4258
0.46192,4249
0.47125,4370
0.48060,3146
0.48993,3862
0.49927,3823
0.50862,3816
0.51795,3680
0.52728,3340
0.53663,3202
0.54597,3603
0.55532,3720
0.56465,3734
0.57398,3469
0.58333,3971
0.59267,3239
0.60200,3951
0.61135,3510
0.62068,3709
0.63002,3871
0.63937,3372
0.64870,3854
0.65803,3633
0.66738,3097
0.67672,3452
0.68605,3905
0.69540,3443
0.70473,3406
0.71408,3827
0.72342,3497
0.73275,3784
0.74210,3008
0.75143,4053
0.76077,3405
0.77012,3381
0.77945,3684
0.78878,3824
0.79813,3675
0.80747,3477
0.81680,3126
0.82615,2981
0.83548,3586
0.84482,3483
0.85417,3275
0.86350,3268
0.87283,3279
0.88218,3567
0.89152,3677
0.90087,3176
0.91020,3188
0.91953,3083
0.92888,3249
0.93822,3242
0.94755,3231
0.95690,3266
0.96623,3728
0.97557,3511
0.98492,3522
0.99425,3194
1.00358,3503
1.01293,3295
1.02227,3460
1.03160,3923
1.04095,3932
1.05028,3585
1.05962,3316
1.06897,3004
1.07830,3978
1.08765,3204
1.09698,3592
1.10632,3364
1.11567,2970
1.12500,3611
1.13433,3419
1.14368,3384
1.15302,3230
1.16235,3480
1.17170,3190
1.18103,2978
1.19037,3222
1.19972,3137
1.20905,3294
1.21838,3170
1.22773,3710
1.23707,3129
1.24640,3456
1.25575,3546
1.26508,2954
1.27443,3433
1.28377,2844
1.29310,3666
1.30245,3037
1.31178,3147
1.32112,3214
1.33047,2975
1.33980,3397
1.34913,3655
1.35848,3435
1.36782,3410
1.37715,3351
1.38650,3229
1.39583,2684
1.40517,2871
1.41452,3385
1.42385,3074
1.43318,3283
1.44253,2794
1.45187,3309
1.46122,3187
1.47055,2886
1.47988,3262
1.48923,3354
1.49857,2576
1.50790,2845
1.51725,2902
1.52658,2798
1.53592,2928
1.54527,2674
1.55460,3150
1.56393,3151
1.57328,3230
1.58262,5666
1.59195,10431
1.60130,14358
1.61063,19292
1.61997,24656
1.62932,34331
1.63865,42068
1.64800,44213
1.65733,39840
1.66667,33020
1.67602,29147
1.68535,25428
1.69468,18325
1.70403,14096
1.71337,13271
1.72270,15607
1.73205,17254
1.74138,19747
1.75072,21024
1.76007,21275
1.76940,22098
1.77873,23264
1.78808,22651
1.79742,21955
1.80677,22944
1.81610,21617
1.82543,23015
1.83478,21770
1.84412,21642
1.85345,22633
1.86280,22849
1.87213,23488
1.88147,27664
1.89082,33834
1.90015,42351
1.90948,53505
1.91883,68803
1.92817,94905
1.93750,138896
1.94685,195131
1.95618,237900
1.96552,242979
1.97487,216592
1.98420,170018
1.99355,127700
2.00288,100962
2.01222,90055
2.02157,101526
2.03090,116058
2.04023,120649
2.04958,121706
2.05892,94653
2.06825,72523
2.07760,68075
2.08693,90485
2.09627,89170
2.10562,66573
2.11495,55088
2.12428,58767
2.13363,110671
2.14297,194826
2.15230,195979
2.16165,149343
2.17098,103711
2.18033,91287
2.18967,112308
2.19900,108299
2.20835,78442
2.21768,61083
2.22702,73008
2.23637,108457
2.24570,186855
2.25503,827806
2.26438,1741477
2.27372,1672083
2.28305,1134792
2.29240,669716
2.30173,388626
2.31107,268886
2.32042,199436
2.32975,133590
2.33908,90044
2.34843,65942
2.35777,56254
2.36712,53679
2.37645,56978
2.38578,60182
2.39513,62705
2.40447,66036
2.41380,64569
2.42315,59370
2.43248,49918
2.44182,43489
2.45117,41163
2.46050,40062
2.46983,40860
2.47918,42783
2.48852,39979
2.49785,37435
2.50720,35545
2.51653,35166
2.52588,35108
2.53522,34788
2.54455,36089
2.55390,40821
2.56323,52658
2.57257,85882
2.58192,96009
2.59125,83953
2.60058,70591
2.60993,67703
2.61927,71068
2.62860,68595
2.63795,62381
2.64728,57966
2.65662,56772
2.66597,50622
2.67530,45290
2.68463,38416
2.69398,35750
2.70332,35822
2.71267,39643
2.72200,51053
2.73133,59088
2.74068,60587
2.75002,60028
2.75935,60564
2.76870,66195
2.77803,77028
2.78737,88246
2.79672,86457
2.80605,70739
2.81538,60555
2.82473,54384
2.83407,49370
2.84340,48091
2.85275,54899
2.86208,64632
2.87142,66481
2.88077,61542
2.89010,53870
2.89945,50033
2.90878,47991
2.91812,46457
2.92747,46398
2.93680,42814
2.94613,40856
2.95548,39125
2.96482,37262
2.97415,38217
2.98350,36508
2.99283,39085
3.00217,41040
3.01152,41743
3.02085,41855
3.03018,41066
3.03953,44655
3.04887,49230
3.05820,57092
3.06755,70571
3.07688,70844
3.08623,59947
3.09557,46210
3.10490,40180
3.11425,35517
3.12358,32793
3.13292,34745
3.14227,35798
3.15160,38381
3.16093,40361
3.17028,39687
3.17962,38645
3.18895,36474
3.19830,37220
3.20763,38718
3.21697,38272
3.22632,35385
3.23565,33746
3.24498,32989
3.25433,32898
3.26367,33361
3.27302,34146
3.28235,31017
3.29168,33021
3.30103,33906
3.31037,33210
3.31970,33144
3.32905,32259
3.33838,32097
3.34772,32438
3.35707,31594
3.36640,30540
3.37573,31615
3.38508,29245
3.39442,31019
3.40375,33184
3.41310,36838
3.42243,36455
3.43178,37455
3.44112,36976
3.45045,37053
3.45980,36759
3.46913,35034
3.47847,35256
3.48782,36086
3.49715,37151
3.50648,34328
3.51583,32559
3.52517,32024
3.53450,31375
3.54385,42789
3.55318,94423
3.56252,210898
3.57187,284660
3.58120,242562
3.59053,146640
3.59988,81778
3.60922,58631
3.61857,50989
3.62790,44971
3.63723,44668
3.64658,38995
3.65592,38341
3.66525,36542
3.67460,37420
3.68393,37523
3.69327,35807
3.70262,32880
3.71195,34402
3.72128,37157
3.73063,37718
3.73997,36177
3.74930,33516
3.75865,32894
3.76798,30353
3.77732,29924
3.78667,30345
3.79600,31812
3.80535,35858
3.81468,45166
3.82402,49748
3.83337,46269
3.84270,39546
3.85203,37107
3.86138,35872
3.87072,34439
3.88005,35092
3.88940,36997
3.89873,43439
3.90807,44989
3.91742,41465
3.92675,36417
3.93608,33534
3.94543,38285
3.95477,43951
3.96410,44920
3.97345,40423
3.98278,35586
3.99213,32256
4.00147,29826
4.01080,30035
4.02015,30120
4.02948,31717
4.03882,30971
4.04817,29829
4.05750,30836
4.06683,32921
4.07618,39515
4.08552,49140
4.09485,53341
4.10420,49741
4.11353,42248
4.12287,36420
4.13222,31180
4.14155,32253
4.15090,30982
4.16023,31173
4.16957,30893
4.17892,29500
4.18825,28672
4.19758,28754
4.20693,31937
4.21627,32524
4.22560,31195
4.23495,29382
4.24428,29448
4.25362,28930
4.26297,31190
4.27230,32478
4.28163,33160
4.29098,32851
4.30032,30960
4.30965,29473
4.31900,30356
4.32833,30136
4.33768,31216
4.34702,33491
4.35635,32287
4.36570,31415
4.37503,30494
4.38437,28962
4.39372,29447
4.40305,29313
4.41238,27610
4.42173,28622
4.43107,27882
4.44040,28563
4.44975,28409
4.45908,29805
4.46842,31853
4.47777,37800
4.48710,37136
4.49643,35119
4.50578,32951
4.51512,29928
4.52447,29498
4.53380,29961
4.54313,28249
4.55248,30042
4.56182,29283
4.57115,30736
4.58050,29820
4.58983,27927
4.59917,28484
4.60852,28463
4.61785,28146
4.62718,28733
4.63653,28440
4.64587,28917
4.65520,31632
4.66455,32661
4.67388,31694
4.68322,30793
4.69257,29155
4.70190,29551
4.71125,29540
4.72058,29084
4.72992,36091
4.73927,38097
4.74860,36200
4.75793,33538
4.76728,32405
4.77662,31116
4.78595,31431
4.79530,31276
4.80463,32265
4.81397,31579
4.82332,32223
4.83265,34490
4.84198,33778
4.85133,33044
4.86067,31475
4.87000,34230
4.87935,35034
4.88868,32176
4.89803,30677
4.90737,30245
4.91670,28421
4.92605,28521
4.93538,31116
4.94472,30458
4.95407,29980
4.96340,29451
4.97273,28964
4.98208,28120
4.99142,27996
5.00075,27472
5.01010,28726
5.01943,29150
5.02877,28464
5.03812,29871
5.04745,28612
5.05680,28003
5.06613,28357
5.07547,29680
5.08482,32082
5.09415,31486
5.10348,31734
5.11283,29331
5.12217,29223
5.13150,29006
5.14085,26598
5.15018,26693
5.15952,28085
5.16887,28375
5.17820,27867
5.18753,31584
5.19688,32161
5.20622,30579
5.21555,29257
5.22490,28212
5.23423,29081
5.24358,30599
5.25292,31396
5.26225,31744
5.27160,44233
5.28093,74250
5.29027,112306
5.29962,112111
5.30895,78170
5.31828,48984
5.32763,35686
5.33697,32610
5.34630,32495
5.35565,31076
5.36498,32121
5.37432,32345
5.38367,31927
5.39300,31491
5.40233,32016
5.41168,30341
5.42102,30953
5.43037,30254
5.43970,29620
5.44903,29545
5.45838,30147
5.46772,29023
5.47705,29951
5.48640,29137
5.49573,29751
5.50507,29888
5.51442,30565
5.52375,32257
5.53308,34187
5.54243,34350
5.55177,32340
5.56110,31696
5.57045,30051
5.57978,30003
5.58912,29655
5.59847,29159
5.60780,28574
5.61715,28893
5.62648,26799
5.63582,27852
5.64517,27659
5.65450,28864
5.66383,29059
5.67318,28871
5.68252,29062
5.69185,29721
5.70120,31371
5.71053,31154
5.71987,33171
5.72922,32359
5.73855,31486
5.74788,35815
5.75723,37672
5.76657,37584
5.77592,33909
5.78525,31853
5.79458,31032
5.80393,30457
5.81327,29024
5.82260,25189
5.83195,22043
5.84128,21151
5.85062,19152
5.85997,18029
5.86930,18614
5.87863,19009
5.88798,20592
5.89732,22861
5.90665,27387
5.91600,31209
5.92533,38107
5.93467,42824
5.94402,49970
5.95335,57837
5.96270,54907
5.97203,37314
5.98137,23247
5.99072,16492
6.00005,13959
6.00938,12664
6.01873,11967
6.02807,11232
6.03740,11107
6.04675,11020
6.05608,11637
6.06542,12836
6.07477,12591
6.08410,11807
6.09343,10316
6.10278,9885
6.11212,10262
6.12145,12402
6.13080,15656
6.14013,15944
6.14948,15171
6.15882,13159
6.16815,11471
6.17750,11542
6.18683,10965
6.19617,10018
6.20552,9793
6.21485,9934
6.22418,10552
6.23353,12622
6.24287,12953
6.25220,11868
6.26155,12318
6.27088,15399
6.28022,18218
6.28957,17866
6.29890,15078
6.30823,12010
6.31758,11268
6.32692,11380
6.33627,10947
6.34560,11734
6.35493,11131
6.36428,11406
6.37362,12368
6.38295,14293
6.39230,20922
6.40163,46473
6.41097,112623
6.42032,157343
6.42965,125841
6.43898,58275
6.44833,26173
6.45767,16417
6.46700,15164
6.47635,15069
6.48568,13408
6.49502,13205
6.50437,12228
6.51370,13151
6.52305,12997
6.53238,12609
6.54172,12283
6.55107,12582
6.56040,12100
6.56973,11004
6.57908,11431
6.58842,11758
6.59775,12114
6.60710,12258
6.61643,13105
6.62577,13436
6.63512,13020
6.64445,13604
6.65378,12861
6.66313,13044
6.67247,13848
6.68182,13072
6.69115,11656
6.70048,14105
6.70983,14284
6.71917,14082
6.72850,13077
6.73785,12762
6.74718,11476
6.75652,10410
6.76587,9775
6.77520,10748
6.78453,11033
6.79388,13277
6.80322,15670
6.81255,15019
6.82190,13075
6.83123,11138
6.84057,10603
6.84992,10783
6.85925,10500
6.86860,10836
6.87793,10971
6.88727,11019
6.89662,12198
6.90595,13811
6.91528,14531
6.92463,14239
6.93397,12663
6.94330,11970
6.95265,11204
6.96198,11299
6.97132,11329
6.98067,10652
6.99000,11172
6.99933,10333
7.00868,10372
7.01802,10809
7.02735,11033
7.03670,10658
7.04603,9000
7.05538,8872
7.06472,9249
7.07405,8932
7.08340,9711
7.09273,10021
7.10207,11041
7.11142,11118
7.12075,12430
7.13008,11657
7.13943,11765
7.14877,11149
7.15810,10879
7.16745,10322
7.17678,10180
7.18612,9839
7.19547,9915
7.20480,10412
7.21413,10459
7.22348,13123
7.23282,21412
7.24217,32334
7.25150,34587
7.26083,26757
7.27018,16951
7.27952,13497
7.28885,12549
7.29820,12056
7.30753,11370
7.31687,10643
7.32622,9882
7.33555,9473
7.34488,10086
7.35423,11182
7.36357,9972
7.37290,9451
7.38225,11535
7.39158,18956
7.40093,33953
7.41027,54310
7.41960,60419
7.42895,46220
7.43828,28487
7.44762,16572
7.45697,12816
7.46630,12023
7.47563,13031
7.48498,13688
7.49432,12583
7.50365,11894
7.51300,11049
7.52233,9844
7.53167,9992
7.54102,10324
7.55035,10014
7.55968,11850
7.56903,13652
7.57837,13712
7.58772,11849
7.59705,11480
7.60638,11911
7.61573,11945
7.62507,11396
7.63440,12486
7.64375,12273
7.65308,10849
7.66242,10902
7.67177,11253
7.68110,11709
7.69043,12056
7.69978,11963
7.70912,11152
7.71845,11155
7.72780,10305
7.73713,10761
7.74647,12228
7.75582,12405
7.76515,12156
7.77450,12684
7.78383,12979
7.79317,14347
7.80252,13145
7.81185,12611
7.82118,11888
7.83053,11765
7.83987,12373
7.84920,14641
7.85855,21788
7.86788,31037
7.87722,37554
7.88657,30940
7.89590,23214
7.90523,22104
7.91458,29249
7.92392,38848
7.93325,35722
7.94260,24919
7.95193,19310
7.96128,18824
7.97062,19555
7.97995,17453
7.98930,15128
7.99863,14473
8.00797,13492
8.01732,11923
8.02665,14011
8.03598,14693
8.04533,17422
8.05467,16122
8.06400,13682
8.07335,11391
8.08268,13012
8.09202,17557
8.10137,25365
8.11070,25720
8.12003,21087
8.12938,14232
8.13872,12907
8.14807,12024
8.15740,11797
8.16673,12066
8.17608,12480
8.18542,13387
8.19475,12694
8.20410,11901
8.21343,12790
8.22277,13943
8.23212,14949
8.24145,13554
8.25078,15324
8.26013,13069
8.26947,12103
8.27880,12701
8.28815,13671
8.29748,12788
8.30683,12439
8.31617,12225
8.32550,12292
8.33485,12521
8.34418,12708
8.35352,11930
8.36287,12275
8.37220,11451
8.38153,13256
8.39088,13829
8.40022,14877
8.40955,15231
8.41890,14972
8.42823,15678
8.43757,15064
8.44692,16527
8.45625,15963
8.46558,15909
8.47493,16394
8.48427,15830
8.49362,15718
8.50295,14511
8.51228,15375
8.52163,13797
8.53097,15415
8.54030,17281
8.54965,19545
8.55898,20135
8.56832,17987
8.57767,17982
8.58700,18533
8.59633,17066
8.60568,18251
8.61502,17832
8.62435,17113
8.63370,15221
8.64303,16316
8.65237,14188
8.66172,15142
8.67105,15093
8.68040,14175
8.68973,14680
8.69907,14256
8.70842,13943
8.71775,15802
8.72708,14431
8.73643,14428
8.74577,14168
8.75510,14195
8.76445,15297
8.77378,14767
8.78312,15901
8.79247,16280
8.80180,20070
8.81113,26045
8.82048,27044
8.82982,22835
8.83915,18169
8.84850,17163
8.85783,15169
8.86718,15776
8.87652,16985
8.88585,15561
8.89520,14706
8.90453,14891
8.91387,16032
8.92322,15415
8.93255,14840
8.94188,14552
8.95123,13478
8.96057,13542
8.96990,13586
8.97925,13310
8.98858,13815
8.99792,13876
9.00727,13604
9.01660,14691
9.02595,13677
9.03528,14371
9.04462,14164
9.05397,14429
9.06330,14522
9.07263,14116
9.08198,14696
9.09132,14849
9.10065,13267
9.11000,14201
9.11933,13608
9.12867,15491
9.13802,16675
9.14735,16904
9.15668,15360
9.16603,14401
9.17537,12642
9.18470,13511
9.19405,13526
9.20338,12840
9.21273,14863
9.22207,18135
9.23140,21589
9.24075,22215
9.25008,18719
9.25942,17092
9.26877,16041
9.27810,16187
9.28743,15704
9.29678,14757
9.30612,15173
9.31545,13244
9.32480,12707
9.33413,14087
9.34347,15417
9.35282,18275
9.36215,36871
9.37148,70363
9.38083,92818
9.39017,79724
9.39952,54180
9.40885,36168
9.41818,27357
9.42753,25499
9.43687,21283
9.44620,19188
9.45555,16263
9.46488,14396
9.47422,14094
9.48357,14027
9.49290,14811
9.50223,14939
9.51158,14234
9.52092,14423
9.53025,16468
9.53960,18986
9.54893,18908
9.55827,19302
9.56762,19624
9.57695,18194
9.58630,16224
9.59563,15087
9.60497,14819
9.61432,14145
9.62365,15458
9.63298,15356
9.64233,15007
9.65167,14788
9.66100,14615
9.67035,14851
9.67968,13208
9.68902,14230
9.69837,12178
9.70770,13920
9.71703,26202
9.72638,120476
9.73572,504850
9.74505,1080528
9.75440,1239137
9.76373,807999
9.77308,387220
9.78242,189832
9.79175,119730
9.80110,89591
9.81043,70631
9.81977,60142
9.82912,53074
9.83845,49869
9.84778,46124
9.85713,41653
9.86647,39011
9.87580,42871
9.88515,48887
9.89448,63020
9.90382,73181
9.91317,108671
9.92250,148087
9.93185,125569
9.94118,77740
9.95052,44713
9.95987,33818
9.96920,30966
9.97853,38490
9.98788,52855
9.99722,58876
10.00655,47499
10.01590,35553
10.02523,28332
10.03457,26503
10.04392,23457
10.05325,24997
10.06258,30215
10.07193,36906
10.08127,40536
10.09060,34143
10.09995,28049
10.10928,26858
10.11863,49673
10.12797,86067
10.13730,103267
10.14665,94268
10.15598,127768
10.16532,226678
10.17467,238039
10.18400,135361
10.19333,51120
10.20268,24407
10.21202,21155
10.22135,20515
10.23070,25107
10.24003,37674
10.24937,46218
10.25872,40169
10.26805,27602
10.27738,21957
10.28673,17815
10.29607,17048
10.30542,18654
10.31475,17997
10.32408,17053
10.33343,16234
10.34277,16752
10.35210,16570
10.36145,16379
10.37078,17095
10.38012,16450
10.38947,14963
10.39880,16604
10.40813,15765
10.41748,16641
10.42682,15442
10.43615,15492
10.44550,16214
10.45483,18066
10.46417,19301
10.47352,19501
10.48285,16845
10.49220,15084
10.50153,14921
10.51087,14754
10.52022,15941
10.52955,15167
10.53888,16763
10.54823,17144
10.55757,16414
10.56690,16629
10.57625,16161
10.58558,16316
10.59492,16888
10.60427,14073
10.61360,15463
10.62293,15275
10.63228,17439
10.64162,17420
10.65097,18134
10.66030,15914
10.66963,17268
10.67898,17903
10.68832,19566
10.69765,16999
10.70700,17012
10.71633,19539
10.72567,21557
10.73502,19500
10.74435,21389
10.75368,36533
10.76303,59645
10.77237,67818
10.78170,54488
10.79105,44453
10.80038,54560
10.80972,64616
10.81907,55825
10.82840,34761
10.83775,23599
10.84708,19913
10.85642,19060
10.86577,20537
10.87510,25870
10.88443,29289
10.89378,29425
10.90312,24460
10.91245,21000
10.92180,19624
10.93113,17376
10.94047,17801
10.94982,17676
10.95915,17678
10.96848,18074
10.97783,17676
10.98717,15754
10.99650,15533
11.00585,15774
11.01518,15608
11.02453,15590
11.03387,15724
11.04320,14678
11.05255,15712
11.06188,15393
11.07122,14755
11.08057,14406
11.08990,14166
11.09923,15867
11.10858,17523
11.11792,18210
11.12725,18024
11.13660,16958
11.14593,15679
11.15527,14810
11.16462,15371
11.17395,14316
11.18328,14294
11.19263,13973
11.20197,14443
11.21132,14860
11.22065,15068
11.22998,16312
11.23933,16393
11.24867,14689
11.25800,16355
11.26735,16882
11.27668,16759
11.28602,16473
11.29537,15274
11.30470,15061
11.31403,15197
11.32338,15296
11.33272,16039
11.34205,20397
11.35140,24462
11.36073,26195
11.37007,23448
11.37942,20387
11.38875,20087
11.39810,20255
11.40743,21089
11.41677,20627
11.42612,18630
11.43545,16390
11.44478,15473
11.45413,17072
11.46347,18224
11.47280,22093
11.48215,21780
11.49148,18276
11.50082,15405
11.51017,14181
11.51950,14004
11.52883,14059
11.53818,13543
11.54752,15420
11.55687,18344
11.56620,25246
11.57553,36686
11.58488,45129
11.59422,40640
11.60355,31140
11.61290,26433
11.62223,22588
11.63157,19960
11.64092,18792
11.65025,18292
11.65958,17542
11.66893,18696
11.67827,18041
11.68760,17203
11.69695,17356
11.70628,19296
11.71562,19603
11.72497,18720
11.73430,18314
11.74365,17645
11.75298,17294
11.76232,17208
11.77167,17038
11.78100,19268
11.79033,21837
11.79968,19678
11.80902,17886
11.81835,17391
11.82770,19304
11.83703,19820
11.84637,19600
11.85572,18875
11.86505,17731
11.87438,16151
11.88373,16513
11.89307,17034
11.90240,15429
11.91175,14450
11.92108,14678
11.93043,16404
11.93977,19767
11.94910,24268
11.95845,24260
11.96778,21894
11.97712,16734
11.98647,16986
11.99580,16812
12.00513,20796
12.01448,26931
12.02382,27515
12.03315,23625
12.04250,19515
12.05183,17762
12.06117,16847
12.07052,15331
12.07985,16500
12.08918,17235
12.09853,17373
12.10787,16871
12.11722,16463
12.12655,16192
12.13588,15358
12.14523,17363
12.15457,18591
12.16390,23611
12.17325,40648
12.18258,54891
12.19192,46827
12.20127,27285
12.21060,19230
12.21993,18256
12.22928,20672
12.23862,21144
12.24795,18173
12.25730,22649
12.26663,54727
12.27598,140201
12.28532,210824
12.29465,165674
12.30400,80048
12.31333,38417
12.32267,27020
12.33202,23451
12.34135,21664
12.35068,21946
12.36003,18492
12.36937,18691
12.37870,18025
12.38805,18665
12.39738,17951
12.40672,16894
12.41607,18593
12.42540,18481
12.43473,18095
12.44408,17259
12.45342,17451
12.46277,19209
12.47210,19744
12.48143,21556
12.49078,22452
12.50012,22097
12.50945,22030
12.51880,22347
12.52813,21678
12.53747,20998
12.54682,20457
12.55615,20580
12.56548,22669
12.57483,20857
12.58417,18293
12.59350,16101
12.60285,15871
12.61218,17174
12.62152,16804
12.63087,18927
12.64020,23697
12.64955,25883
12.65888,23344
12.66822,19208
12.67757,18941
12.68690,15354
12.69623,16671
12.70558,16228
12.71492,16392
12.72425,18208
12.73360,17604
12.74293,18454
12.75227,18071
12.76162,18303
12.77095,17354
12.78028,16884
12.78963,16436
12.79897,15296
12.80830,16680
12.81765,17180
12.82698,17178
12.83633,16609
12.84567,16804
12.85500,15633
12.86435,14752
12.87368,15013
12.88302,16195
12.89237,15418
12.90170,17336
12.91103,15638
12.92038,14322
12.92972,14322
12.93905,15761
12.94840,16252
12.95773,15231
12.96707,16362
12.97642,15271
12.98575,14754
12.99508,12893
13.00443,13909
13.01377,14347
13.02312,16851
13.03245,18987
13.04178,19260
13.05113,18205
13.06047,15140
13.06980,15601
13.07915,16970
13.08848,16846
13.09782,15779
13.10717,16626
13.11650,16864
13.12583,17042
13.13518,18172
13.14452,19325
13.15385,21262
13.16320,21413
13.17253,22614
13.18187,21775
13.19122,27747
13.20055,48993
13.20990,97944
13.21923,121827
13.22857,92303
13.23792,54344
13.24725,46384
13.25658,47794
13.26593,38532
13.27527,27237
13.28460,21576
13.29395,20213
13.30328,17529
13.31262,19781
13.32197,22037
13.33130,23774
13.34063,22423
13.34998,25464
13.35932,23919
13.36867,21115
13.37800,18603
13.38733,18311
13.39668,22810
13.40602,22685
13.41535,21942
13.42470,18640
13.43403,19111
13.44337,22648
13.45272,21437
13.46205,20462
13.47138,20726
13.48073,20698
13.49007,20943
13.49940,17623
13.50875,19614
13.51808,32210
13.52742,54013
13.53677,60997
13.54610,44848
13.55545,27593
13.56478,19657
13.57412,18098
13.58347,16298
13.59280,15770
13.60213,15937
13.61148,16034
13.62082,16001
13.63015,15666
13.63950,19510
13.64883,22102
13.65817,23199
13.66752,21221
13.67685,18036
13.68618,15680
13.69553,16180
13.70487,14957
13.71420,14971
13.72355,14050
13.73288,15078
13.74223,14841
13.75157,15525
13.76090,15671
13.77025,16055
13.77958,16419
13.78892,17331
13.79827,19148
13.80760,21003
13.81693,19540
13.82628,17494
13.83562,17510
13.84495,16646
13.85430,16378
13.86363,17550
13.87297,19249
13.88232,23257
13.89165,36316
13.90098,58903
13.91033,98741
13.91967,132562
13.92902,121091
13.93835,68142
13.94768,35301
13.95703,24936
13.96637,22790
13.97570,19913
13.98505,20395
13.99438,19875
14.00372,20540
14.01307,19945
14.02240,17969
14.03173,19021
14.04108,52771
14.05042,344774
14.05975,1648123
14.06910,3936035
14.07843,4950682
14.08778,3011215
14.09712,834281
14.10645,141390
14.11580,39056
14.12513,29525
14.13447,27767
14.14382,26796
14.15315,26549
14.16248,26484
14.17183,29560
14.18117,37456
14.19050,65155
14.19985,95926
14.20918,86057
14.21852,49219
14.22787,27908
14.23720,20781
14.24653,18670
14.25588,19044
14.26522,18974
14.27457,18999
14.28390,18169
14.29323,18186
14.30258,17001
14.31192,18039
14.32125,23903
14.33060,25920
14.33993,27046
14.34927,24862
14.35862,21108
14.36795,18617
14.37728,16560
14.38663,16712
14.39597,17599
14.40530,17918
14.41465,17102
14.42398,16238
14.43332,16291
14.44267,16990
14.45200,17725
14.46135,22427
14.47068,24261
14.48002,21345
14.48937,19037
14.49870,18088
14.50803,16159
14.51738,16051
14.52672,15973
14.53605,15283
14.54540,15463
14.55473,17290
14.56407,17201
14.57342,17748
14.58275,16728
14.59208,15514
14.60143,16002
14.61077,15441
14.62010,16607
14.62945,19593
14.63878,29258
14.64813,43708
14.65747,57484
14.66680,51877
14.67615,41116
14.68548,30684
14.69482,23532
14.70417,21198
14.71350,20283
14.72283,18821
14.73218,19240
14.74152,17666
14.75085,17895
14.76020,18262
14.76953,17246
14.77887,17562
14.78822,18424
14.79755,19383
14.80688,18295
14.81623,18503
14.82557,18246
14.83492,17927
14.84425,18332
14.85358,17794
14.86293,20286
14.87227,26168
14.88160,26455
14.89095,22828
14.90028,19278
14.90962,16485
14.91897,17420
14.92830,17222
14.93763,17478
14.94698,16607
14.95632,17052
14.96565,16776
14.97500,17515
14.98433,17741
14.99368,17652
15.00302,19151
15.01235,22166
15.02170,22681
15.03103,19657
15.04037,19473
15.04972,20300
15.05905,21182
15.06838,19763
15.07773,18107
15.08707,17410
15.09640,16196
15.10575,16665
15.11508,15930
15.12442,19088
15.13377,21506
15.14310,21499
15.15243,19780
15.16178,17509
15.17112,17703
15.18047,18361
15.18980,20254
15.19913,26343
15.20848,36544
15.21782,46422
15.22715,42598
15.23650,30136
15.24583,23473
15.25517,19593
15.26452,18753
15.27385,18670
15.28318,18430
15.29253,18718
15.30187,17667
15.31120,19545
15.32055,19180
15.32988,21773
15.33922,23205
15.34857,20777
15.35790,20548
15.36725,22829
15.37658,27246
15.38592,25774
15.39527,19502
15.40460,16689
15.41393,18153
15.42328,17787
15.43262,18719
15.44195,17418
15.45130,15608
15.46063,16454
15.46997,16016
15.47932,16381
15.48865,19863
15.49798,21835
15.50733,23193
15.51667,27123
15.52600,29173
15.53535,25708
15.54468,20832
15.55403,17880
15.56337,17013
15.57270,18214
15.58205,17145
15.59138,17454
15.60072,16970
15.61007,17946
15.61940,18638
15.62873,19327
15.63808,19424
15.64742,20321
15.65675,20370
15.66610,21590
15.67543,20855
15.68477,20028
15.69412,24224
15.70345,34232
15.71280,38687
15.72213,30461
15.73147,23706
15.74082,21893
15.75015,22872
15.75948,24666
15.76883,23229
15.77817,22808
15.78750,20584
15.79685,20238
15.80618,24921
15.81552,41156
15.82487,81397
15.83420,130282
15.84353,167833
15.85288,144964
15.86222,88008
15.87155,47417
15.88090,36035
15.89023,37216
15.89958,37788
15.90892,36293
15.91825,31767
15.92760,26270
15.93693,23681
15.94627,20070
15.95562,20590
15.96495,20981
15.97428,23836
15.98363,30975
15.99297,37555
16.00230,38637
16.01165,30970
16.02098,24493
16.03032,20283
16.03967,19716
16.04900,21092
16.05833,21555
16.06768,22449
16.07702,21849
16.08637,20523
16.09570,19995
16.10503,22211
16.11438,24175
16.12372,23637
16.13305,24386
16.14240,23245
16.15173,21283
16.16107,22255
16.17042,22372
16.17975,19916
16.18908,20450
16.19843,22893
16.20777,24509
16.21710,28301
16.22645,32303
16.23578,32764
16.24512,32727
16.25447,27556
16.26380,28151
16.27315,33496
16.28248,64524
16.29182,137839
16.30117,196372
16.31050,173488
16.31983,108605
16.32918,61375
16.33852,37395
16.34785,24021
16.35720,20147
16.36653,18929
16.37587,17852
16.38522,17816
16.39455,16871
16.40388,18251
16.41323,21478
16.42257,20138
16.43190,19307
16.44125,19424
16.45058,21620
16.45993,22887
16.46927,22091
16.47860,21637
16.48795,23481
16.49728,20856
16.50662,21473
16.51597,23696
16.52530,23748
16.53463,22372
16.54398,20549
16.55332,19832
16.56265,18590
16.57200,18300
16.58133,20150
16.59067,20423
16.60002,18433
16.60935,19634
16.61868,19260
16.62803,22675
16.63737,24997
16.64672,27895
16.65605,25739
16.66538,22519
16.67473,22736
16.68407,23268
16.69340,28595
16.70275,29978
16.71208,26338
16.72142,22708
16.73077,22715
16.74010,42058
16.74943,71665
16.75878,86208
16.76812,59352
16.77745,34591
16.78680,22045
16.79613,19742
16.80548,19019
16.81482,19757
16.82415,24465
16.83350,26558
16.84283,27236
16.85217,25768
16.86152,22534
16.87085,19915
16.88018,19681
16.88953,19345
16.89887,20863
16.90820,24556
16.91755,29796
16.92688,29788
16.93622,27538
16.94557,28543
16.95490,31114
16.96423,34382
16.97358,32451
16.98292,26572
16.99227,21934
17.00160,21330
17.01093,21267
17.02028,28807
17.02962,46498
17.03895,59865
17.04830,49584
17.05763,33566
17.06697,26113
17.07632,22247
17.08565,21843
17.09498,21053
17.10433,21118
17.11367,22350
17.12300,23315
17.13235,26842
17.14168,29516
17.15102,24966
17.16037,22383
17.16970,19725
17.17905,22106
17.18838,21199
17.19772,19731
17.20707,19077
17.21640,18669
17.22573,19163
17.23508,19354
17.24442,19383
17.25375,19973
17.26310,21536
17.27243,22782
17.28177,25233
17.29112,25978
17.30045,24573
17.30978,23157
17.31913,26359
17.32847,26621
17.33780,25776
17.34715,22626
17.35648,21269
17.36583,23458
17.37517,37408
17.38450,70550
17.39385,90132
17.40318,66973
17.41252,37801
17.42187,27091
17.43120,24477
17.44053,22718
17.44988,24572
17.45922,24932
17.46855,22720
17.47790,23914
17.48723,52746
17.49657,253844
17.50592,904334
17.51525,1754687
17.52460,1632826
17.53393,737465
17.54327,186519
17.55262,49337
17.56195,29120
17.57128,30886
17.58063,31422
17.58997,31401
17.59930,29460
17.60865,24367
17.61798,23912
17.62732,23422
17.63667,25177
17.64600,23080
17.65533,24311
17.66468,26688
17.67402,31095
17.68335,38661
17.69270,44171
17.70203,40043
17.71138,33944
17.72072,29014
17.73005,24737
17.73940,23356
17.74873,24767
17.75807,27864
17.76742,29109
17.77675,29957
17.78608,28539
17.79543,28409
17.80477,29360
17.81410,24748
17.82345,23040
17.83278,21167
17.84212,21132
17.85147,23492
17.86080,30637
17.87013,34823
17.87948,33092
17.88882,26895
17.89817,23305
17.90750,20033
17.91683,19812
17.92618,21415
17.93552,22285
17.94485,22796
17.95420,22591
17.96353,23643
17.97287,24626
17.98222,23575
17.99155,21933
18.00088,21154
18.01023,21192
18.01957,21738
18.02890,21963
18.03825,21993
18.04758,23368
18.05692,25298
18.06627,24601
18.07560,22884
18.08495,19697
18.09428,19728
18.10362,21087
18.11297,22040
18.12230,21484
18.13163,19761
18.14098,19983
18.15032,20487
18.15965,21496
18.16900,23134
18.17833,21719
18.18767,21305
18.19702,20337
18.20635,20460
18.21568,21065
18.22503,21948
18.23437,21739
18.24370,21302
18.25305,20052
18.26238,20938
18.27173,21369
18.28107,24254
18.29040,26161
18.29975,26396
18.30908,26113
18.31842,26156
18.32777,27291
18.33710,29273
18.34643,29749
18.35578,32460
18.36512,30904
18.37445,31461
18.38380,32116
18.39313,34908
18.40247,40306
18.41182,47033
18.42115,43707
18.43050,34415
18.43983,30211
18.44917,29953
18.45852,28648
18.46785,24644
18.47718,22304
18.48653,26022
18.49587,31267
18.50520,38423
18.51455,41890
18.52388,40200
18.53322,36132
18.54257,28446
18.55190,25631
18.56123,24917
18.57058,23509
18.57992,21900
18.58925,21228
18.59860,21685
18.60793,22406
18.61728,24791
18.62662,26059
18.63595,27121
18.64530,27400
18.65463,26655
18.66397,26985
18.67332,26655
18.68265,27543
18.69198,28408
18.70133,27481
18.71067,25820
18.72000,29530
18.72935,29844
18.73868,28547
18.74802,26405
18.75737,22552
18.76670,20484
18.77603,20383
18.78538,20615
18.79472,20203
18.80407,22837
18.81340,23827
18.82273,25549
18.83208,25660
18.84142,22542
18.85075,22594
18.86010,19895
18.86943,19586
18.87877,19943
18.88812,19315
18.89745,20296
18.90678,23137
18.91613,26277
18.92547,25945
18.93480,25759
18.94415,24726
18.95348,27821
18.96282,28900
18.97217,33350
18.98150,33284
18.99085,27930
19.00018,25343
19.00952,23382
19.01887,24010
19.02820,24823
19.03753,26723
19.04688,34217
19.05622,46631
19.06555,58441
19.07490,80317
19.08423,110871
19.09357,113667
19.10292,75610
19.11225,40871
19.12158,26670
19.13093,23004
19.14027,21858
19.14962,20368
19.15895,20515
19.16828,20578
19.17763,22077
19.18697,23516
19.19630,25584
19.20565,27845
19.21498,26099
19.22432,25824
19.23367,23301
19.24300,22547
19.25233,20093
19.26168,21367
19.27102,23010
19.28035,27178
19.28970,29516
19.29903,30554
19.30837,35188
19.31772,37336
19.32705,36823
19.33640,30768
19.34573,25801
19.35507,22880
19.36442,19601
19.37375,20529
19.38308,20159
19.39243,22858
19.40177,25935
19.41110,28365
19.42045,25185
19.42978,23121
19.43912,21238
19.44847,19589
19.45780,20804
19.46713,21156
19.47648,22075
19.48582,23732
19.49515,24168
19.50450,24991
19.51383,21470
19.52318,20892
19.53252,22719
19.54185,21108
19.55120,21444
19.56053,22598
19.56987,22296
19.57922,22302
19.58855,22948
19.59788,23035
19.60723,22015
19.61657,22543
19.62590,24832
19.63525,27738
19.64458,30413
19.65392,25515
19.66327,22910
19.67260,22383
19.68193,22171
19.69128,23381
19.70062,21763
19.70997,24303
19.71930,29739
19.72863,35574
19.73798,41626
19.74732,38731
19.75665,29606
19.76600,26217
19.77533,28255
19.78467,27742
19.79402,26886
19.80335,24529
19.81268,23114
19.82203,22834
19.83137,23118
19.84070,22137
19.85005,20562
19.85938,22169
19.86872,29005
19.87807,43849
19.88740,45001
19.89675,38583
19.90608,30176
19.91542,29049
19.92477,25344
19.93410,25539
19.94343,28026
19.95278,42466
19.96212,63196
19.97145,90850
19.98080,92171
19.99013,64027
19.99947,40415
20.00882,33799
20.01815,33530
20.02748,33134
20.03683,32558
20.04617,32066
20.05550,32791
20.06485,31670
20.07418,31464
20.08353,30736
20.09287,28289
20.10220,26144
20.11155,24782
20.12088,23087
20.13022,23445
20.13957,25180
20.14890,29952
20.15823,33101
20.16758,32066
20.17692,29091
20.18625,24943
20.19560,24253
20.20493,23558
20.21427,23730
20.22362,23326
20.23295,23958
20.24230,22911
20.25163,22927
20.26097,23937
20.27032,22790
20.27965,22685
20.28898,22857
20.29833,24040
20.30767,23020
20.31700,22399
20.32635,20551
20.33568,19839
20.34502,22971
20.35437,24240
20.36370,24303
20.37303,22810
20.38238,21672
20.39172,22309
20.40105,21010
20.41040,21272
20.41973,21479
20.42908,22084
20.43842,22373
20.44775,21090
20.45710,23174
20.46643,25291
20.47577,26896
20.48512,26274
20.49445,24703
20.50378,20522
20.51313,21215
20.52247,20744
20.53180,21370
20.54115,21856
20.55048,24534
20.55982,34233
20.56917,68392
20.57850,128639
20.58783,138004
20.59718,87641
20.60652,45318
20.61587,28592
20.62520,28373
20.63453,29191
20.64388,32167
20.65322,33829
20.66255,29735
20.67190,28018
20.68123,27279
20.69057,26560
20.69992,26621
20.70925,26415
20.71858,26130
20.72793,24534
20.73727,25589
20.74660,23825
20.75595,24486
20.76528,24351
20.77462,24477
20.78397,26532
20.79330,29673
20.80265,29036
20.81198,28326
20.82132,27453
20.83067,25383
20.84000,24905
20.84933,24060
20.85868,22112
20.86802,21562
20.87735,21079
20.88670,23751
20.89603,24599
20.90537,27105
20.91472,26833
20.92405,26885
20.93338,22579
20.94273,22914
20.95207,21688
20.96142,21566
20.97075,21072
20.98008,21967
20.98943,21855
20.99877,21401
21.00810,21654
21.01745,21914
21.02678,20637
21.03612,20212
21.04547,22211
21.05480,20267
21.06413,20653
21.07348,21545
21.08282,20933
21.09215,21646
21.10150,21740
21.11083,21524
21.12017,22548
21.12952,21966
21.13885,21448
21.14820,23162
21.15753,24590
21.16687,26628
21.17622,35688
21.18555,45034
21.19488,48244
21.20423,42840
21.21357,34486
21.22290,27812
21.23225,27805
21.24158,24086
21.25092,23896
21.26027,25150
21.26960,28369
21.27893,31942
21.28828,32741
21.29762,32466
21.30695,28386
21.31630,24487
21.32563,23283
21.33498,21938
21.34432,23111
21.35365,22434
21.36300,23060
21.37233,22023
21.38167,22325
21.39102,21942
21.40035,23604
21.40968,24143
21.41903,24960
21.42837,25212
21.43770,24707
21.44705,23583
21.45638,21872
21.46572,23528
21.47507,24419
21.48440,25009
21.49373,25307
21.50308,24320
21.51242,24485
21.52177,22843
21.53110,22072
21.54043,22887
21.54978,23511
21.55912,25260
21.56845,28925
21.57780,32916
21.58713,30190
21.59647,25714
21.60582,24211
21.61515,23217
21.62448,23890
21.63383,22901
21.64317,22408
21.65250,22536
21.66185,22567
21.67118,23093
21.68052,24200
21.68987,27831
21.69920,27579
21.70855,27493
21.71788,26605
21.72722,27502
21.73657,27923
21.74590,26011
21.75523,24827
21.76458,23125
21.77392,23787
21.78325,22987
21.79260,24482
21.80193,25564
21.81127,25827
21.82062,26750
21.82995,28923
21.83928,26500
21.84863,25291
21.85797,24356
21.86732,25259
21.87665,27247
21.88598,27146
21.89533,30668
21.90467,32156
21.91400,32519
21.92335,30214
21.93268,30514
21.94202,28264
21.95137,28901
21.96070,29584
21.97003,30801
21.97938,33180
21.98872,41065
21.99805,42124
22.00740,38064
22.01673,31421
22.02607,27751
22.03542,26845
22.04475,26686
22.05410,27080
22.06343,27695
22.07277,28622
22.08212,29827
22.09145,29453
22.10078,29158
22.11013,29001
22.11947,31778
22.12880,35107
22.13815,34703
22.14748,33360
22.15682,33180
22.16617,33010
22.17550,33404
22.18483,31478
22.19418,28384
22.20352,25635
22.21285,26790
22.22220,29821
22.23153,30277
22.24088,28292
22.25022,27867
22.25955,26503
22.26890,26062
22.27823,26989
22.28757,27718
22.29692,28818
22.30625,29228
22.31558,24684
22.32493,23900
22.33427,24211
22.34360,24461
22.35295,26861
22.36228,27507
22.37162,26652
22.38097,25188
22.39030,25344
22.39963,23310
22.40898,23978
22.41832,22910
22.42767,23144
22.43700,23026
22.44633,24449
22.45568,25036
22.46502,23907
22.47435,24425
22.48370,23112
22.49303,24034
22.50237,21711
22.51172,22850
22.52105,24163
22.53038,22628
22.53973,22931
22.54907,21817
22.55840,22853
22.56775,23073
22.57708,25245
22.58643,26123
22.59577,26138
22.60510,24639
22.61445,26421
22.62378,25141
22.63312,25115
22.64247,24295
22.65180,24520
22.66113,22668
22.67048,23156
22.67982,24342
22.68915,25732
22.69850,27224
22.70783,26475
22.71717,24470
22.72652,25051
22.73585,25794
22.74518,28027
22.75453,29802
22.76387,31888
22.77322,30360
22.78255,29756
22.79188,27276
22.80123,27442
22.81057,26355
22.81990,25827
22.82925,25049
22.83858,25687
22.84792,27651
22.85727,26051
22.86660,24414
22.87593,26002
22.88528,27036
22.89462,26943
22.90395,26051
22.91330,24406
22.92263,24762
22.93197,23950
22.94132,24090
22.95065,24269
22.96000,24294
22.96933,24739
22.97867,23285
22.98802,23857
22.99735,22903
23.00668,23413
23.01603,23842
23.02537,22777
23.03470,23661
23.04405,21228
23.05338,23033
23.06272,21935
23.07207,23459
23.08140,23464
23.09073,24631
23.10008,22431
23.10942,20902
23.11875,22031
23.12810,21998
23.13743,22458
23.14678,21483
23.15612,21569
23.16545,21930
23.17480,22285
23.18413,21917
23.19347,21545
23.20282,21597
23.21215,22400
23.22148,21970
23.23083,22785
23.24017,23914
23.24950,24198
23.25885,25514
23.26818,26792
23.27752,26343
23.28687,24514
23.29620,24335
23.30553,23555
23.31488,24523
23.32422,27314
23.33357,32156
23.34290,34662
23.35223,31595
23.36158,27029
23.37092,24688
23.38025,23752
23.38960,22619
23.39893,22725
23.40827,23769
23.41762,23404
23.42695,23074
23.43628,23479
23.44563,22591
23.45497,23298
23.46430,24689
23.47365,25208
23.48298,24740
23.49232,22919
23.50167,22592
23.51100,23173
23.52035,25051
23.52968,26463
23.53902,28587
23.54837,28236
23.55770,24568
23.56703,25069
23.57638,25808
23.58572,25124
23.59505,26426
23.60440,25161
23.61373,23509
23.62307,24549
23.63242,23309
23.64175,23553
23.65108,22899
23.66043,22818
23.66977,23318
23.67912,24349
23.68845,23247
23.69778,23962
23.70713,26014
23.71647,24248
23.72580,25317
23.73515,25795
23.74448,25949
23.75382,25030
23.76317,24156
23.77250,24668
23.78183,25509
23.79118,23753
23.80052,22359
23.80985,23473
23.81920,23738
23.82853,23928
23.83787,23385
23.84722,23075
23.85655,23062
23.86590,23084
23.87523,22509
23.88457,23614
23.89392,23769
23.90325,24101
23.91258,24393
23.92193,23257
23.93127,22445
23.94060,23047
23.94995,24090
23.95928,23540
23.96862,21686
23.97797,23078
23.98730,23104
23.99663,23415
24.00598,22549
24.01532,22273
24.02465,22006
24.03400,22361
24.04333,20927
24.05268,20898
24.06202,21617
24.07135,21218
24.08070,20719
24.09003,22304
24.09937,21698
24.10872,21683
24.11805,22053
24.12738,21507
24.13673,21370
24.14607,21933
24.15540,22338
24.16475,21489
24.17408,22021
24.18342,21428
24.19277,20122
24.20210,21353
24.21143,22947
24.22078,22346
24.23012,22353
24.23947,22446
24.24880,23219
24.25813,22856
24.26748,22581
24.27682,21993
24.28615,22255
24.29550,21578
24.30483,22242
24.31417,24391
24.32352,24024
24.33285,23963
24.34218,22240
24.35153,22409
24.36087,21323
24.37020,21961
24.37955,22563
24.38888,22837
24.39823,24547
24.40757,21764
24.41690,23231
24.42625,21677
24.43558,22434
24.44492,22333
24.45427,22122
24.46360,21189
24.47293,21954
24.48228,21678
24.49162,21496
24.50095,20673
24.51030,21892
24.51963,23211
24.52897,21924
24.53832,22371
24.54765,22450
24.55698,22505
24.56633,21932
24.57567,21285
24.58502,21989
24.59435,21929
24.60368,22910
24.61303,23851
24.62237,23732
24.63170,25241
24.64105,23318
24.65038,23354
24.65972,24799
24.66907,24025
24.67840,24915
24.68773,23955
24.69708,24344
24.70642,24561
24.71575,24334
24.72510,24317
24.73443,23270
24.74377,24112
24.75312,23010
24.76245,23526
24.77180,22558
24.78113,23139
24.79047,21110
24.79982,22885
24.80915,22025
24.81848,22227
24.82783,22162
24.83717,22299
24.84650,21934
24.85585,21685
24.86518,22960
24.87452,23403
24.88387,23199
24.89320,22560
24.90253,24194
24.91188,23739
24.92122,22814
24.93055,22647
24.93990,21878
24.94923,24002
24.95858,23301
24.96792,24108
24.97725,23416
24.98660,24774
24.99593,22572
25.00527,23958
25.01462,23921
25.02395,23768
25.03328,23654
25.04263,23301
25.05197,22891
25.06130,22847
25.07065,22686
25.07998,22896
25.08932,21869
25.09867,22949
25.10800,23490
25.11733,22661
25.12668,21763
25.13602,21826
25.14537,22597
25.15470,23447
25.16403,24243
25.17338,23980
25.18272,23194
25.19205,22710
25.20140,23590
25.21073,21663
25.22007,21822
25.22942,23598
25.23875,22535
25.24808,22995
25.25743,23119
25.26677,22701
25.27610,23662
25.28545,21707
25.29478,22742
25.30413,24991
25.31347,30423
25.32280,47854
25.33215,62081
25.34148,57562
25.35082,41929
25.36017,33152
25.36950,29166
25.37883,27643
25.38818,28914
25.39752,27685
25.40685,28407
25.41620,26242
25.42553,27800
25.43487,27635
25.44422,26483
25.45355,26934
25.46288,27545
25.47223,28518
25.48157,30700
25.49092,29929
25.50025,30908
25.50958,31509
25.51893,31821
25.52827,31001
25.53760,29290
25.54695,30919
25.55628,28846
25.56562,30357
25.57497,29182
25.58430,27863
25.59363,27748
25.60298,27020
25.61232,26556
25.62165,27618
25.63100,28052
25.64033,27646
25.64967,28257
25.65902,28535
25.66835,28031
25.67770,27269
25.68703,26312
25.69637,26832
25.70572,26937
25.71505,27828
25.72438,26658
25.73373,24579
25.74307,25235
25.75240,27093
25.76175,27697
25.77108,26069
25.78042,26446
25.78977,26881
25.79910,29128
25.80843,29314
25.81778,28717
25.82712,28200
25.83645,26419
25.84580,27120
25.85513,25861
25.86448,25836
25.87382,25659
25.88315,27622
25.89250,24444
25.90183,26681
25.91117,26801
25.92052,25375
25.92985,24026
25.93918,24510
25.94853,27177
25.95787,25289
25.96720,25635
25.97655,24826
25.98588,24939
25.99522,24686
26.00457,25222
26.01390,25296
26.02325,24621
26.03258,25578
26.04192,25463
26.05127,26712
26.06060,27363
26.06993,26430
26.07928,26617
26.08862,26355
26.09795,26196
26.10730,26341
26.11663,27345
26.12597,28255
26.13532,31752
26.14465,32394
26.15398,33995
26.16333,28970
26.17267,29284
26.18200,27888
26.19135,27389
26.20068,28714
26.21003,27189
26.21937,27950
26.22870,28860
26.23805,29232
26.24738,27815
26.25672,27227
26.26607,26226
26.27540,26887
26.28473,26198
26.29408,27337
26.30342,27561
26.31275,27513
26.32210,27326
26.33143,28058
26.34077,27326
26.35012,25890
26.35945,27301
26.36878,27235
26.37813,27418
26.38747,26806
26.39682,25701
26.40615,26828
26.41548,27621
26.42483,27174
26.43417,26722
26.44350,25784
26.45285,27401
26.46218,25926
26.47152,26526
26.48087,26988
26.49020,28326
26.49953,28547
26.50888,28804
26.51822,27500
26.52755,28911
26.53690,28808
26.54623,29215
26.55557,27857
26.56492,27060
26.57425,26679
26.58360,27889
26.59293,26071
26.60227,26389
26.61162,27288
26.62095,27014
26.63028,26850
26.63963,28102
26.64897,25520
26.65830,27147
26.66765,27657
26.67698,28293
26.68632,27388
26.69567,26921
26.70500,27595
26.71433,27665
26.72368,25776
26.73302,27392
26.74235,28285
26.75170,28380
26.76103,26293
26.77038,28925
26.77972,29526
26.78905,26618
26.79840,30071
26.80773,28343
26.81707,26868
26.82642,29099
26.83575,27901
26.84508,30467
26.85443,31194
26.86377,30269
26.87310,30365
26.88245,28777
26.89178,29364
26.90112,27264
26.91047,27061
26.91980,28493
26.92915,27201
26.93848,27180
26.94782,28343
26.95717,27878
26.96650,28203
26.97583,27116
26.98518,27401
26.99452,27231
27.00385,29707
27.01320,29045
27.02253,28354
27.03187,28885
27.04122,27404
27.05055,27332
27.05988,27744
27.06923,27304
27.07857,27248
27.08790,27182
27.09725,25927
27.10658,27153
27.11593,27103
27.12527,27986
27.13460,27281
27.14395,27503
27.15328,26916
27.16262,28069
27.17197,28319
27.18130,27423
27.19063,27956
27.19998,28327
27.20932,27936
27.21865,28130
27.22800,28351
27.23733,27900
27.24667,27390
27.25602,30143
27.26535,30274
27.27468,30280
27.28403,30216
27.29337,27898
27.30272,28067
27.31205,28853
27.32138,27353
27.33073,28515
27.34007,29204
27.34940,29637
27.35875,29261
27.36808,31813
27.37742,32720
27.38677,32729
27.39610,32154
27.40543,30520
27.41478,33513
27.42412,30802
27.43345,33034
27.44280,33295
27.45213,31544
27.46147,32238
27.47082,31898
27.48015,30307
27.48950,30480
27.49883,31345
27.50817,32878
27.51752,32630
27.52685,32300
27.53618,31600
27.54553,30696
27.55487,29689
27.56420,29725
27.57355,28792
27.58288,28681
27.59222,29507
27.60157,30326
27.61090,30154
27.62023,28636
27.62958,29276
27.63892,30118
27.64827,30645
27.65760,31915
27.66693,38702
27.67628,51210
27.68562,55851
27.69495,47742
27.70430,39114
27.71363,37603
27.72297,34095
27.73232,32900
27.74165,31299
27.75098,32664
27.76033,30905
27.76967,31159
27.77900,31593
27.78835,29701
27.79768,31568
27.80702,29985
27.81637,29996
27.82570,32041
27.83505,31159
27.84438,30694
27.85372,30651
27.86307,31863
27.87240,28926
27.88173,29433
27.89108,29838
27.90042,30945
27.90975,30993
27.91910,35328
27.92843,38097
27.93777,38025
27.94712,36497
27.95645,33437
27.96578,32260
27.97513,32134
27.98447,31928
27.99380,30766
28.00315,31336
28.01248,31537
28.02183,32130
28.03117,32933
28.04050,31581
28.04985,30937
28.05918,32894
28.06852,30884
28.07787,30299
28.08720,32876
28.09653,31240
28.10588,31676
28.11522,34848
28.12455,34938
28.13390,34212
28.14323,33838
28.15257,34693
28.16192,34242
28.17125,33078
28.18058,33017
28.18993,32760
28.19927,34818
28.20862,33810
28.21795,32280
28.22728,32599
28.23663,33470
28.24597,33860
28.25530,32587
28.26465,32415
28.27398,32482
28.28332,32269
28.29267,31470
28.30200,30970
28.31133,31094
28.32068,32782
28.33002,30833
28.33935,32529
28.34870,32791
28.35803,32372
28.36737,32829
28.37672,31478
28.38605,32326
28.39540,32858
28.40473,31651
28.41407,32881
28.42342,33224
28.43275,32053
28.44208,34044
28.45143,34362
28.46077,33916
28.47010,33631
28.47945,34212
28.48878,33862
28.49812,34563
28.50747,36644
28.51680,35843
28.52613,36306
28.53548,35754
28.54482,35665
28.55415,35515
28.56350,34608
28.57283,36050
28.58218,33418
28.59152,35740
28.60085,35725
28.61020,35115
28.61953,33395
28.62887,34167
28.63822,34537
28.64755,33903
28.65688,35146
28.66623,39417
28.67557,43543
28.68490,45197
28.69425,43227
28.70358,40954
28.71292,39181
28.72227,38359
28.73160,37873
28.74095,38548
28.75028,36658
28.75962,38300
28.76897,38883
28.77830,38295
28.78763,37577
28.79698,37906
28.80632,38860
28.81565,38206
28.82500,37711
28.83433,36775
28.84367,36688
28.85302,37978
28.86235,37866
28.87168,37412
28.88103,36925
28.89037,36819
28.89970,35955
28.90905,37857
28.91838,36231
28.92773,38255
28.93707,38854
28.94640,37205
28.95575,37246
28.96508,37015
28.97442,38136
28.98377,36263
28.99310,35999
29.00243,36438
29.01178,38359
29.02112,38059
29.03045,38968
29.03980,39766
29.04913,36929
29.05847,39302
29.06782,37978
29.07715,39346
29.08648,37211
29.09583,40410
29.10517,37534
29.11452,38579
29.12385,35781
29.13318,38555
29.14253,37532
29.15187,38334
29.16120,38941
29.17055,38782
29.17988,37822
29.18922,39438
29.19857,40928
29.20790,39566
29.21723,41664
29.22658,39819
29.23592,38815
29.24525,39848
29.25460,39766
29.26393,40450
29.27327,39769
29.28262,39582
29.29195,40553
29.30130,40276
29.31063,38910
29.31997,40328
29.32932,40117
29.33865,39931
29.34798,39803
29.35733,39419
29.36667,40687
29.37600,39587
29.38535,37942
29.39468,38426
29.40402,41351
29.41337,41214
29.42270,41434
29.43203,41662
29.44138,41119
29.45072,42925
29.46007,45082
29.46940,45627
29.47873,45618
29.48808,44716
29.49742,44437
29.50675,41662
29.51610,42925
29.52543,42380
29.53477,40791
29.54412,40285
29.55345,42436
29.56278,40249
29.57213,43589
29.58147,40913
29.59080,40910
29.60015,38409
29.60948,39738
29.61882,40310
29.62817,40531
29.63750,38287
29.64685,40525
29.65618,39166
29.66552,42213
29.67487,40187
29.68420,40377
29.69353,39271
29.70288,40351
29.71222,41450
29.72155,42148
29.73090,41552
29.74023,43106
29.74957,42063
29.75892,40722
29.76825,42716
29.77758,40781
29.78693,40897
29.79627,40861
29.80560,41854
29.81495,41422
29.82428,42743
29.83363,41752
29.84297,41266
29.85230,41469
29.86165,41086
29.87098,40882
29.88032,41562
29.88967,42128
29.89900,41043
29.90833,43770
29.91768,43195
29.92702,44712
29.93635,46032
29.94570,48280
29.95503,48266
29.96437,53335
29.97372,66743
29.98305,81945
29.99238,89942
30.00173,84381
30.01107,71082
30.02042,60059
30.02975,52980
30.03908,51180
30.04843,52671
30.05777,50291
30.06710,50475
30.07645,51792
30.08578,49340
30.09512,52211
30.10447,51368
30.11380,51057
30.12313,49905
30.13248,51250
30.14182,50255
30.15115,50497
30.16050,49005
30.16983,49277
30.17917,49905
30.18852,50388
30.19785,50798
30.20720,49077
30.21653,49949
30.22587,48408
30.23522,45758
30.24455,46286
30.25388,47704
30.26323,48444
30.27257,49631
30.28190,51232
30.29125,51846
30.30058,52216
30.30992,51428
30.31927,48905
30.32860,44732
30.33793,48990
30.34728,48267
30.35662,50267
30.36597,50480
30.37530,50117
30.38463,51467
30.39398,49798
30.40332,50718
30.41265,51978
30.42200,49747
30.43133,48280
30.44067,48587
30.45002,46513
30.45935,47620
30.46868,46051
30.47803,45482
30.48737,47307
30.49670,47429
30.50605,46607
30.51538,48400
30.52472,46496
30.53407,45889
30.54340,46708
30.55275,49043
30.56208,48092
30.57142,48845
30.58077,48826
30.59010,51907
30.59943,50903
30.60878,51460
30.61812,53052
30.62745,56723
30.63680,58008
30.64613,60072
30.65547,60908
30.66482,61550
30.67415,60927
30.68348,62570
30.69283,61065
30.70217,62780
30.71150,60560
30.72085,58473
30.73018,57354
30.73953,57409
30.74887,56128
30.75820,55860
30.76755,55689
30.77688,55578
30.78622,54295
30.79557,54855
30.80490,54542
30.81423,54757
30.82358,53221
30.83292,54773
30.84225,53593
30.85160,54509
30.86093,55170
30.87027,56270
30.87962,56359
30.88895,58295
30.89828,57892
30.90763,56791
30.91697,57943
30.92632,58069
30.93565,57715
30.94498,57939
30.95433,56335
30.96367,58258
30.97300,56824
30.98235,55323
30.99168,55305
31.00102,56523
31.01037,53548
31.01970,57221
31.02903,55979
31.03838,54319
31.04772,54079
31.05705,54723
31.06640,55136
31.07573,55478
31.08508,55443
31.09442,54054
31.10375,53577
31.11310,55424
31.12243,55482
31.13177,54838
31.14112,53881
31.15045,55061
31.15978,58379
31.16913,56286
31.17847,57148
31.18780,54977
31.19715,57063
31.20648,58077
31.21582,56309
31.22517,57757
31.23450,56346
31.24383,56493
31.25318,57205
31.26252,57250
31.27187,59667
31.28120,58979
31.29053,56371
31.29988,56210
31.30922,54486
31.31855,55764
31.32790,57593
31.33723,55340
31.34657,54781
31.35592,57083
31.36525,53038
