D:\数据\20220412\TEST3-SDHX-1.D Tue Apr 12 18:45:13 2022
Start of data points
0.09757,19682
0.10690,19166
0.11623,19698
0.12558,20236
0.13492,19463
0.14425,18876
0.15360,18985
0.16293,20997
0.17227,21015
0.18162,19760
0.19095,19588
0.20028,18213
0.20963,18908
0.21897,19436
0.22832,19124
0.23765,19083
0.24698,18964
0.25633,19203
0.26567,18463
0.27500,18850
0.28435,18771
0.29368,18757
0.30302,17897
0.31237,17791
0.32170,17530
0.33103,17908
0.34038,18361
0.34972,19397
0.35905,18041
0.36840,18724
0.37773,17719
0.38707,18720
0.39642,18446
0.40575,19330
0.41510,16888
0.42443,17601
0.43377,14902
0.44312,13838
0.45245,10771
0.46178,7331
0.47113,6250
0.48047,4777
0.48980,4553
0.49915,5211
0.50848,4488
0.51782,4992
0.52717,4920
0.53650,4458
0.54583,4158
0.55518,5076
0.56452,3522
0.57385,4198
0.58320,3966
0.59253,4486
0.60188,3958
0.61122,4073
0.62055,4026
0.62990,4355
0.63923,3673
0.64857,4059
0.65792,4066
0.66725,3892
0.67658,3737
0.68593,3993
0.69527,4209
0.70460,3703
0.71395,4016
0.72328,3892
0.73262,3585
0.74197,3871
0.75130,3901
0.76063,3733
0.76998,3633
0.77932,3686
0.78867,3586
0.79800,4033
0.80733,3951
0.81668,4226
0.82602,4044
0.83535,4124
0.84470,3288
0.85403,3806
0.86337,3620
0.87272,3985
0.88205,4301
0.89138,3920
0.90073,3557
0.91007,3781
0.91940,3706
0.92875,4063
0.93808,4005
0.94742,3842
0.95677,3683
0.96610,3723
0.97545,3328
0.98478,3754
0.99412,3517
1.00347,3377
1.01280,4540
1.02213,3389
1.03148,4402
1.04082,3155
1.05015,3944
1.05950,3413
1.06883,3722
1.07817,3547
1.08752,3356
1.09685,3574
1.10618,3387
1.11553,3510
1.12487,3702
1.13420,3407
1.14355,3336
1.15288,3967
1.16223,3963
1.17157,4067
1.18090,3935
1.19025,3665
1.19958,3783
1.20892,3493
1.21827,3683
1.22760,3414
1.23693,3106
1.24628,3511
1.25562,3629
1.26495,3731
1.27430,3780
1.28363,3535
1.29297,3744
1.30232,3674
1.31165,3146
1.32100,3760
1.33033,4144
1.33967,3375
1.34902,3506
1.35835,3193
1.36768,3477
1.37703,3854
1.38637,3596
1.39570,3819
1.40505,3605
1.41438,3592
1.42372,3207
1.43307,2958
1.44240,3510
1.45173,3712
1.46108,3351
1.47042,3503
1.47975,2896
1.48910,3544
1.49843,3122
1.50778,2888
1.51712,3391
1.52645,3264
1.53580,3136
1.54513,3373
1.55447,3181
1.56382,3895
1.57315,3406
1.58248,2975
1.59183,3359
1.60117,3488
1.61050,5397
1.61985,10339
1.62918,15898
1.63852,20437
1.64787,22092
1.65720,25760
1.66653,29442
1.67588,32365
1.68522,31296
1.69457,26580
1.70390,17283
1.71323,14576
1.72258,14313
1.73192,16764
1.74125,17819
1.75060,20418
1.75993,21759
1.76927,21924
1.77862,20648
1.78795,21105
1.79728,21749
1.80663,23337
1.81597,22029
1.82530,22456
1.83465,22059
1.84398,20418
1.85333,22048
1.86267,23629
1.87200,28489
1.88135,45308
1.89068,81788
1.90002,125188
1.90937,149720
1.91870,167428
1.92803,172136
1.93738,182287
1.94672,176749
1.95605,163154
1.96540,142941
1.97473,117524
1.98407,97702
1.99342,78915
2.00275,73192
2.01208,66938
2.02143,72041
2.03077,83598
2.04012,79521
2.04945,67744
2.05878,57975
2.06813,50640
2.07747,46715
2.08680,45512
2.09615,40175
2.10548,38144
2.11482,40498
2.12417,55873
2.13350,122110
2.14283,220576
2.15218,244341
2.16152,194839
2.17085,133840
2.18020,120924
2.18953,219947
2.19887,315114
2.20822,229880
2.21755,126900
2.22690,99654
2.23623,190858
2.24557,786911
2.25492,2960009
2.26425,4894374
2.27358,4704050
2.28293,3408789
2.29227,2104821
2.30160,1357153
2.31095,1994095
2.32028,4221287
2.32962,4530070
2.33897,2677797
2.34830,1216901
2.35763,547628
2.36698,283749
2.37632,183128
2.38565,138206
2.39500,109926
2.40433,94283
2.41368,93765
2.42302,89391
2.43235,76382
2.44170,65900
2.45103,59139
2.46037,55222
2.46972,52962
2.47905,51252
2.48838,49633
2.49773,47394
2.50707,46727
2.51640,43180
2.52575,43327
2.53508,44040
2.54442,46254
2.55377,50845
2.56310,74257
2.57243,112071
2.58178,111954
2.59112,99590
2.60047,92057
2.60980,94212
2.61913,127884
2.62848,160080
2.63782,144438
2.64715,136116
2.65650,118877
2.66583,89672
2.67517,64803
2.68452,50236
2.69385,45042
2.70318,41803
2.71253,67434
2.72187,154558
2.73120,229982
2.74055,192007
2.74988,126653
2.75922,89534
2.76857,77003
2.77790,78651
2.78725,83813
2.79658,77758
2.80592,68319
2.81527,63599
2.82460,57876
2.83393,67099
2.84328,168551
2.85262,563877
2.86195,1091281
2.87130,1070362
2.88063,632468
2.88997,290854
2.89932,141039
2.90865,90761
2.91798,67649
2.92733,57040
2.93667,49968
2.94602,45656
2.95535,42281
2.96468,39018
2.97403,40288
2.98337,40481
2.99270,46573
3.00205,50785
3.01138,56701
3.02072,84482
3.03007,198466
3.03940,253966
3.04873,198335
3.05808,140918
3.06742,111406
3.07675,94134
3.08610,71878
3.09543,56250
3.10477,45105
3.11412,38490
3.12345,36953
3.13280,37991
3.14213,46483
3.15147,80541
3.16082,135845
3.17015,153364
3.17948,111934
3.18883,67754
3.19817,46599
3.20750,40454
3.21685,37882
3.22618,34718
3.23552,33109
3.24487,32121
3.25420,33808
3.26353,34045
3.27288,33283
3.28222,32213
3.29155,33820
3.30090,33462
3.31023,31934
3.31958,32969
3.32892,33271
3.33825,32204
3.34760,32924
3.35693,34645
3.36627,31354
3.37562,31881
3.38495,30401
3.39428,30491
3.40363,33954
3.41297,37383
3.42230,41008
3.43165,38745
3.44098,37311
3.45032,36026
3.45967,34685
3.46900,33877
3.47833,33418
3.48768,33219
3.49702,33668
3.50637,31998
3.51570,29904
3.52503,30353
3.53438,31738
3.54372,41942
3.55305,90862
3.56240,170231
3.57173,219984
3.58107,180038
3.59042,117004
3.59975,83014
3.60908,69424
3.61843,58026
3.62777,51836
3.63710,46568
3.64645,41182
3.65578,37525
3.66513,37216
3.67447,36061
3.68380,34539
3.69315,31490
3.70248,32827
3.71182,35263
3.72117,38238
3.73050,39560
3.73983,40286
3.74918,35448
3.75852,31774
3.76785,30798
3.77720,29360
3.78653,29631
3.79587,29661
3.80522,33842
3.81455,37072
3.82388,37280
3.83323,36621
3.84257,33190
3.85192,33858
3.86125,33726
3.87058,34085
3.87993,33756
3.88927,39151
3.89860,47024
3.90795,47503
3.91728,41631
3.92662,42136
3.93597,52829
3.94530,56848
3.95463,53835
3.96398,47362
3.97332,38523
3.98265,33826
3.99200,31032
4.00133,30654
4.01067,29659
4.02002,32890
4.02935,53055
4.03870,108061
4.04803,159576
4.05737,148517
4.06672,101301
4.07605,71079
4.08538,63763
4.09473,61088
4.10407,50356
4.11340,40709
4.12275,35922
4.13208,33285
4.14142,32201
4.15077,30810
4.16010,30600
4.16943,30154
4.17878,29001
4.18812,27653
4.19745,28653
4.20680,30870
4.21613,31951
4.22548,31750
4.23482,32314
4.24415,30413
4.25350,29387
4.26283,31065
4.27217,32258
4.28152,30586
4.29085,28860
4.30018,32202
4.30953,37652
4.31887,54841
4.32820,60101
4.33755,56019
4.34688,43971
4.35622,35423
4.36557,31894
4.37490,30357
4.38423,30760
4.39358,28910
4.40292,28041
4.41227,28138
4.42160,28723
4.43093,27132
4.44028,28377
4.44962,28801
4.45895,32459
4.46830,39799
4.47763,46073
4.48697,47439
4.49632,40743
4.50565,33194
4.51498,30085
4.52433,29898
4.53367,29212
4.54300,29288
4.55235,29807
4.56168,27203
4.57103,27495
4.58037,28226
4.58970,28354
4.59905,27757
4.60838,29400
4.61772,27481
4.62707,27843
4.63640,29401
4.64573,31887
4.65508,31588
4.66442,30572
4.67375,33581
4.68310,38553
4.69243,51771
4.70177,62930
4.71112,58844
4.72045,46750
4.72978,35150
4.73913,31172
4.74847,28534
4.75782,31204
4.76715,28912
4.77648,29516
4.78583,30330
4.79517,27893
4.80450,28087
4.81385,31928
4.82318,32612
4.83252,32620
4.84187,31375
4.85120,30770
4.86053,28765
4.86988,28216
4.87922,28727
4.88855,29185
4.89790,29736
4.90723,29295
4.91657,30036
4.92592,31025
4.93525,31388
4.94460,34235
4.95393,31539
4.96327,30095
4.97262,27887
4.98195,27523
4.99128,28220
5.00063,27337
5.00997,29400
5.01930,31118
5.02865,33300
5.03798,33800
5.04732,29118
5.05667,29394
5.06600,26702
5.07533,27159
5.08468,28041
5.09402,29730
5.10335,27063
5.11270,27292
5.12203,27054
5.13138,27819
5.14072,30194
5.15005,30414
5.15940,28917
5.16873,27529
5.17807,29831
5.18742,30144
5.19675,28394
5.20608,27728
5.21543,27518
5.22477,26995
5.23410,27630
5.24345,29425
5.25278,30539
5.26212,37734
5.27147,63940
5.28080,105563
5.29015,132598
5.29948,116277
5.30882,78889
5.31817,51316
5.32750,40607
5.33683,35221
5.34618,31497
5.35552,27865
5.36485,26839
5.37420,27656
5.38353,30646
5.39287,33014
5.40222,34238
5.41155,31821
5.42088,29438
5.43023,27379
5.43957,26226
5.44890,25583
5.45825,25498
5.46758,25477
5.47693,26981
5.48627,25949
5.49560,25790
5.50495,29091
5.51428,28590
5.52362,31481
5.53297,32850
5.54230,30958
5.55163,30047
5.56098,28469
5.57032,27882
5.57965,26840
5.58900,26654
5.59833,25159
5.60767,24420
5.61702,24614
5.62635,24901
5.63568,24363
5.64503,25715
5.65437,25391
5.66372,27480
5.67305,25926
5.68238,28358
5.69173,28618
5.70107,27010
5.71040,28452
5.71975,28384
5.72908,28130
5.73842,29338
5.74777,29780
5.75710,33312
5.76643,32037
5.77578,30019
5.78512,27001
5.79445,26018
5.80380,26535
5.81313,27170
5.82247,27347
5.83182,30701
5.84115,29830
5.85050,29000
5.85983,28119
5.86917,28380
5.87852,26839
5.88785,25250
5.89718,23335
5.90653,27395
5.91587,39463
5.92520,56051
5.93455,54945
5.94388,44191
5.95322,36689
5.96257,31879
5.97190,29225
5.98123,27589
5.99058,26228
5.99992,26796
6.00925,25343
6.01860,22768
6.02793,19514
6.03728,18113
6.04662,16154
6.05595,16810
6.06530,15706
6.07463,16020
6.08397,15210
6.09332,14972
6.10265,13411
6.11198,14408
6.12133,17539
6.13067,22077
6.14000,26535
6.14935,22317
6.15868,17505
6.16802,14074
6.17737,13022
6.18670,13011
6.19603,12593
6.20538,13503
6.21472,13315
6.22407,15200
6.23340,17471
6.24273,16848
6.25208,16151
6.26142,15541
6.27075,18064
6.28010,17864
6.28943,14498
6.29877,12257
6.30812,11385
6.31745,10633
6.32678,9282
6.33613,10269
6.34547,10345
6.35480,10419
6.36415,13760
6.37348,22231
6.38283,37516
6.39217,51673
6.40150,83999
6.41085,119800
6.42018,108213
6.42952,57563
6.43887,25158
6.44820,15093
6.45753,13439
6.46688,13577
6.47622,13274
6.48555,13310
6.49490,11839
6.50423,11511
6.51357,13645
6.52292,12894
6.53225,13032
6.54158,12407
6.55093,11646
6.56027,11220
6.56962,11771
6.57895,10848
6.58828,11362
6.59763,12346
6.60697,13119
6.61630,13455
6.62565,13016
6.63498,13845
6.64432,13128
6.65367,12936
6.66300,14649
6.67233,15656
6.68168,14732
6.69102,13521
6.70035,14660
6.70970,14557
6.71903,13032
6.72837,11208
6.73772,10799
6.74705,10862
6.75640,10806
6.76573,11274
6.77507,15032
6.78442,24551
6.79375,43993
6.80308,59459
6.81243,49575
6.82177,26772
6.83110,16190
6.84045,12906
6.84978,11663
6.85912,12578
6.86847,11832
6.87780,12037
6.88713,11571
6.89648,12396
6.90582,14666
6.91517,15835
6.92450,13638
6.93383,12916
6.94318,12333
6.95252,12797
6.96185,13191
6.97120,11317
6.98053,11473
6.98987,10948
6.99922,11826
7.00855,11498
7.01788,12130
7.02723,13239
7.03657,10833
7.04590,10654
7.05525,10446
7.06458,10624
7.07392,10546
7.08327,12475
7.09260,11103
7.10195,12588
7.11128,14976
7.12062,15324
7.12997,13621
7.13930,12321
7.14863,11545
7.15798,11465
7.16732,10800
7.17665,10549
7.18600,10809
7.19533,11084
7.20467,11854
7.21402,14169
7.22335,19230
7.23268,32618
7.24203,44463
7.25137,40045
7.26070,29574
7.27005,25919
7.27938,25084
7.28873,20331
7.29807,16444
7.30740,14931
7.31675,12324
7.32608,11035
7.33542,11123
7.34477,10094
7.35410,11427
7.36343,12054
7.37278,12403
7.38212,16138
7.39145,32437
7.40080,61057
7.41013,86622
7.41947,78840
7.42882,52440
7.43815,29082
7.44748,18900
7.45683,14462
7.46617,12814
7.47552,12861
7.48485,14195
7.49418,13943
7.50353,12427
7.51287,12454
7.52220,11168
7.53155,12437
7.54088,11953
7.55022,13250
7.55957,13454
7.56890,14129
7.57823,13244
7.58758,11816
7.59692,11662
7.60625,12864
7.61560,12924
7.62493,12917
7.63427,13779
7.64362,12168
7.65295,12368
7.66230,11706
7.67163,14575
7.68097,30913
7.69032,108685
7.69965,269500
7.70898,363392
7.71833,251748
7.72767,100698
7.73700,32607
7.74635,17934
7.75568,15642
7.76502,14481
7.77437,16017
7.78370,17614
7.79303,17089
7.80238,14082
7.81172,13541
7.82105,13197
7.83040,13723
7.83973,12919
7.84908,15935
7.85842,23378
7.86775,32969
7.87710,34227
7.88643,28666
7.89577,21821
7.90512,27040
7.91445,42277
7.92378,48876
7.93313,40259
7.94247,30194
7.95180,25277
7.96115,22730
7.97048,19884
7.97982,18548
7.98917,18563
7.99850,15791
8.00785,16503
8.01718,13757
8.02652,15731
8.03587,20952
8.04520,25460
8.05453,22803
8.06388,16904
8.07322,14776
8.08255,14900
8.09190,17920
8.10123,19345
8.11057,17392
8.11992,16059
8.12925,16653
8.13858,15470
8.14793,15995
8.15727,16723
8.16660,17237
8.17595,15659
8.18528,15926
8.19463,15157
8.20397,15404
8.21330,14799
8.22265,14892
8.23198,13520
8.24132,15240
8.25067,13765
8.26000,13391
8.26933,12243
8.27868,13257
8.28802,12612
8.29735,12118
8.30670,12668
8.31603,11960
8.32537,11833
8.33472,12286
8.34405,11748
8.35338,11741
8.36273,11113
8.37207,11861
8.38142,13518
8.39075,15576
8.40008,16569
8.40943,18629
8.41877,16282
8.42810,16106
8.43745,15929
8.44678,14083
8.45612,14809
8.46547,14781
8.47480,15735
8.48413,16451
8.49348,15730
8.50282,15297
8.51215,15082
8.52150,15553
8.53083,16443
8.54017,18250
8.54952,19756
8.55885,21123
8.56820,18930
8.57753,16767
8.58687,15332
8.59622,16831
8.60555,16045
8.61488,14864
8.62423,14591
8.63357,14558
8.64290,16158
8.65225,21148
8.66158,23852
8.67092,21827
8.68027,18380
8.68960,15740
8.69893,16992
8.70828,17156
8.71762,15342
8.72697,15031
8.73630,17270
8.74563,20779
8.75498,24018
8.76432,20182
8.77365,20040
8.78300,28928
8.79233,70666
8.80167,156946
8.81102,216549
8.82035,170231
8.82968,82610
8.83903,35635
8.84837,21405
8.85770,17837
8.86705,18486
8.87638,20354
8.88572,18839
8.89507,18930
8.90440,19497
8.91375,19502
8.92308,18142
8.93242,19205
8.94177,19260
8.95110,16849
8.96043,15878
8.96978,17395
8.97912,15973
8.98845,15033
8.99780,15323
9.00713,16646
9.01647,16900
9.02582,15425
9.03515,15760
9.04448,16385
9.05383,16518
9.06317,17358
9.07250,20711
9.08185,24265
9.09118,29554
9.10053,29325
9.10987,32015
9.11920,57026
9.12855,104092
9.13788,126650
9.14722,90031
9.15657,47318
9.16590,24879
9.17523,17976
9.18458,15942
9.19392,17260
9.20325,17491
9.21260,21374
9.22193,28582
9.23127,36072
9.24062,37222
9.24995,30040
9.25928,23614
9.26863,18142
9.27797,17009
9.28732,15735
9.29665,16086
9.30598,16692
9.31533,19620
9.32467,28811
9.33400,30408
9.34335,27086
9.35268,26431
9.36202,39914
9.37137,59984
9.38070,61775
9.39003,51534
9.39938,38811
9.40872,30086
9.41805,27474
9.42740,26826
9.43673,22360
9.44607,20176
9.45542,18811
9.46475,16497
9.47410,16533
9.48343,19017
9.49277,19133
9.50212,20145
9.51145,18421
9.52078,17144
9.53013,17874
9.53947,21698
9.54880,25983
9.55815,31438
9.56748,31997
9.57682,26454
9.58617,21663
9.59550,21931
9.60483,22648
9.61418,20475
9.62352,16271
9.63287,18260
9.64220,18845
9.65153,23800
9.66088,25080
9.67022,23257
9.67955,19450
9.68890,17205
9.69823,21517
9.70757,54276
9.71692,194835
9.72625,480987
9.73558,703321
9.74493,647349
9.75427,448361
9.76360,262039
9.77295,149652
9.78228,97971
9.79162,74218
9.80097,58748
9.81030,50479
9.81965,48245
9.82898,50541
9.83832,55473
9.84767,56862
9.85700,51305
9.86633,45310
9.87568,43069
9.88502,46146
9.89435,47217
9.90370,48114
9.91303,49124
9.92237,48637
9.93172,39225
9.94105,30701
9.95038,26294
9.95973,39401
9.96907,104454
9.97840,268254
9.98775,441905
9.99708,375988
10.00643,185981
10.01577,72442
10.02510,35600
10.03445,28330
10.04378,26104
10.05312,27092
10.06247,32077
10.07180,33645
10.08113,32610
10.09048,26682
10.09982,35829
10.10915,94099
10.11850,252561
10.12783,398904
10.13717,359535
10.14652,428810
10.15585,949684
10.16518,1323180
10.17453,915776
10.18387,326393
10.19322,79372
10.20255,32237
10.21188,25125
10.22123,23082
10.23057,25639
10.23990,28258
10.24925,25825
10.25858,23363
10.26792,20628
10.27727,21811
10.28660,25078
10.29593,30477
10.30528,31388
10.31462,26575
10.32395,22160
10.33330,18846
10.34263,19466
10.35198,22272
10.36132,23775
10.37065,23431
10.38000,19897
10.38933,18092
10.39867,25334
10.40802,46195
10.41735,95268
10.42668,117693
10.43603,97062
10.44537,64495
10.45470,56706
10.46405,49539
10.47338,37162
10.48272,27052
10.49207,20684
10.50140,19285
10.51073,18154
10.52008,18307
10.52942,18981
10.53877,22605
10.54810,28069
10.55743,29067
10.56678,26451
10.57612,21285
10.58545,19298
10.59480,19133
10.60413,17323
10.61347,17489
10.62282,18690
10.63215,22183
10.64148,21928
10.65083,20492
10.66017,21633
10.66950,21192
10.67885,20985
10.68818,21453
10.69752,31295
10.70687,58742
10.71620,80829
10.72555,69875
10.73488,42716
10.74422,31477
10.75357,42159
10.76290,70247
10.77223,88476
10.78158,125121
10.79092,265519
10.80025,456059
10.80960,457812
10.81893,267339
10.82827,111777
10.83762,48859
10.84695,35911
10.85628,44893
10.86563,73018
10.87497,87079
10.88430,73830
10.89365,49472
10.90298,33976
10.91233,29088
10.92167,26435
10.93100,28134
10.94035,29993
10.94968,28001
10.95902,25492
10.96837,23531
10.97770,20710
10.98703,18227
10.99638,17876
11.00572,18402
11.01505,16979
11.02440,17706
11.03373,16467
11.04307,17430
11.05242,15475
11.06175,16518
11.07108,16167
11.08043,16636
11.08977,17070
11.09912,15913
11.10845,16957
11.11778,18969
11.12713,17513
11.13647,16473
11.14580,16528
11.15515,17135
11.16448,18908
11.17382,18682
11.18317,18268
11.19250,17576
11.20183,18491
11.21118,20568
11.22052,22122
11.22985,19125
11.23920,18131
11.24853,16335
11.25787,19132
11.26722,19352
11.27655,18582
11.28590,18779
11.29523,18666
11.30457,19950
11.31392,17669
11.32325,19048
11.33258,24948
11.34193,39405
11.35127,49126
11.36060,43870
11.36995,28836
11.37928,20605
11.38862,22639
11.39797,35158
11.40730,52646
11.41663,53861
11.42598,41330
11.43532,25314
11.44467,22330
11.45400,26652
11.46333,33619
11.47268,34128
11.48202,25750
11.49135,19805
11.50070,16687
11.51003,15971
11.51937,17034
11.52872,16106
11.53805,16935
11.54738,18329
11.55673,21782
11.56607,26995
11.57540,35004
11.58475,35138
11.59408,28246
11.60342,25637
11.61277,22114
11.62210,21124
11.63145,18755
11.64078,18968
11.65012,17901
11.65947,19015
11.66880,17972
11.67813,17856
11.68748,16599
11.69682,19152
11.70615,19274
11.71550,21860
11.72483,22267
11.73417,20962
11.74352,20097
11.75285,19154
11.76218,20169
11.77153,21855
11.78087,24963
11.79020,26410
11.79955,24697
11.80888,22333
11.81823,20867
11.82757,19908
11.83690,17956
11.84625,17528
11.85558,19457
11.86492,21835
11.87427,23970
11.88360,24549
11.89293,21550
11.90228,17748
11.91162,17449
11.92095,17983
11.93030,20422
11.93963,26052
11.94897,27130
11.95832,23502
11.96765,20011
11.97698,17173
11.98633,19800
11.99567,23928
12.00502,34110
12.01435,42843
12.02368,39935
12.03303,31992
12.04237,23021
12.05170,20966
12.06105,16918
12.07038,17550
12.07972,17483
12.08907,18697
12.09840,19688
12.10773,19151
12.11708,16177
12.12642,16319
12.13575,17225
12.14510,18310
12.15443,21332
12.16378,31237
12.17312,42082
12.18245,42590
12.19180,31756
12.20113,25462
12.21047,23846
12.21982,29458
12.22915,34339
12.23848,31795
12.24783,23971
12.25717,21954
12.26650,29031
12.27585,41450
12.28518,44492
12.29452,34548
12.30387,26125
12.31320,20003
12.32253,21584
12.33188,26279
12.34122,25440
12.35057,22539
12.35990,21082
12.36923,18331
12.37858,19288
12.38792,18464
12.39725,18399
12.40660,18244
12.41593,18292
12.42527,17327
12.43462,16805
12.44395,16503
12.45328,19046
12.46263,22856
12.47197,21847
12.48130,20809
12.49065,19962
12.49998,21232
12.50932,19771
12.51867,21338
12.52800,19799
12.53735,19673
12.54668,21822
12.55602,23167
12.56537,25790
12.57470,23606
12.58403,20254
12.59338,17201
12.60272,18252
12.61205,17704
12.62140,21131
12.63073,24616
12.64007,26374
12.64942,27134
12.65875,23929
12.66808,21852
12.67743,18215
12.68677,16063
12.69610,15713
12.70545,17259
12.71478,17927
12.72413,17984
12.73347,16392
12.74280,17231
12.75215,18698
12.76148,17763
12.77082,16772
12.78017,15633
12.78950,15261
12.79883,16086
12.80818,17011
12.81752,17600
12.82685,16435
12.83620,16678
12.84553,16198
12.85487,16970
12.86422,16800
12.87355,15916
12.88288,15664
12.89223,16747
12.90157,16159
12.91092,15713
12.92025,16414
12.92958,15237
12.93893,17131
12.94827,16721
12.95760,16581
12.96695,16160
12.97628,16632
12.98562,14788
12.99497,15072
13.00430,15486
13.01363,17401
13.02298,21574
13.03232,22821
13.04165,19550
13.05100,17760
13.06033,16870
13.06968,18005
13.07902,17438
13.08835,17714
13.09770,16685
13.10703,16959
13.11637,16333
13.12572,18948
13.13505,18392
13.14438,19627
13.15373,20636
13.16307,22840
13.17240,24238
13.18175,30242
13.19108,59363
13.20042,122032
13.20977,167308
13.21910,134160
13.22843,69659
13.23778,47094
13.24712,41596
13.25647,34281
13.26580,24741
13.27513,22097
13.28448,20549
13.29382,21896
13.30315,25109
13.31250,27747
13.32183,28378
13.33117,25486
13.34052,21706
13.34985,20929
13.35918,18648
13.36853,19861
13.37787,19364
13.38720,21003
13.39655,24317
13.40588,21732
13.41522,18922
13.42457,17775
13.43390,19485
13.44325,22253
13.45258,19517
13.46192,19274
13.47127,21177
13.48060,21634
13.48993,22340
13.49928,25348
13.50862,31409
13.51795,42521
13.52730,48171
13.53663,38315
13.54597,27154
13.55532,19929
13.56465,18476
13.57398,17469
13.58333,17408
13.59267,18219
13.60200,18776
13.61135,17762
13.62068,23805
13.63003,42273
13.63937,77357
13.64870,104705
13.65805,100495
13.66738,64578
13.67672,42868
13.68607,31213
13.69540,25318
13.70473,21905
13.71408,20424
13.72342,18311
13.73275,18388
13.74210,20901
13.75143,21173
13.76077,20039
13.77012,18651
13.77945,18683
13.78880,21247
13.79813,23352
13.80747,22218
13.81682,20105
13.82615,18346
13.83548,19208
13.84483,18442
13.85417,19098
13.86350,19177
13.87285,21954
13.88218,27753
13.89152,45024
13.90087,75739
13.91020,114623
13.91953,118757
13.92888,75738
13.93822,38095
13.94755,27106
13.95690,24256
13.96623,21894
13.97558,19498
13.98492,20758
13.99425,20929
14.00360,20215
14.01293,20463
14.02227,20086
14.03162,39982
14.04095,235093
14.05028,1269175
14.05963,3277085
14.06897,4183688
14.07830,2704252
14.08765,809532
14.09698,148347
14.10632,49957
14.11567,36948
14.12500,31346
14.13433,29602
14.14368,29202
14.15302,29828
14.16237,30592
14.17170,29497
14.18103,30628
14.19038,36134
14.19972,36416
14.20905,28304
14.21840,25462
14.22773,21895
14.23707,20860
14.24642,18773
14.25575,20870
14.26508,20456
14.27443,21525
14.28377,20155
14.29310,20615
14.30245,20590
14.31178,26497
14.32112,32814
14.33047,38045
14.33980,35656
14.34915,30867
14.35848,24059
14.36782,22343
14.37717,27391
14.38650,30505
14.39583,28234
14.40518,22631
14.41452,20976
14.42385,18895
14.43320,19952
14.44253,21923
14.45187,27857
14.46122,34397
14.47055,35322
14.47988,29006
14.48923,23160
14.49857,22667
14.50790,21904
14.51725,23412
14.52658,23036
14.53593,23767
14.54527,22937
14.55460,22701
14.56395,22548
14.57328,21446
14.58262,19143
14.59197,19664
14.60130,18255
14.61063,19594
14.61998,17447
14.62932,18128
14.63865,19482
14.64800,20983
14.65733,23192
14.66667,22479
14.67602,23272
14.68535,20001
14.69470,20053
14.70403,20028
14.71337,19282
14.72272,21653
14.73205,20228
14.74138,21439
14.75073,21626
14.76007,19423
14.76940,19124
14.77875,20550
14.78808,20016
14.79742,21393
14.80677,20456
14.81610,20931
14.82543,21302
14.83478,23410
14.84412,31637
14.85345,39622
14.86280,40479
14.87213,34330
14.88148,26668
14.89082,21812
14.90015,20219
14.90950,20093
14.91883,21088
14.92817,20942
14.93752,19114
14.94685,19248
14.95618,21845
14.96553,27274
14.97487,30615
14.98420,30007
14.99355,32172
15.00288,32233
15.01222,31145
15.02157,27936
15.03090,25999
15.04023,29089
15.04958,30822
15.05892,27411
15.06827,24518
15.07760,23108
15.08693,22038
15.09628,21845
15.10562,23461
15.11495,26438
15.12430,31300
15.13363,29401
15.14297,26010
15.15232,22755
15.16165,18985
15.17098,20475
15.18033,20660
15.18967,25577
15.19900,33463
15.20835,42769
15.21768,47195
15.22702,36352
15.23637,26737
15.24570,24103
15.25505,21873
15.26438,22504
15.27372,22639
15.28307,23293
15.29240,21685
15.30173,20764
15.31108,23035
15.32042,29428
15.32975,30135
15.33910,29806
15.34843,26915
15.35777,26858
15.36712,31736
15.37645,30371
15.38578,24875
15.39513,22149
15.40447,22624
15.41382,24226
15.42315,23757
15.43248,23376
15.44183,21991
15.45117,20909
15.46050,21030
15.46985,21218
15.47918,22603
15.48852,24769
15.49787,29203
15.50720,40730
15.51653,43768
15.52588,40179
15.53522,30620
15.54455,24001
15.55390,21201
15.56323,21410
15.57257,20496
15.58192,20869
15.59125,21691
15.60060,21742
15.60993,22529
15.61927,23458
15.62862,27135
15.63795,28746
15.64728,29896
15.65663,40047
15.66597,83900
15.67530,189841
15.68465,319794
15.69398,307213
15.70332,183081
15.71267,89218
15.72200,53638
15.73133,41255
15.74068,45415
15.75002,42521
15.75935,40638
15.76870,38673
15.77803,33858
15.78738,32323
15.79672,29761
15.80605,33789
15.81540,52530
15.82473,94444
15.83407,146204
15.84342,154946
15.85275,108195
15.86208,72847
15.87143,52523
15.88077,48917
15.89010,51407
15.89945,51263
15.90878,45269
15.91812,38122
15.92747,33333
15.93680,30342
15.94613,30243
15.95548,28290
15.96482,31813
15.97417,36458
15.98350,39500
15.99283,40397
16.00218,35928
16.01152,29966
16.02085,29677
16.03020,28573
16.03953,29699
16.04887,31650
16.05822,33321
16.06755,31553
16.07688,30893
16.08623,28111
16.09557,29118
16.10490,30686
16.11425,32605
16.12358,31752
16.13292,30349
16.14227,28194
16.15160,30152
16.16095,29601
16.17028,27611
16.17962,26482
16.18897,25443
16.19830,26749
16.20763,29003
16.21698,30060
16.22632,31135
16.23565,32611
16.24500,36314
16.25433,34250
16.26367,36567
16.27302,58169
16.28235,126739
16.29168,224660
16.30103,247336
16.31037,165757
16.31970,74746
16.32905,42045
16.33838,31218
16.34773,25571
16.35707,23778
16.36640,23031
16.37575,24160
16.38508,24943
16.39442,27722
16.40377,30276
16.41310,30539
16.42243,30148
16.43178,27782
16.44112,30633
16.45045,30856
16.45980,33396
16.46913,29791
16.47847,33486
16.48782,33863
16.49715,29591
16.50650,29984
16.51583,28569
16.52517,28725
16.53452,25331
16.54385,24785
16.55318,25146
16.56253,25475
16.57187,27049
16.58120,27019
16.59055,27874
16.59988,28191
16.60922,34671
16.61857,39714
16.62790,38331
16.63723,35824
16.64658,30712
16.65592,27350
16.66525,26309
16.67460,30073
16.68393,34312
16.69328,36736
16.70262,34205
16.71195,31390
16.72130,30524
16.73063,37478
16.73997,54876
16.74932,67836
16.75865,53150
16.76798,36415
16.77733,29234
16.78667,26740
16.79600,25576
16.80535,27666
16.81468,30925
16.82402,33147
16.83337,31996
16.84270,32019
16.85203,26483
16.86138,26263
16.87072,26677
16.88007,26277
16.88940,26069
16.89873,31966
16.90808,40129
16.91742,42177
16.92675,38591
16.93610,37923
16.94543,37952
16.95477,38391
16.96412,37456
16.97345,31271
16.98278,26876
16.99213,25507
17.00147,25200
17.01080,32558
17.02015,44318
17.02948,55200
17.03882,51033
17.04817,37604
17.05750,34171
17.06685,32546
17.07618,30613
17.08552,29108
17.09487,28833
17.10420,29953
17.11353,29686
17.12288,33686
17.13222,35399
17.14155,34879
17.15090,28346
17.16023,28002
17.16957,27666
17.17892,27026
17.18825,25873
17.19758,26330
17.20693,25493
17.21627,26303
17.22562,25265
17.23495,26069
17.24428,26737
17.25363,28493
17.26297,27595
17.27230,32355
17.28165,42407
17.29098,58066
17.30032,69781
17.30967,61234
17.31900,46561
17.32833,38939
17.33768,35990
17.34702,32173
17.35635,32772
17.36570,47643
17.37503,84844
17.38437,111166
17.39372,90158
17.40305,54670
17.41240,38437
17.42173,33610
17.43107,34317
17.44042,33981
17.44975,33934
17.45908,33303
17.46843,35387
17.47777,65198
17.48710,275399
17.49645,1136791
17.50578,2336384
17.51512,2182016
17.52447,1062509
17.53380,286508
17.54313,77169
17.55248,46046
17.56182,40528
17.57115,39093
17.58050,41473
17.58983,40703
17.59918,36756
17.60852,34191
17.61785,31094
17.62720,31001
17.63653,31902
17.64587,33834
17.65522,40467
17.66455,40853
17.67388,39174
17.68323,41679
17.69257,45877
17.70190,45263
17.71125,38513
17.72058,34175
17.72992,33547
17.73927,34411
17.74860,39354
17.75793,39920
17.76728,38618
17.77662,35096
17.78597,27699
17.79530,27357
17.80463,26953
17.81398,30107
17.82332,31456
17.83265,31700
17.84200,35054
17.85133,38161
17.86067,41877
17.87002,38106
17.87935,37535
17.88868,34556
17.89803,31629
17.90737,28753
17.91670,26362
17.92605,23961
17.93538,25798
17.94472,28055
17.95407,31999
17.96340,34679
17.97275,31714
17.98208,28574
17.99142,25761
18.00077,26840
18.01010,26778
18.01943,28050
18.02878,33985
18.03812,50176
18.04745,72914
18.05680,76659
18.06613,61177
18.07547,38182
18.08482,29391
18.09415,30101
18.10348,34008
18.11283,30506
18.12217,30853
18.13152,32137
18.14085,31236
18.15018,34000
18.15953,32969
18.16887,32170
18.17820,30456
18.18755,27351
18.19688,28569
18.20622,28568
18.21557,28483
18.22490,26963
18.23423,27082
18.24358,25793
18.25292,24486
18.26225,27466
18.27160,27690
18.28093,30588
18.29027,33015
18.29962,36344
18.30895,33777
18.31830,35020
18.32763,34517
18.33697,39498
18.34632,43768
18.35565,43723
18.36498,37931
18.37433,31945
18.38367,29410
18.39300,28446
18.40235,29590
18.41168,32406
18.42102,35230
18.43037,39837
18.43970,42269
18.44903,38245
18.45838,32409
18.46772,30053
18.47705,31971
18.48640,40913
18.49573,54800
18.50508,60616
18.51442,59498
18.52375,50377
18.53310,42883
18.54243,41709
18.55177,41090
18.56112,35321
18.57045,30235
18.57978,29212
18.58913,30788
18.59847,35113
18.60780,36895
18.61715,38651
18.62648,36431
18.63582,37961
18.64517,33739
18.65450,30878
18.66383,33356
18.67318,34521
18.68252,31449
18.69187,30694
18.70120,32450
18.71053,36128
18.71988,38232
18.72922,35300
18.73855,34805
18.74790,33428
18.75723,30326
18.76657,28529
18.77592,26875
18.78525,26868
18.79458,28138
18.80393,31722
18.81327,31084
18.82260,28749
18.83195,29134
18.84128,28247
18.85063,27133
18.85997,26095
18.86930,26258
18.87865,26263
18.88798,28689
18.89732,36717
18.90667,45259
18.91600,44261
18.92533,39843
18.93468,39696
18.94402,42303
18.95335,46612
18.96270,42979
18.97203,39469
18.98137,35918
18.99072,31535
19.00005,30145
19.00938,29534
19.01873,30530
19.02807,38102
19.03742,52547
19.04675,69117
19.05608,74229
19.06543,80333
19.07477,109726
19.08410,138261
19.09345,119142
19.10278,77190
19.11212,47490
19.12147,35336
19.13080,30000
19.14013,30817
19.14948,27115
19.15882,25507
19.16815,29088
19.17750,29811
19.18683,34945
19.19617,38119
19.20552,40756
19.21485,38669
19.22420,38983
19.23353,34865
19.24287,30545
19.25222,28043
19.26155,31643
19.27088,32589
19.28023,32809
19.28957,35223
19.29890,38192
19.30825,45346
19.31758,48556
19.32692,43440
19.33627,35461
19.34560,29862
19.35493,28055
19.36428,26118
19.37362,27826
19.38295,34251
19.39230,43136
19.40163,46486
19.41098,39512
19.42032,33541
19.42965,29533
19.43900,26083
19.44833,26390
19.45767,26373
19.46702,28022
19.47635,29467
19.48568,29566
19.49503,30168
19.50437,28591
19.51370,28063
19.52305,28605
19.53238,27740
19.54172,27143
19.55107,26037
19.56040,27941
19.56973,29563
19.57908,32753
19.58842,33096
19.59777,33496
19.60710,36833
19.61643,35954
19.62578,39381
19.63512,38838
19.64445,33647
19.65380,28791
19.66313,28640
19.67247,30453
19.68182,26845
19.69115,25586
19.70048,26399
19.70983,33617
19.71917,45525
19.72850,52710
19.73785,45844
19.74718,36552
19.75652,31803
19.76587,31557
19.77520,36540
19.78455,33154
19.79388,31855
19.80322,27962
19.81257,29694
19.82190,28875
19.83123,27922
19.84058,24923
19.84992,28101
19.85925,33024
19.86860,43097
19.87793,46433
19.88727,37310
19.89662,33606
19.90595,30303
19.91528,30400
19.92463,28147
19.93397,26698
19.94332,26311
19.95265,28551
19.96198,27854
19.97133,26047
19.98067,25681
19.99000,23815
19.99935,26576
20.00868,28760
20.01802,29739
20.02737,31229
20.03670,32474
20.04603,30687
20.05538,28691
20.06472,28870
20.07405,29472
20.08340,28317
20.09273,26102
20.10207,24848
20.11142,24285
20.12075,24443
20.13010,25082
20.13943,29817
20.14877,35905
20.15812,34613
20.16745,30840
20.17678,27505
20.18613,25674
20.19547,26673
20.20480,24495
20.21415,24915
20.22348,25909
20.23282,24086
20.24217,23563
20.25150,23511
20.26083,23976
20.27018,23019
20.27952,24335
20.28885,23884
20.29820,22678
20.30753,22675
20.31688,23058
20.32622,22711
20.33555,21919
20.34490,23952
20.35423,23388
20.36357,23195
20.37292,24408
20.38225,23955
20.39158,22445
20.40093,22752
20.41027,23430
20.41960,22330
20.42895,23824
20.43828,24206
20.44762,26478
20.45697,28347
20.46630,32191
20.47563,32755
20.48498,29713
20.49432,24010
20.50367,22945
20.51300,25088
20.52233,23117
20.53168,23957
20.54102,26987
20.55035,43514
20.55970,97560
20.56903,194296
20.57837,228738
20.58772,140472
20.59705,62656
20.60638,37088
20.61573,29744
20.62507,30234
20.63440,28945
20.64375,28233
20.65308,29548
20.66243,30677
20.67177,32391
20.68110,33225
20.69045,31120
20.69978,31763
20.70912,30764
20.71847,29113
20.72780,28470
20.73713,27232
20.74648,27753
20.75582,26287
20.76515,27642
20.77450,26137
20.78383,26750
20.79317,28267
20.80252,30585
20.81185,27849
20.82118,25567
20.83053,25487
20.83987,24481
20.84922,24096
20.85855,21276
20.86788,24360
20.87723,25625
20.88657,25591
20.89590,26521
20.90525,25593
20.91458,25816
20.92392,23160
20.93327,23572
20.94260,22811
20.95193,22551
20.96128,23323
20.97062,22621
20.97995,21342
20.98930,22718
20.99863,24284
21.00797,23896
21.01732,20727
21.02665,22263
21.03600,22412
21.04533,23834
21.05467,23331
21.06402,24490
21.07335,22599
21.08268,23319
21.09203,24536
21.10137,26408
21.11070,29183
21.12005,26839
21.12938,27056
21.13872,24504
21.14807,23617
21.15740,23169
21.16673,24530
21.17608,25899
21.18542,28943
21.19475,29875
21.20410,30380
21.21343,31172
21.22278,29084
21.23212,27280
21.24145,26172
21.25080,27460
21.26013,28239
21.26947,31075
21.27882,34372
21.28815,31701
21.29748,31373
21.30683,26119
21.31617,25599
21.32550,25235
21.33485,26323
21.34418,25813
21.35352,26191
21.36287,25665
21.37220,22691
21.38153,22767
21.39088,23688
21.40022,26337
21.40957,27096
21.41890,26436
21.42823,26732
21.43758,25741
21.44692,26225
21.45625,23929
21.46560,26486
21.47493,27107
21.48427,26069
21.49362,23970
21.50295,25829
21.51228,24052
21.52163,24683
21.53097,23679
21.54030,23397
21.54965,25143
21.55898,28772
21.56833,35220
21.57767,40705
21.58700,39564
21.59635,32780
21.60568,29759
21.61502,27740
21.62437,26391
21.63370,25797
21.64303,24864
21.65238,24794
21.66172,25472
21.67105,26511
21.68040,27022
21.68973,26057
21.69907,26749
21.70842,28427
21.71775,28186
21.72708,27393
21.73643,26338
21.74577,24967
21.75512,24550
21.76445,21149
21.77378,23921
21.78313,23942
21.79247,25077
21.80180,26775
21.81115,26427
21.82048,29766
21.82982,30095
21.83917,27616
21.84850,27062
21.85783,26651
21.86718,26253
21.87652,31676
21.88585,34292
21.89520,32011
21.90453,32107
21.91387,29129
21.92322,30018
21.93255,28539
21.94190,27482
21.95123,28431
21.96057,30795
21.96992,36615
21.97925,39525
21.98858,39048
21.99793,33235
22.00727,29066
22.01660,28770
22.02595,27367
22.03528,30607
22.04462,27944
22.05397,27198
22.06330,27982
22.07263,29907
22.08198,29665
22.09132,28615
22.10065,27830
22.11000,26839
22.11933,25440
22.12868,25259
22.13802,27881
22.14735,32424
22.15670,35607
22.16603,36339
22.17537,34236
22.18472,28747
22.19405,25606
22.20338,26577
22.21273,26501
22.22207,25291
22.23140,26658
22.24075,28818
22.25008,26888
22.25942,27207
22.26877,27709
22.27810,30507
22.28743,31628
22.29678,30061
22.30612,27487
22.31547,25113
22.32480,23951
22.33413,24667
22.34348,26297
22.35282,27535
22.36215,25795
22.37150,25759
22.38083,23422
22.39017,23834
22.39952,25306
22.40885,21544
22.41818,23113
22.42753,24250
22.43687,23866
22.44620,24526
22.45555,23563
22.46488,25276
22.47423,25047
22.48357,22967
22.49290,23694
22.50225,24760
22.51158,23159
22.52092,23085
22.53027,23087
22.53960,22508
22.54893,23804
22.55828,23442
22.56762,24827
22.57695,25479
22.58630,26291
22.59563,26458
22.60497,25659
22.61432,25585
22.62365,24967
22.63298,24433
22.64233,22957
22.65167,23779
22.66102,22251
22.67035,24371
22.67968,26356
22.68903,26157
22.69837,26952
22.70770,24510
22.71705,24311
22.72638,24490
22.73572,26229
22.74507,28222
22.75440,28848
22.76373,28639
22.77308,26180
22.78242,24627
22.79175,25322
22.80110,26296
22.81043,25157
22.81977,24713
22.82912,24561
22.83845,26471
22.84780,24878
22.85713,24083
22.86647,23784
22.87582,24518
22.88515,23763
22.89448,24513
22.90383,23611
22.91317,22282
22.92250,23224
22.93185,24418
22.94118,22802
22.95052,23998
22.95987,23790
22.96920,22916
22.97853,22692
22.98788,23001
22.99722,22507
23.00655,22846
23.01590,21799
23.02523,22729
23.03458,22410
23.04392,22627
23.05325,23483
23.06260,23315
23.07193,23785
23.08127,23539
23.09062,21458
23.09995,21645
23.10928,22043
23.11863,21609
23.12797,22248
23.13730,22138
23.14665,21827
23.15598,22267
23.16532,20774
23.17467,21067
23.18400,22735
23.19333,20046
23.20268,19625
23.21202,21069
23.22137,20766
23.23070,21039
23.24003,21705
23.24938,21560
23.25872,20702
23.26805,22561
23.27740,23399
23.28673,25196
23.29607,22567
23.30542,23953
23.31475,27262
23.32408,32325
23.33343,33743
23.34277,30798
23.35210,25546
23.36145,23652
23.37078,25009
23.38013,23405
23.38947,24678
23.39880,24871
23.40815,24537
23.41748,24413
23.42682,23064
23.43617,24881
23.44550,23821
23.45483,23677
23.46418,22010
23.47352,22625
23.48285,24323
23.49220,23306
23.50153,21822
23.51087,22254
23.52022,20971
23.52955,21106
23.53888,21930
23.54823,24918
23.55757,23111
23.56692,21991
23.57625,22398
23.58558,24928
23.59493,22959
23.60427,23531
23.61360,22696
23.62295,21965
23.63228,22185
23.64162,22931
23.65097,22128
23.66030,21298
23.66963,21477
23.67898,23222
23.68832,23076
23.69765,22363
23.70700,22450
23.71633,22431
23.72567,25191
23.73502,24146
23.74435,23447
23.75370,23706
23.76303,23287
23.77237,22639
23.78172,20921
23.79105,21334
23.80038,21720
23.80973,21925
23.81907,22476
23.82840,21434
23.83775,22052
23.84708,22545
23.85642,22518
23.86577,22513
23.87510,21636
23.88443,22893
23.89378,21295
23.90312,21391
23.91245,23266
23.92180,22415
23.93113,21539
23.94048,22572
23.94982,21297
23.95915,23073
23.96850,21795
23.97783,22309
23.98717,21699
23.99652,22108
24.00585,22531
24.01518,20601
24.02453,21426
24.03387,20805
24.04320,21298
24.05255,20862
24.06188,21986
24.07122,21669
24.08057,21176
24.08990,20639
24.09925,21671
24.10858,22664
24.11792,22182
24.12727,22912
24.13660,21471
24.14593,22600
24.15528,21938
24.16462,24141
24.17395,23994
24.18330,21155
24.19263,21658
24.20197,22642
24.21132,21591
24.22065,21443
24.22998,23538
24.23933,21433
24.24867,22196
24.25800,21008
24.26735,23100
24.27668,22258
24.28603,21663
24.29537,22752
24.30470,21946
24.31405,23492
24.32338,23381
24.33272,23705
24.34207,23568
24.35140,20894
24.36073,21491
24.37008,20762
24.37942,20809
24.38875,21869
24.39810,21979
24.40743,21988
24.41677,22813
24.42612,21164
24.43545,21723
24.44478,21932
24.45413,22463
24.46347,22695
24.47282,21906
24.48215,23667
24.49148,22317
24.50083,23050
24.51017,24039
24.51950,23898
24.52885,23261
24.53818,24962
24.54752,23192
24.55687,24777
24.56620,23451
24.57553,23219
24.58488,22883
24.59422,22719
24.60355,23509
24.61290,24030
24.62223,23512
24.63157,23169
24.64092,23973
24.65025,22899
24.65960,23222
24.66893,22507
24.67827,23357
24.68762,22856
24.69695,22825
24.70628,21169
24.71563,23137
24.72497,24033
24.73430,21571
24.74365,23869
24.75298,22893
24.76232,21566
24.77167,22702
24.78100,22289
24.79033,23092
24.79968,24853
24.80902,23686
24.81835,22986
24.82770,22861
24.83703,23558
24.84638,22720
24.85572,24615
24.86505,22996
24.87440,24977
24.88373,23027
24.89307,24608
24.90242,23264
24.91175,22096
24.92108,22802
24.93043,23737
24.93977,24137
24.94910,24221
24.95845,25069
24.96778,25583
24.97712,24585
24.98647,24555
24.99580,24443
25.00515,23187
25.01448,22901
25.02382,22739
25.03317,24839
25.04250,24119
25.05183,24035
25.06118,23765
25.07052,24569
25.07985,22689
25.08920,22630
25.09853,22747
25.10787,22840
25.11722,24336
25.12655,22609
25.13588,22339
25.14523,22356
25.15457,23132
25.16390,23898
25.17325,23588
25.18258,24642
25.19193,23019
25.20127,23589
25.21060,24300
25.21995,24583
25.22928,24389
25.23862,23389
25.24797,22718
25.25730,23710
25.26663,23727
25.27598,24794
25.28532,24094
25.29465,23394
25.30400,24458
25.31333,28676
25.32267,43378
25.33202,60358
25.34135,62929
25.35068,57902
25.36003,50265
25.36937,41799
25.37872,37762
25.38805,35941
25.39738,33447
25.40673,29933
25.41607,30539
25.42540,28420
25.43475,27868
25.44408,28067
25.45342,26525
25.46277,26202
25.47210,28971
25.48143,28480
25.49078,29861
25.50012,28929
25.50945,29632
25.51880,27784
25.52813,27607
25.53747,26590
25.54682,27023
25.55615,26328
25.56550,26416
25.57483,25838
25.58417,25966
25.59352,26222
25.60285,25607
25.61218,25961
25.62153,25877
25.63087,25168
25.64020,27157
25.64955,25547
25.65888,28527
25.66822,27175
25.67757,26413
25.68690,25128
25.69623,26360
25.70558,24289
25.71492,26511
25.72427,27128
25.73360,28695
25.74293,26870
25.75228,26246
25.76162,26947
25.77095,26876
25.78030,27576
25.78963,27797
25.79897,28509
25.80832,29846
25.81765,28010
25.82698,26893
25.83633,27353
25.84567,26473
25.85500,25774
25.86435,26406
25.87368,27855
25.88302,27732
25.89237,26458
25.90170,27257
25.91105,28014
25.92038,26013
25.92972,27378
25.93907,26662
25.94840,27270
25.95773,25698
25.96708,28099
25.97642,27538
25.98575,26766
25.99510,26896
26.00443,26537
26.01377,26012
26.02312,26582
26.03245,27510
26.04178,25668
26.05113,26390
26.06047,27051
26.06980,27878
26.07915,27402
26.08848,28190
26.09783,25980
26.10717,27146
26.11650,30181
26.12585,30707
26.13518,30551
26.14452,29836
26.15387,28922
26.16320,27855
26.17253,28255
26.18188,28553
26.19122,29001
26.20055,28637
26.20990,28320
26.21923,27685
26.22857,29132
26.23792,28162
26.24725,27712
26.25658,28808
26.26593,29146
26.27527,27195
26.28462,29732
26.29395,29111
26.30328,27627
26.31263,28475
26.32197,29138
26.33130,28490
26.34065,27876
26.34998,28817
26.35932,27656
26.36867,28440
26.37800,28674
26.38733,28467
26.39668,28009
26.40602,28627
26.41535,30351
26.42470,28874
26.43403,29241
26.44337,28530
26.45272,29662
26.46205,29244
26.47140,29430
26.48073,29328
26.49007,30501
26.49942,28756
26.50875,30053
26.51808,29797
26.52743,31764
26.53677,30997
26.54610,29771
26.55545,31532
26.56478,30574
26.57412,30407
26.58347,31120
26.59280,30153
26.60213,29851
26.61148,30135
26.62082,30222
26.63015,31048
26.63950,34256
26.64883,33206
26.65818,30214
26.66752,30338
26.67685,30340
26.68620,30051
26.69553,29445
26.70487,30630
26.71422,31716
26.72355,31080
26.73288,30857
26.74223,31518
26.75157,30090
26.76090,32500
26.77025,31149
26.77958,34592
26.78892,31419
26.79827,30682
26.80760,31619
26.81695,31606
26.82628,31926
26.83562,31743
26.84497,31819
26.85430,32642
26.86363,30694
26.87298,30881
26.88232,31830
26.89165,31444
26.90100,33994
26.91033,32518
26.91967,33771
26.92902,32410
26.93835,30661
26.94768,34588
26.95703,30600
26.96637,32669
26.97570,32894
26.98505,34943
26.99438,32685
27.00373,32978
27.01307,32589
27.02240,32811
27.03175,33383
27.04108,33720
27.05042,34256
27.05977,33605
27.06910,31579
27.07843,34262
27.08778,35261
27.09712,34073
27.10645,33727
27.11580,34227
27.12513,36481
27.13447,36085
27.14382,33245
27.15315,35708
27.16248,34403
27.17183,35527
27.18117,35585
27.19052,36070
27.19985,34653
27.20918,34618
27.21853,34077
27.22787,34986
27.23720,35151
27.24655,34632
27.25588,34832
27.26522,34826
27.27457,33575
27.28390,35430
27.29323,35041
27.30258,32933
27.31192,32993
27.32125,33738
27.33060,35086
27.33993,34253
27.34927,34165
27.35862,34577
27.36795,35800
27.37730,34817
27.38663,35017
27.39597,36135
27.40532,35847
27.41465,36380
27.42398,37507
27.43333,36849
27.44267,39255
27.45200,35915
27.46135,38296
27.47068,36889
27.48002,38289
27.48937,37061
27.49870,36885
27.50803,35769
27.51738,38657
27.52672,37564
27.53607,36562
27.54540,37636
27.55473,37813
27.56408,37067
27.57342,37419
27.58275,39731
27.59210,37195
27.60143,39062
27.61077,39128
27.62012,37910
27.62945,39426
27.63878,38844
27.64813,38894
27.65747,39137
27.66680,39237
27.67615,39300
27.68548,44115
27.69482,47996
27.70417,52696
27.71350,52049
27.72285,53671
27.73218,49176
27.74152,47929
27.75087,47855
27.76020,47135
27.76953,45858
27.77888,44088
27.78822,46259
27.79755,43346
27.80690,44566
27.81623,43053
27.82557,43311
27.83492,44619
27.84425,43417
27.85358,45257
27.86293,43632
27.87227,42681
27.88160,42907
27.89095,42438
27.90028,42169
27.90963,42227
27.91897,42399
27.92830,42551
27.93765,43248
27.94698,42177
27.95632,42416
27.96567,41216
27.97500,43605
27.98433,45089
27.99368,44026
28.00302,44516
28.01235,42719
28.02170,44401
28.03103,44165
28.04037,42040
28.04972,45838
28.05905,44069
28.06838,43903
28.07773,45306
28.08707,45739
28.09642,45850
28.10575,46725
28.11508,46480
28.12443,46514
28.13377,47512
28.14310,47143
28.15245,46376
28.16178,44195
28.17112,44224
28.18047,46797
28.18980,45730
28.19913,45128
28.20848,46278
28.21782,45012
28.22715,46023
28.23650,46976
28.24583,47337
28.25517,46984
28.26452,49802
28.27385,46160
28.28320,46184
28.29253,47657
28.30187,47073
28.31122,48052
28.32055,46469
28.32988,45184
28.33923,48325
28.34857,46709
28.35790,50455
28.36725,47623
28.37658,46608
28.38592,49107
28.39527,48509
28.40460,49390
28.41393,48170
28.42328,49784
28.43262,50467
28.44197,48482
28.45130,50010
28.46063,51032
28.46998,51558
28.47932,51290
28.48865,50712
28.49800,55370
28.50733,53571
28.51667,51164
28.52602,53012
28.53535,51189
28.54468,52652
28.55403,50817
28.56337,51040
28.57270,51521
28.58205,51528
28.59138,52962
28.60072,53037
28.61007,54994
28.61940,54934
28.62875,52692
28.63808,52171
28.64742,52649
28.65677,57811
28.66610,57407
28.67543,60062
28.68478,56075
28.69412,56347
28.70345,56933
28.71280,54938
28.72213,53071
28.73147,51551
28.74082,56084
28.75015,54286
28.75948,55212
28.76883,55057
28.77817,55486
28.78750,57686
28.79685,56068
28.80618,57039
28.81553,58138
28.82487,56122
28.83420,56553
28.84355,55715
28.85288,56515
28.86222,58259
28.87157,57779
28.88090,58790
28.89023,55460
28.89958,56786
28.90892,58206
28.91825,59079
28.92760,57634
28.93693,60108
28.94627,60595
28.95562,60363
28.96495,58909
28.97428,59734
28.98363,60869
28.99297,61545
29.00232,59902
29.01165,61940
29.02098,61792
29.03033,60734
29.03967,59949
29.04900,61631
29.05835,62460
29.06768,61760
29.07702,62742
29.08637,62072
29.09570,60875
29.10503,62382
29.11438,63001
29.12372,60855
29.13305,62233
29.14240,62195
29.15173,64848
29.16108,64070
29.17042,63793
29.17975,66158
29.18910,66301
29.19843,64338
29.20777,64084
29.21712,63553
29.22645,62865
29.23578,64693
29.24513,64719
29.25447,62192
29.26380,66154
29.27315,64134
29.28248,63392
29.29182,64318
29.30117,64375
29.31050,67734
29.31983,65373
29.32918,66166
29.33852,66113
29.34787,65987
29.35720,65741
29.36653,63139
29.37588,64287
29.38522,65168
29.39455,64073
29.40390,67182
29.41323,67550
29.42257,68000
29.43192,68651
29.44125,69907
29.45058,69627
29.45993,73674
29.46927,74632
29.47860,72619
29.48795,72984
29.49728,71735
29.50662,71328
29.51597,69476
29.52530,68766
29.53465,70955
29.54398,71137
29.55332,67307
29.56267,67044
29.57200,68629
29.58133,69421
29.59068,70298
29.60002,68127
29.60935,69864
29.61870,68323
29.62803,69274
29.63737,69629
29.64672,67185
29.65605,67452
29.66538,67531
29.67473,69374
29.68407,69375
29.69340,69835
29.70275,68848
29.71208,70622
29.72143,68928
29.73077,70738
29.74010,70487
29.74945,65718
29.75878,69160
29.76812,70738
29.77747,73012
29.78680,71297
29.79613,70490
29.80548,72526
29.81482,72262
29.82415,73553
29.83350,72785
29.84283,71114
29.85217,71549
29.86152,70564
29.87085,71275
29.88018,71519
29.88953,71480
29.89887,72002
29.90822,71765
29.91755,71545
29.92688,71124
29.93623,71118
29.94557,69011
29.95490,69949
29.96425,71932
29.97358,69000
29.98292,71148
29.99227,70844
30.00160,70998
30.01093,72515
30.02028,72237
30.02962,72111
30.03895,72539
30.04830,72788
30.05763,71874
30.06697,75405
30.07632,72068
30.08565,74152
30.09500,72850
30.10433,75262
30.11367,73750
30.12302,73405
30.13235,73379
30.14168,73738
30.15103,72782
30.16037,71664
30.16970,75622
30.17905,72432
30.18838,72930
30.19772,72227
30.20707,73280
30.21640,72443
30.22573,74108
30.23508,71749
30.24442,72782
30.25377,74538
30.26310,73704
30.27243,72658
30.28178,73362
30.29112,74641
30.30045,74733
30.30980,76565
30.31913,74914
30.32847,75160
30.33782,76880
30.34715,76833
30.35648,75359
30.36583,78036
30.37517,77537
30.38450,77033
30.39385,75819
30.40318,75322
30.41252,76460
30.42187,74411
30.43120,76963
30.44055,73747
30.44988,73561
30.45922,74468
30.46857,74989
30.47790,74380
30.48723,72970
30.49658,73497
30.50592,75734
30.51525,74321
30.52460,74741
30.53393,73490
30.54327,76500
30.55262,77518
30.56195,75323
30.57128,75384
30.58063,77151
30.58997,81697
30.59930,82524
30.60865,80942
30.61798,86379
30.62733,86756
30.63667,84988
30.64600,84534
30.65535,88829
30.66468,89292
30.67402,90103
30.68337,89803
30.69270,86955
30.70203,85130
30.71138,87578
30.72072,84525
30.73005,80917
30.73940,86022
30.74873,84998
30.75807,82583
30.76742,81728
30.77675,82306
30.78608,80130
30.79543,81026
30.80477,81883
30.81412,82024
30.82345,83132
30.83278,83947
30.84213,84709
30.85147,85821
30.86080,86640
30.87015,89703
30.87948,89208
30.88882,90887
30.89817,90298
30.90750,88837
30.91683,90299
30.92618,93223
30.93552,93569
30.94485,89287
30.95420,93021
30.96353,91047
30.97288,91546
30.98222,89717
30.99155,88976
31.00090,87860
31.01023,91117
31.01957,87958
31.02892,89629
31.03825,87387
31.04758,87156
31.05693,85595
31.06627,86521
31.07560,86780
31.08495,81403
31.09428,83542
31.10362,84804
31.11297,87471
31.12230,84954
31.13163,85917
31.14098,88126
31.15032,84077
31.15967,85427
31.16900,83839
31.17833,88214
31.18768,89018
31.19702,85397
31.20635,85711
31.21570,86251
31.22503,87991
31.23437,88212
31.24372,86007
31.25305,87168
31.26238,87734
31.27173,86574
31.28107,86893
31.29040,82884
31.29975,86196
31.30908,83556
31.31842,85854
31.32777,87675
31.33710,82440
31.34645,82498
31.35578,87047
31.36512,84269
