D:\数据\20220412\TEST4-SDHX-1.D Tue Apr 12 21:52:40 2022
Start of data points
0.09730,18762
0.10663,17745
0.11597,18217
0.12532,18203
0.13465,19523
0.14398,18901
0.15333,20587
0.16267,18745
0.17200,18541
0.18135,19084
0.19068,18760
0.20003,18390
0.20937,17725
0.21870,18369
0.22805,17294
0.23738,17689
0.24672,17062
0.25607,19891
0.26540,17529
0.27473,16757
0.28408,17358
0.29342,17416
0.30275,16713
0.31210,17704
0.32143,17826
0.33077,18436
0.34012,18173
0.34945,16806
0.35880,18274
0.36813,16802
0.37747,17795
0.38682,15887
0.39615,16587
0.40548,15437
0.41483,12476
0.42417,11545
0.43350,7647
0.44285,5510
0.45218,5114
0.46152,4115
0.47087,4476
0.48020,4521
0.48953,3824
0.49888,4521
0.50822,4363
0.51755,4122
0.52690,3600
0.53623,3976
0.54558,4366
0.55492,3869
0.56425,3728
0.57360,3956
0.58293,3959
0.59227,3462
0.60162,3836
0.61095,3437
0.62028,3962
0.62963,3177
0.63897,3488
0.64830,3600
0.65765,3531
0.66698,4200
0.67632,3749
0.68567,3871
0.69500,3481
0.70433,3508
0.71368,3835
0.72302,3934
0.73237,3839
0.74170,3461
0.75103,3805
0.76038,3809
0.76972,3845
0.77905,3341
0.78840,3775
0.79773,3694
0.80707,3751
0.81642,3600
0.82575,3459
0.83508,3394
0.84443,3751
0.85377,3781
0.86310,4403
0.87245,3270
0.88178,3223
0.89112,3601
0.90047,2922
0.90980,3256
0.91915,3277
0.92848,3988
0.93782,3406
0.94717,3333
0.95650,3251
0.96583,4115
0.97518,3675
0.98452,3234
0.99385,3735
1.00320,3528
1.01253,3260
1.02187,3486
1.03122,2811
1.04055,2665
1.04988,3146
1.05923,3801
1.06857,3434
1.07790,3516
1.08725,3010
1.09658,3228
1.10593,3503
1.11527,3410
1.12460,3496
1.13395,3382
1.14328,3089
1.15262,3187
1.16197,2853
1.17130,2976
1.18063,3107
1.18998,2810
1.19932,3320
1.20865,3758
1.21800,3438
1.22733,3589
1.23667,2933
1.24602,3625
1.25535,3564
1.26470,3594
1.27403,3371
1.28337,3593
1.29272,3382
1.30205,3382
1.31138,3527
1.32073,3260
1.33007,2902
1.33940,3640
1.34875,3054
1.35808,2783
1.36742,3636
1.37677,3493
1.38610,3553
1.39543,3455
1.40478,2956
1.41412,3004
1.42345,3748
1.43280,2937
1.44213,2879
1.45148,3314
1.46082,3139
1.47015,3062
1.47950,3181
1.48883,2869
1.49817,3125
1.50752,3540
1.51685,2846
1.52618,3167
1.53553,2739
1.54487,3035
1.55420,3140
1.56355,3064
1.57288,2869
1.58222,6032
1.59157,9766
1.60090,14709
1.61023,17869
1.61958,22867
1.62892,32284
1.63827,40407
1.64760,40716
1.65693,36082
1.66628,31525
1.67562,27432
1.68495,23453
1.69430,19860
1.70363,14077
1.71297,12781
1.72232,15319
1.73165,15920
1.74098,17555
1.75033,17361
1.75967,19251
1.76900,20505
1.77835,21508
1.78768,22251
1.79702,21592
1.80637,20593
1.81570,21418
1.82505,20997
1.83438,22393
1.84372,20840
1.85307,20870
1.86240,21918
1.87173,24691
1.88108,36254
1.89042,61594
1.89975,90148
1.90910,111954
1.91843,128373
1.92777,149951
1.93712,178862
1.94645,201426
1.95578,199871
1.96513,177261
1.97447,146266
1.98382,111815
1.99315,92086
2.00248,75728
2.01183,69563
2.02117,72420
2.03050,85464
2.03985,86220
2.04918,69332
2.05852,60500
2.06787,50831
2.07720,48127
2.08653,45302
2.09588,40987
2.10522,37786
2.11455,42395
2.12390,54345
2.13323,104689
2.14257,204692
2.15192,237639
2.16125,196715
2.17060,143115
2.17993,109679
2.18927,175390
2.19862,293540
2.20795,248390
2.21728,145691
2.22663,103684
2.23597,158943
2.24530,513252
2.25465,2200874
2.26398,4141911
2.27332,4200265
2.28267,3086076
2.29200,1877488
2.30133,1229144
2.31068,2404552
2.32002,6918064
2.32935,8808625
2.33870,5889887
2.34803,2772357
2.35738,1180626
2.36672,543698
2.37605,296942
2.38540,188699
2.39473,133195
2.40407,107432
2.41342,99315
2.42275,97564
2.43208,84868
2.44143,73014
2.45077,61695
2.46010,61910
2.46945,64044
2.47878,63342
2.48812,57570
2.49747,51469
2.50680,47751
2.51613,45421
2.52548,43183
2.53482,43970
2.54417,45654
2.55350,58472
2.56283,117910
2.57218,177643
2.58152,165093
2.59085,125929
2.60020,106731
2.60953,100389
2.61887,132507
2.62822,167754
2.63755,156684
2.64688,132457
2.65623,114998
2.66557,89136
2.67490,66072
2.68425,51422
2.69358,43529
2.70292,42994
2.71227,62299
2.72160,142779
2.73095,241665
2.74028,218977
2.74962,161299
2.75897,132202
2.76830,139184
2.77763,172220
2.78698,203601
2.79632,180330
2.80565,134692
2.81500,105816
2.82433,89586
2.83367,82614
2.84302,170494
2.85235,531693
2.86168,1064892
2.87103,1115663
2.88037,692479
2.88970,323104
2.89905,159446
2.90838,91820
2.91773,67203
2.92707,57097
2.93640,47906
2.94575,46722
2.95508,43657
2.96442,39712
2.97377,39678
2.98310,39310
2.99243,46275
3.00178,51240
3.01112,56707
3.02045,89675
3.02980,207964
3.03913,262080
3.04847,204911
3.05782,139738
3.06715,103344
3.07650,84457
3.08583,70423
3.09517,52416
3.10452,45000
3.11385,39018
3.12318,37273
3.13253,38658
3.14187,43437
3.15120,69475
3.16055,124263
3.16988,153859
3.17922,116881
3.18857,72803
3.19790,50766
3.20723,40915
3.21658,36526
3.22592,35638
3.23525,32812
3.24460,30707
3.25393,32778
3.26328,32471
3.27262,31756
3.28195,30672
3.29130,33223
3.30063,32271
3.30997,35452
3.31932,34744
3.32865,31037
3.33798,30804
3.34733,30905
3.35667,31524
3.36600,31323
3.37535,32293
3.38468,30458
3.39402,29518
3.40337,33662
3.41270,39760
3.42203,45009
3.43138,42969
3.44072,39316
3.45007,39961
3.45940,37483
3.46873,32738
3.47808,33258
3.48742,32510
3.49675,32764
3.50610,30554
3.51543,31686
3.52477,30560
3.53412,31800
3.54345,39885
3.55278,83081
3.56213,165838
3.57147,223635
3.58080,198294
3.59015,128591
3.59948,90390
3.60882,75856
3.61817,64421
3.62750,52569
3.63685,47886
3.64618,43346
3.65552,39427
3.66487,35227
3.67420,37415
3.68353,34917
3.69288,32629
3.70222,31619
3.71155,32786
3.72090,38093
3.73023,38929
3.73957,38381
3.74892,34493
3.75825,29653
3.76758,30275
3.77693,28863
3.78627,29305
3.79562,31952
3.80495,37269
3.81428,45631
3.82363,52636
3.83297,47781
3.84230,39600
3.85165,36216
3.86098,33406
3.87032,33693
3.87967,33450
3.88900,37918
3.89833,45142
3.90768,47751
3.91702,42275
3.92635,48585
3.93570,62669
3.94503,63935
3.95437,57012
3.96372,51105
3.97305,42078
3.98240,35591
3.99173,33461
4.00107,31804
4.01042,31519
4.01975,33509
4.02908,54434
4.03843,114747
4.04777,174624
4.05710,173994
4.06645,116129
4.07578,75954
4.08512,67259
4.09447,65527
4.10380,58258
4.11313,48764
4.12248,38764
4.13182,34681
4.14115,33712
4.15050,31252
4.15983,31785
4.16918,30775
4.17852,29644
4.18785,28919
4.19720,29979
4.20653,34270
4.21587,34817
4.22522,33906
4.23455,30393
4.24388,29736
4.25323,28443
4.26257,30500
4.27190,31688
4.28125,29828
4.29058,31187
4.29992,29520
4.30927,33380
4.31860,40156
4.32793,44807
4.33728,44230
4.34662,39397
4.35597,36486
4.36530,30741
4.37463,30980
4.38398,28661
4.39332,29503
4.40265,27492
4.41200,27774
4.42133,27061
4.43067,27126
4.44002,27147
4.44935,27497
4.45868,28930
4.46803,34222
4.47737,37998
4.48670,40161
4.49605,38786
4.50538,32658
4.51472,30280
4.52407,27927
4.53340,27759
4.54275,29861
4.55208,27610
4.56142,27984
4.57077,26592
4.58010,27667
4.58943,27543
4.59878,28611
4.60812,28195
4.61745,27818
4.62680,27240
4.63613,29170
4.64547,29941
4.65482,32278
4.66415,32239
4.67348,28751
4.68283,32026
4.69217,37531
4.70152,43920
4.71085,43976
4.72018,40629
4.72953,37195
4.73887,35555
4.74820,30167
4.75755,29331
4.76688,29367
4.77622,30184
4.78557,28630
4.79490,28493
4.80423,30607
4.81358,30085
4.82292,32284
4.83225,31511
4.84160,30520
4.85093,28814
4.86027,28961
4.86962,30483
4.87895,32080
4.88830,31129
4.89763,32075
4.90697,31130
4.91632,30638
4.92565,29632
4.93498,30584
4.94433,31449
4.95367,30707
4.96300,27533
4.97235,26417
4.98168,25156
4.99102,26610
5.00037,28112
5.00970,29768
5.01903,31343
5.02838,32920
5.03772,34588
5.04705,29912
5.05640,28031
5.06573,27259
5.07508,29897
5.08442,31044
5.09375,30646
5.10310,30049
5.11243,27371
5.12177,26695
5.13112,26852
5.14045,27292
5.14978,27996
5.15913,25176
5.16847,27367
5.17780,28386
5.18715,30727
5.19648,28434
5.20582,26954
5.21517,25890
5.22450,26808
5.23383,27030
5.24318,29792
5.25252,29748
5.26187,31031
5.27120,45722
5.28053,82511
5.28988,118150
5.29922,116077
5.30855,75943
5.31790,50078
5.32723,39988
5.33657,36040
5.34592,32288
5.35525,30017
5.36458,26908
5.37393,27743
5.38327,29115
5.39260,32611
5.40195,32289
5.41128,30222
5.42063,28955
5.42997,27645
5.43930,26100
5.44865,27176
5.45798,25987
5.46732,24746
5.47667,25546
5.48600,26765
5.49533,28781
5.50468,28096
5.51402,29391
5.52335,30609
5.53270,33894
5.54203,34251
5.55137,32948
5.56072,29927
5.57005,28051
5.57938,26484
5.58873,25670
5.59807,25905
5.60742,25291
5.61675,26080
5.62608,24212
5.63543,23661
5.64477,25039
5.65410,25658
5.66345,25263
5.67278,26372
5.68212,27389
5.69147,28543
5.70080,27034
5.71013,30245
5.71948,32322
5.72882,29510
5.73815,29850
5.74750,30839
5.75683,32752
5.76617,32320
5.77552,29480
5.78485,27938
5.79420,26705
5.80353,25667
5.81287,25108
5.82222,27795
5.83155,30200
5.84088,28849
5.85023,27610
5.85957,28396
5.86890,27711
5.87825,26707
5.88758,26602
5.89692,25930
5.90627,26100
5.91560,38889
5.92493,56258
5.93428,56763
5.94362,43008
5.95295,36832
5.96230,32609
5.97163,28339
5.98098,25164
5.99032,24410
5.99965,24867
6.00900,23507
6.01833,24174
6.02767,20927
6.03702,18103
6.04635,16899
6.05568,15174
6.06503,16290
6.07437,15693
6.08370,14410
6.09305,15059
6.10238,14715
6.11172,15091
6.12107,20204
6.13040,26053
6.13973,28705
6.14908,26066
6.15842,17749
6.16777,13091
6.17710,12526
6.18643,13120
6.19578,12185
6.20512,11453
6.21445,12887
6.22380,13277
6.23313,15173
6.24247,13269
6.25182,12650
6.26115,13279
6.27048,17907
6.27983,18021
6.28917,15597
6.29850,11784
6.30785,11751
6.31718,10928
6.32653,9729
6.33587,9968
6.34520,10195
6.35455,9039
6.36388,11850
6.37322,15497
6.38257,26053
6.39190,69993
6.40123,215786
6.41058,389355
6.41992,384546
6.42925,210110
6.43860,72114
6.44793,24642
6.45727,14616
6.46662,15447
6.47595,13647
6.48528,13106
6.49463,12245
6.50397,13030
6.51332,13715
6.52265,14223
6.53198,13312
6.54133,12345
6.55067,10092
6.56000,10707
6.56935,9821
6.57868,11687
6.58802,10817
6.59737,12341
6.60670,12405
6.61603,12696
6.62538,12578
6.63472,13146
6.64405,12955
6.65340,13928
6.66273,14460
6.67207,14614
6.68142,14170
6.69075,13836
6.70010,14067
6.70943,14799
6.71877,13053
6.72812,11801
6.73745,12707
6.74678,10899
6.75613,12089
6.76547,11587
6.77480,11815
6.78415,12101
6.79348,15230
6.80282,16925
6.81217,15808
6.82150,13020
6.83083,12562
6.84018,12701
6.84952,12212
6.85885,11604
6.86820,10938
6.87753,11631
6.88688,11460
6.89622,12479
6.90555,12508
6.91490,13434
6.92423,13042
6.93357,11186
6.94292,11453
6.95225,12903
6.96158,12324
6.97093,11199
6.98027,12006
6.98960,11449
6.99895,11182
7.00828,10795
7.01762,12519
7.02697,11595
7.03630,10536
7.04565,9855
7.05498,10684
7.06432,9969
7.07367,10223
7.08300,10136
7.09233,9936
7.10168,11670
7.11102,12017
7.12035,14270
7.12970,11347
7.13903,11821
7.14837,10896
7.15772,10805
7.16705,11249
7.17638,10666
7.18573,10790
7.19507,11334
7.20440,11299
7.21375,11693
7.22308,18159
7.23243,33407
7.24177,47944
7.25110,43966
7.26045,29386
7.26978,19494
7.27912,19642
7.28847,17040
7.29780,14880
7.30713,13426
7.31648,11951
7.32582,9949
7.33515,10459
7.34450,9723
7.35383,9188
7.36317,10254
7.37252,10875
7.38185,15291
7.39118,31106
7.40053,65029
7.40987,95037
7.41922,88972
7.42855,57890
7.43788,34406
7.44723,21289
7.45657,14451
7.46590,13305
7.47525,13229
7.48458,14394
7.49392,14560
7.50327,12517
7.51260,11787
7.52193,11375
7.53128,11518
7.54062,10462
7.54995,11722
7.55930,13502
7.56863,13258
7.57797,14120
7.58732,12239
7.59665,11772
7.60600,12918
7.61533,13084
7.62467,13074
7.63402,13564
7.64335,12779
7.65268,12089
7.66203,11063
7.67137,11963
7.68070,22834
7.69005,78323
7.69938,200261
7.70872,290371
7.71807,218042
7.72740,92597
7.73673,30633
7.74608,17103
7.75542,15610
7.76475,14506
7.77410,16100
7.78343,15897
7.79278,14936
7.80212,13913
7.81145,13188
7.82080,12647
7.83013,13031
7.83947,14570
7.84882,16653
7.85815,26935
7.86748,36967
7.87683,39865
7.88617,31405
7.89550,21919
7.90485,28266
7.91418,42530
7.92352,49572
7.93287,40848
7.94220,30338
7.95153,26358
7.96088,23590
7.97022,19753
7.97957,18479
7.98890,20942
7.99823,18551
8.00758,16158
8.01692,14320
8.02625,16418
8.03560,22484
8.04493,27422
8.05427,26514
8.06362,20635
8.07295,17565
8.08228,17226
8.09163,18720
8.10097,20211
8.11030,18521
8.11965,15433
8.12898,16129
8.13833,14824
8.14767,13919
8.15700,13193
8.16635,13786
8.17568,13638
8.18502,13452
8.19437,13691
8.20370,15068
8.21303,15330
8.22238,12883
8.23172,13823
8.24105,14688
8.25040,13399
8.25973,13827
8.26907,13578
8.27842,12550
8.28775,12397
8.29708,11546
8.30643,12339
8.31577,11341
8.32512,11926
8.33445,11437
8.34378,13004
8.35313,11695
8.36247,12101
8.37180,12753
8.38115,12480
8.39048,12999
8.39982,14384
8.40917,15949
8.41850,17199
8.42783,15829
8.43718,15674
8.44652,14481
8.45585,15565
8.46520,13936
8.47453,14305
8.48387,14015
8.49322,14184
8.50255,15476
8.51190,12933
8.52123,14357
8.53057,13299
8.53992,15032
8.54925,15187
8.55858,15446
8.56793,14237
8.57727,14036
8.58660,13905
8.59595,15487
8.60528,15731
8.61462,15926
8.62397,14572
8.63330,15061
8.64263,15808
8.65198,15677
8.66132,16330
8.67065,16296
8.68000,17332
8.68933,15466
8.69868,16429
8.70802,16677
8.71735,16317
8.72670,15508
8.73603,16283
8.74537,19957
8.75472,21654
8.76405,21728
8.77338,18559
8.78273,18398
8.79207,26637
8.80140,45635
8.81075,58787
8.82008,51298
8.82942,31796
8.83877,20566
8.84810,16225
8.85745,16068
8.86678,16094
8.87612,16437
8.88547,17135
8.89480,16605
8.90413,16087
8.91348,16599
8.92282,18043
8.93215,16694
8.94150,17154
8.95083,15687
8.96017,15311
8.96952,14337
8.97885,13899
8.98818,14242
8.99753,15938
9.00687,15618
9.01620,15672
9.02555,14507
9.03488,15410
9.04423,14960
9.05357,16063
9.06290,18768
9.07225,17499
9.08158,21393
9.09092,21750
9.10027,21149
9.10960,18187
9.11893,17761
9.12828,20769
9.13762,23569
9.14695,21353
9.15630,17891
9.16563,16017
9.17497,14732
9.18432,15603
9.19365,16387
9.20298,16025
9.21233,18373
9.22167,27388
9.23102,35534
9.24035,35994
9.24968,26334
9.25903,18659
9.26837,15390
9.27770,15025
9.28705,14847
9.29638,15455
9.30572,15766
9.31507,18075
9.32440,23966
9.33373,27960
9.34308,24545
9.35242,27732
9.36175,47879
9.37110,73624
9.38043,77325
9.38977,62375
9.39912,42613
9.40845,30508
9.41780,28911
9.42713,27420
9.43647,22519
9.44582,18805
9.45515,15498
9.46448,15332
9.47383,14902
9.48317,15929
9.49250,17765
9.50185,17578
9.51118,16187
9.52052,15869
9.52987,17550
9.53920,19440
9.54853,22778
9.55788,28582
9.56722,32353
9.57655,27079
9.58590,21082
9.59523,21522
9.60458,21119
9.61392,19700
9.62325,17335
9.63260,16318
9.64193,16743
9.65127,15529
9.66062,16822
9.66995,17550
9.67928,16686
9.68863,16513
9.69797,15555
9.70730,16897
9.71665,31884
9.72598,118029
9.73532,384440
9.74467,752484
9.75400,783386
9.76335,520131
9.77268,291585
9.78202,171216
9.79137,120331
9.80070,94571
9.81003,76044
9.81938,68990
9.82872,73090
9.83805,69864
9.84740,69284
9.85673,58323
9.86607,48859
9.87542,47973
9.88475,54046
9.89408,59869
9.90343,57480
9.91277,57100
9.92210,56102
9.93145,45735
9.94078,35561
9.95013,32389
9.95947,40194
9.96880,84054
9.97815,208212
9.98748,336151
9.99682,296507
10.00617,147607
10.01550,59774
10.02483,33540
10.03418,27861
10.04352,26631
10.05285,28465
10.06220,33386
10.07153,36501
10.08087,34132
10.09022,31870
10.09955,40864
10.10888,106340
10.11823,289328
10.12757,453819
10.13692,403103
10.14625,400892
10.15558,830018
10.16493,1262837
10.17427,939236
10.18360,350400
10.19295,85704
10.20228,35356
10.21162,29254
10.22097,26627
10.23030,26351
10.23963,27619
10.24898,29139
10.25832,25760
10.26765,21588
10.27700,22007
10.28633,21494
10.29567,22005
10.30502,21349
10.31435,21925
10.32370,20412
10.33303,20237
10.34237,17963
10.35172,19441
10.36105,19895
10.37038,18382
10.37973,17381
10.38907,17338
10.39840,17537
10.40775,19487
10.41708,23816
10.42642,28082
10.43577,27805
10.44510,29282
10.45443,38409
10.46378,40983
10.47312,31483
10.48247,22485
10.49180,18728
10.50113,18266
10.51048,16842
10.51982,17394
10.52915,17286
10.53850,18292
10.54783,18241
10.55717,19406
10.56652,20099
10.57585,19508
10.58518,18979
10.59453,17837
10.60387,17839
10.61320,19606
10.62255,20294
10.63188,23398
10.64122,23880
10.65057,20308
10.65990,20271
10.66925,21461
10.67858,20764
10.68792,20232
10.69727,23318
10.70660,30486
10.71593,39586
10.72528,37034
10.73462,27831
10.74395,28685
10.75330,45986
10.76263,74421
10.77197,79888
10.78132,74505
10.79065,89653
10.79998,131952
10.80933,133590
10.81867,83690
10.82800,42152
10.83735,26377
10.84668,23474
10.85603,23930
10.86537,25493
10.87470,28825
10.88405,27943
10.89338,27155
10.90272,22583
10.91207,22820
10.92140,24409
10.93073,27228
10.94008,24912
10.94942,24077
10.95875,22336
10.96810,20049
10.97743,18720
10.98677,17886
10.99612,17061
11.00545,18190
11.01478,15919
11.02413,15254
11.03347,15796
11.04282,17555
11.05215,16681
11.06148,16481
11.07083,15284
11.08017,16737
11.08950,15768
11.09885,17035
11.10818,17847
11.11752,18238
11.12687,18112
11.13620,17223
11.14553,16633
11.15488,16095
11.16422,16452
11.17355,17155
11.18290,16401
11.19223,16573
11.20157,17423
11.21092,18267
11.22025,19807
11.22960,18914
11.23893,17511
11.24827,16350
11.25762,17965
11.26695,19152
11.27628,18134
11.28563,16344
11.29497,17201
11.30430,17684
11.31365,16061
11.32298,16879
11.33232,23324
11.34167,29343
11.35100,32939
11.36033,31475
11.36968,24566
11.37902,18720
11.38835,21846
11.39770,25404
11.40703,30082
11.41638,30295
11.42572,22760
11.43505,18889
11.44440,17296
11.45373,19676
11.46307,26070
11.47242,27019
11.48175,22170
11.49108,19037
11.50043,15922
11.50977,15434
11.51910,15331
11.52845,15980
11.53778,14850
11.54712,16642
11.55647,21188
11.56580,28648
11.57515,38549
11.58448,40809
11.59382,30881
11.60317,26849
11.61250,24326
11.62183,19914
11.63118,19801
11.64052,18598
11.64985,21635
11.65920,24628
11.66853,26350
11.67787,23620
11.68722,22743
11.69655,22715
11.70588,21378
11.71523,21262
11.72457,21755
11.73390,20335
11.74325,19401
11.75258,19799
11.76193,20587
11.77127,20021
11.78060,21584
11.78995,22267
11.79928,21729
11.80862,19953
11.81797,19164
11.82730,20533
11.83663,19124
11.84598,18102
11.85532,17518
11.86465,19096
11.87400,17836
11.88333,19104
11.89267,18334
11.90202,18129
11.91135,15892
11.92068,16026
11.93003,20318
11.93937,23441
11.94872,24789
11.95805,21891
11.96738,19975
11.97673,18819
11.98607,19496
11.99540,20048
12.00475,22257
12.01408,25839
12.02342,25866
12.03277,21357
12.04210,19480
12.05143,17202
12.06078,17512
12.07012,15895
12.07945,16431
12.08880,16174
12.09813,18237
12.10747,17105
12.11682,16127
12.12615,15929
12.13550,17357
12.14483,18897
12.15417,23911
12.16352,45128
12.17285,64832
12.18218,67832
12.19153,42536
12.20087,25295
12.21020,21816
12.21955,23897
12.22888,27292
12.23822,26206
12.24757,21003
12.25690,19589
12.26623,24252
12.27558,32711
12.28492,36616
12.29427,30568
12.30360,23705
12.31293,21203
12.32228,20468
12.33162,21998
12.34095,22561
12.35030,23104
12.35963,20162
12.36897,18681
12.37832,19337
12.38765,19491
12.39698,17896
12.40633,17553
12.41567,17313
12.42500,16992
12.43435,17951
12.44368,17463
12.45302,18630
12.46237,19758
12.47170,22037
12.48105,21386
12.49038,21910
12.49972,23277
12.50907,21987
12.51840,21875
12.52773,22214
12.53708,20429
12.54642,23423
12.55575,23756
12.56510,25502
12.57443,23398
12.58377,20715
12.59312,19125
12.60245,18126
12.61178,20458
12.62113,21539
12.63047,24586
12.63980,27654
12.64915,27748
12.65848,24872
12.66783,22457
12.67717,18112
12.68650,15627
12.69585,15789
12.70518,18139
12.71452,18793
12.72387,18388
12.73320,18196
12.74253,18270
12.75188,18444
12.76122,17472
12.77055,15796
12.77990,14060
12.78923,14997
12.79857,17174
12.80792,17259
12.81725,17036
12.82658,17328
12.83593,17103
12.84527,17461
12.85462,17871
12.86395,18039
12.87328,16766
12.88263,16883
12.89197,18559
12.90130,17636
12.91065,17145
12.91998,15982
12.92932,15629
12.93867,17569
12.94800,16992
12.95733,15842
12.96668,14878
12.97602,14742
12.98535,14917
12.99470,13925
13.00403,14998
13.01337,16046
13.02272,19079
13.03205,21086
13.04140,19346
13.05073,17185
13.06007,17412
13.06942,17857
13.07875,17933
13.08808,16532
13.09743,17074
13.10677,16464
13.11610,16095
13.12545,17959
13.13478,20058
13.14412,20303
13.15347,19986
13.16280,20160
13.17213,19691
13.18148,22504
13.19082,41079
13.20017,87114
13.20950,118661
13.21883,96738
13.22818,57635
13.23752,42138
13.24685,41258
13.25620,32467
13.26553,24193
13.27487,21557
13.28422,20590
13.29355,20186
13.30288,21441
13.31223,24266
13.32157,25211
13.33090,23212
13.34025,20464
13.34958,20051
13.35892,17606
13.36827,18664
13.37760,18076
13.38695,24524
13.39628,25497
13.40562,23835
13.41497,20758
13.42430,18978
13.43363,20253
13.44298,21274
13.45232,19141
13.46165,19790
13.47100,20137
13.48033,19495
13.48967,19131
13.49902,19577
13.50835,25664
13.51768,38471
13.52703,45465
13.53637,38044
13.54570,26066
13.55505,18203
13.56438,16645
13.57373,17704
13.58307,16611
13.59240,18025
13.60175,16613
13.61108,18108
13.62042,16569
13.62977,17910
13.63910,19494
13.64843,19594
13.65778,20250
13.66712,20851
13.67645,18083
13.68580,18616
13.69513,16910
13.70447,15427
13.71382,15459
13.72315,14670
13.73248,16558
13.74183,15256
13.75117,16600
13.76052,16743
13.76985,17474
13.77918,15976
13.78853,17573
13.79787,20118
13.80720,20269
13.81655,19720
13.82588,17304
13.83522,17708
13.84457,17782
13.85390,17723
13.86323,19033
13.87258,20176
13.88192,25743
13.89125,40343
13.90060,68811
13.90993,105185
13.91928,106399
13.92862,72167
13.93795,36860
13.94730,24229
13.95663,24164
13.96597,21706
13.97532,20806
13.98465,20155
13.99398,21414
14.00333,20891
14.01267,20638
14.02200,19130
14.03135,36532
14.04068,191635
14.05002,1056852
14.05937,3024587
14.06870,4092193
14.07803,2761511
14.08738,878245
14.09672,169503
14.10607,50170
14.11540,34752
14.12473,30313
14.13408,28946
14.14342,29978
14.15275,31740
14.16210,32245
14.17143,29918
14.18077,29375
14.19012,32418
14.19945,32620
14.20878,28749
14.21813,24434
14.22747,20812
14.23680,20858
14.24615,20901
14.25548,22490
14.26482,24011
14.27417,22013
14.28350,20326
14.29285,20192
14.30218,21930
14.31152,29129
14.32087,36397
14.33020,38703
14.33953,29968
14.34888,24214
14.35822,21258
14.36755,19777
14.37690,20854
14.38623,21937
14.39557,22474
14.40492,19367
14.41425,18060
14.42358,16618
14.43293,18578
14.44227,22446
14.45160,33837
14.46095,43544
14.47028,47419
14.47963,34399
14.48897,27169
14.49830,22341
14.50765,21079
14.51698,20715
14.52632,20725
14.53567,21031
14.54500,21285
14.55433,22130
14.56368,22999
14.57302,22065
14.58235,20968
14.59170,19706
14.60103,20052
14.61037,20496
14.61972,18828
14.62905,22024
14.63838,24000
14.64773,28687
14.65707,29247
14.66642,29441
14.67575,25822
14.68508,25279
14.69443,25106
14.70377,22447
14.71310,21221
14.72245,21827
14.73178,22542
14.74112,22925
14.75047,21221
14.75980,21543
14.76913,22399
14.77848,21348
14.78782,21404
14.79715,22933
14.80650,22878
14.81583,23503
14.82518,24084
14.83452,24085
14.84385,29498
14.85320,38625
14.86253,42057
14.87187,35378
14.88122,27717
14.89055,22061
14.89988,21723
14.90923,21308
14.91857,23256
14.92790,21708
14.93725,20657
14.94658,19905
14.95592,20872
14.96527,23485
14.97460,26160
14.98393,24054
14.99328,26248
15.00262,31776
15.01197,35456
15.02130,31336
15.03063,29428
15.03998,36092
15.04932,37815
15.05865,33242
15.06800,29162
15.07733,26853
15.08667,23743
15.09602,20809
15.10535,21876
15.11468,30732
15.12403,40854
15.13337,42975
15.14270,33412
15.15205,26779
15.16138,20855
15.17072,20134
15.18007,21315
15.18940,28566
15.19875,40974
15.20808,57684
15.21742,62182
15.22677,50851
15.23610,35927
15.24543,29707
15.25478,24925
15.26412,26591
15.27345,25180
15.28280,25344
15.29213,26016
15.30147,24199
15.31082,26054
15.32015,35073
15.32948,39064
15.33883,36931
15.34817,31410
15.35750,29545
15.36685,34415
15.37618,33138
15.38553,27726
15.39487,21836
15.40420,23972
15.41355,22548
15.42288,24104
15.43222,24164
15.44157,21698
15.45090,21346
15.46023,21564
15.46958,22405
15.47892,24316
15.48825,26998
15.49760,30798
15.50693,42715
15.51627,47649
15.52562,42911
15.53495,32390
15.54430,24501
15.55363,22645
15.56297,22444
15.57232,22134
15.58165,24119
15.59098,23107
15.60033,22942
15.60967,24381
15.61900,26008
15.62835,31961
15.63768,35601
15.64702,34343
15.65637,34750
15.66570,30415
15.67503,27732
15.68438,29262
15.69372,33864
15.70305,37869
15.71240,37600
15.72173,32383
15.73108,31088
15.74042,34827
15.74975,36301
15.75910,35072
15.76843,33387
15.77777,31493
15.78712,29318
15.79645,28975
15.80578,33304
15.81513,59144
15.82447,139797
15.83380,306357
15.84315,382348
15.85248,245186
15.86182,107020
15.87117,59013
15.88050,51276
15.88983,51474
15.89918,52050
15.90852,49900
15.91787,41752
15.92720,32735
15.93653,30330
15.94588,29830
15.95522,29991
15.96455,31227
15.97390,37533
15.98323,45805
15.99257,46424
16.00192,42249
16.01125,34224
16.02058,32298
16.02993,31672
16.03927,33135
16.04860,34990
16.05795,37107
16.06728,36301
16.07662,35652
16.08597,31898
16.09530,31328
16.10465,32795
16.11398,33603
16.12332,36435
16.13267,35604
16.14200,33765
16.15133,33743
16.16068,32856
16.17002,28156
16.17935,27157
16.18870,27615
16.19803,30464
16.20737,32701
16.21672,32811
16.22605,37716
16.23538,41036
16.24473,40671
16.25407,39375
16.26340,36581
16.27275,43336
16.28208,71468
16.29143,115819
16.30077,130235
16.31010,93823
16.31945,55733
16.32878,36721
16.33812,32127
16.34747,27520
16.35680,25429
16.36613,26282
16.37548,24761
16.38482,28605
16.39415,32024
16.40350,36311
16.41283,37995
16.42217,36813
16.43152,34024
16.44085,34642
16.45018,36284
16.45953,35580
16.46887,32295
16.47822,31292
16.48755,30715
16.49688,29707
16.50623,31801
16.51557,31378
16.52490,30386
16.53425,29105
16.54358,26808
16.55292,25660
16.56227,26499
16.57160,28743
16.58093,28649
16.59028,29046
16.59962,28530
16.60895,30197
16.61830,35331
16.62763,37595
16.63698,36589
16.64632,32827
16.65565,31169
16.66500,30555
16.67433,35271
16.68367,41209
16.69302,46311
16.70235,44667
16.71168,39055
16.72103,31704
16.73037,39454
16.73970,59288
16.74905,72410
16.75838,61502
16.76772,39667
16.77707,31334
16.78640,29511
16.79573,29060
16.80508,28848
16.81442,32913
16.82377,42233
16.83310,43789
16.84243,39872
16.85178,30931
16.86112,28104
16.87045,28847
16.87980,27830
16.88913,31617
16.89847,39781
16.90782,51543
16.91715,56925
16.92648,48087
16.93583,45875
16.94517,43428
16.95450,45502
16.96385,41036
16.97318,36498
16.98252,29773
16.99187,27956
17.00120,29542
17.01055,35612
17.01988,51842
17.02922,65553
17.03857,60712
17.04790,44511
17.05723,36434
17.06658,35189
17.07592,33414
17.08525,31638
17.09460,32292
17.10393,29877
17.11327,32277
17.12262,35766
17.13195,39765
17.14128,41107
17.15063,33063
17.15997,32395
17.16930,29527
17.17865,28499
17.18798,27434
17.19733,27150
17.20667,26655
17.21600,27014
17.22535,28347
17.23468,29048
17.24402,28419
17.25337,29358
17.26270,32557
17.27203,33274
17.28138,31908
17.29072,31794
17.30005,30131
17.30940,33693
17.31873,37324
17.32807,38016
17.33742,37477
17.34675,33032
17.35610,33433
17.36543,47675
17.37477,88002
17.38412,118191
17.39345,97599
17.40278,60989
17.41213,45414
17.42147,43011
17.43080,40684
17.44015,40813
17.44948,36933
17.45882,36163
17.46817,36366
17.47750,60098
17.48683,238730
17.49618,1032324
17.50552,2243939
17.51485,2269198
17.52420,1118042
17.53353,313998
17.54288,80786
17.55222,52264
17.56155,44585
17.57090,44280
17.58023,43806
17.58957,43198
17.59892,40409
17.60825,37154
17.61758,34698
17.62693,33381
17.63627,35069
17.64560,34441
17.65495,40511
17.66428,42759
17.67362,39636
17.68297,43863
17.69230,48221
17.70163,45398
17.71098,41610
17.72032,37061
17.72967,35587
17.73900,37408
17.74833,38550
17.75768,42162
17.76702,46291
17.77635,40697
17.78570,32004
17.79503,28989
17.80437,29852
17.81372,32541
17.82305,35873
17.83238,33529
17.84173,36535
17.85107,43473
17.86040,47947
17.86975,46859
17.87908,41325
17.88842,38758
17.89777,34482
17.90710,29578
17.91645,28983
17.92578,28384
17.93512,28862
17.94447,31015
17.95380,33553
17.96313,35813
17.97248,34689
17.98182,31258
17.99115,29229
18.00050,27829
18.00983,28001
18.01917,27471
18.02852,27648
18.03785,29354
18.04718,35276
18.05653,34570
18.06587,33387
18.07520,28302
18.08455,29558
18.09388,31248
18.10323,33042
18.11257,32659
18.12190,34349
18.13125,34405
18.14058,35181
18.14992,36538
18.15927,35792
18.16860,34669
18.17793,31828
18.18728,29046
18.19662,30194
18.20595,30898
18.21530,30965
18.22463,29697
18.23397,28616
18.24332,28915
18.25265,28219
18.26198,31169
18.27133,34927
18.28067,39892
18.29002,39604
18.29935,41115
18.30868,41917
18.31803,40474
18.32737,45893
18.33670,53380
18.34605,53308
18.35538,50777
18.36472,42238
18.37407,34315
18.38340,31078
18.39273,30453
18.40208,31594
18.41142,31531
18.42075,33607
18.43010,37648
18.43943,42786
18.44878,41233
18.45812,33826
18.46745,30102
18.47680,32686
18.48613,42191
18.49547,55101
18.50482,67372
18.51415,69698
18.52348,59420
18.53283,45954
18.54217,41244
18.55150,41837
18.56085,38107
18.57018,32640
18.57952,29979
18.58887,31133
18.59820,34916
18.60753,39989
18.61688,39528
18.62622,41735
18.63557,42688
18.64490,38908
18.65423,32345
18.66358,32845
18.67292,37398
18.68225,33487
18.69160,33523
18.70093,38105
18.71027,40558
18.71962,42029
18.72895,41063
18.73828,39288
18.74763,35161
18.75697,32495
18.76630,29850
18.77565,29845
18.78498,29983
18.79432,31536
18.80367,32466
18.81300,30502
18.82235,32873
18.83168,33207
18.84102,30924
18.85037,29827
18.85970,27288
18.86903,27839
18.87838,28596
18.88772,31514
18.89705,38359
18.90640,45424
18.91573,40761
18.92507,38496
18.93442,38978
18.94375,42965
18.95308,45986
18.96243,45649
18.97177,46241
18.98110,39548
18.99045,36823
18.99978,32567
19.00913,33190
19.01847,32878
19.02780,39408
19.03715,49335
19.04648,61433
19.05582,68901
19.06517,82355
19.07450,127960
19.08383,162646
19.09318,140611
19.10252,80184
19.11185,48686
19.12120,35937
19.13053,34906
19.13987,31911
19.14922,32045
19.15855,29509
19.16790,32632
19.17723,34757
19.18657,38881
19.19592,41826
19.20525,46244
19.21458,47878
19.22393,42994
19.23327,37204
19.24260,33529
19.25195,32304
19.26128,31041
19.27062,34146
19.27997,33314
19.28930,35189
19.29863,39520
19.30798,43759
19.31732,49182
19.32665,42957
19.33600,38390
19.34533,35027
19.35468,31122
19.36402,31591
19.37335,30439
19.38270,34473
19.39203,39378
19.40137,43584
19.41072,40454
19.42005,34735
19.42938,30382
19.43873,31489
19.44807,29358
19.45740,30123
19.46675,30268
19.47608,32752
19.48542,34930
19.49477,32609
19.50410,31135
19.51343,29221
19.52278,32209
19.53212,30096
19.54147,29567
19.55080,28300
19.56013,30382
19.56948,30948
19.57882,31512
19.58815,33773
19.59750,30131
19.60683,29608
19.61617,30622
19.62552,32286
19.63485,33274
19.64418,33376
19.65353,30663
19.66287,27928
19.67220,28955
19.68155,28225
19.69088,27810
19.70022,32624
19.70957,38078
19.71890,46789
19.72825,52833
19.73758,46459
19.74692,36102
19.75627,33972
19.76560,34222
19.77493,37436
19.78428,38617
19.79362,36611
19.80295,35935
19.81230,34152
19.82163,34872
19.83097,33984
19.84032,29267
19.84965,32383
19.85898,40372
19.86833,49089
19.87767,51883
19.88700,43887
19.89635,35342
19.90568,36226
19.91503,35039
19.92437,34664
19.93370,33336
19.94305,32926
19.95238,34215
19.96172,34044
19.97107,28379
19.98040,28998
19.98973,28567
19.99908,28322
20.00842,28959
20.01775,32797
20.02710,36820
20.03643,39332
20.04577,37641
20.05512,32844
20.06445,31081
20.07380,33630
20.08313,33256
20.09247,30472
20.10182,28772
20.11115,27524
20.12048,28795
20.12983,32148
20.13917,41604
20.14850,52976
20.15785,51203
20.16718,39719
20.17652,32000
20.18587,30587
20.19520,27535
20.20453,27012
20.21388,27112
20.22322,25376
20.23255,28080
20.24190,26866
20.25123,24535
20.26058,26081
20.26992,26726
20.27925,26528
20.28860,25679
20.29793,26488
20.30727,25401
20.31662,24240
20.32595,25065
20.33528,25695
20.34463,27368
20.35397,26580
20.36330,28165
20.37265,27359
20.38198,27550
20.39132,26537
20.40067,25193
20.41000,24998
20.41933,26811
20.42868,28474
20.43802,28535
20.44737,30750
20.45670,39506
20.46603,43808
20.47538,43685
20.48472,35066
20.49405,29931
20.50340,30374
20.51273,29025
20.52207,27794
20.53142,27649
20.54075,32938
20.55008,57775
20.55943,145048
20.56877,318644
20.57810,388443
20.58745,225848
20.59678,90505
20.60612,49077
20.61547,39588
20.62480,37179
20.63415,37170
20.64348,38958
20.65282,41075
20.66217,46096
20.67150,43927
20.68083,39466
20.69018,39281
20.69952,37424
20.70885,36308
20.71820,33070
20.72753,31697
20.73687,30453
20.74622,30014
20.75555,30457
20.76488,29295
20.77423,29505
20.78357,27404
20.79292,31791
20.80225,35723
20.81158,33511
20.82093,29369
20.83027,27336
20.83960,26835
20.84895,26778
20.85828,26979
20.86762,26133
20.87697,27311
20.88630,28366
20.89563,29263
20.90498,28555
20.91432,27607
20.92365,26097
20.93300,27252
20.94233,27072
20.95167,26417
20.96102,25880
20.97035,26381
20.97970,24478
20.98903,26970
20.99837,25557
21.00772,25006
21.01705,25397
21.02638,26023
21.03573,23699
21.04507,24778
21.05440,25924
21.06375,25793
21.07308,25078
21.08242,25772
21.09177,28813
21.10110,27236
21.11043,30157
21.11978,30923
21.12912,33074
21.13845,33655
21.14780,32017
21.15713,28213
21.16648,27377
21.17582,31536
21.18515,35182
21.19450,37311
21.20383,35727
21.21317,34420
21.22252,33673
21.23185,29983
21.24118,30060
21.25053,33394
21.25987,40348
21.26920,53153
21.27855,62037
21.28788,60795
21.29722,48769
21.30657,36354
21.31590,30821
21.32523,28837
21.33458,29617
21.34392,26918
21.35327,26928
21.36260,27188
21.37193,27582
21.38128,28597
21.39062,30685
21.39995,38605
21.40930,46871
21.41863,45537
21.42797,39567
21.43732,33478
21.44665,29856
21.45598,27843
21.46533,29495
21.47467,36815
21.48400,32667
21.49335,31892
21.50268,28995
21.51202,29450
21.52137,24995
21.53070,25548
21.54005,25928
21.54938,27003
21.55872,28357
21.56807,31589
21.57740,34863
21.58673,34478
21.59608,32656
21.60542,29721
21.61475,29981
21.62410,28287
21.63343,27590
21.64277,25267
21.65212,25591
21.66145,27960
21.67078,28538
21.68013,28911
21.68947,28189
21.69880,27953
21.70815,26590
21.71748,29334
21.72683,29409
21.73617,28471
21.74550,26679
21.75485,24631
21.76418,24231
21.77352,24912
21.78287,23807
21.79220,25398
21.80153,27388
21.81088,30392
21.82022,29976
21.82955,29943
21.83890,28910
21.84823,26481
21.85757,26617
21.86692,28931
21.87625,31358
21.88560,35506
21.89493,35307
21.90427,34534
21.91362,32993
21.92295,31637
21.93228,30034
21.94163,27455
21.95097,27868
21.96030,33160
21.96965,46722
21.97898,68562
21.98832,81499
21.99767,66154
22.00700,43479
22.01633,32462
22.02568,29953
22.03502,32071
22.04435,32775
22.05370,32594
22.06303,35161
22.07238,35518
22.08172,33897
22.09105,34015
22.10040,32878
22.10973,31945
22.11907,31886
22.12842,30309
22.13775,28767
22.14708,31323
22.15643,35904
22.16577,37343
22.17510,34141
22.18445,29723
22.19378,28717
22.20312,27484
22.21247,25021
22.22180,27692
22.23113,28119
22.24048,28627
22.24982,26419
22.25917,27705
22.26850,28757
22.27783,29242
22.28718,33162
22.29652,32799
22.30585,29599
22.31520,28625
22.32453,27073
22.33387,27508
22.34322,28317
22.35255,28691
22.36188,27697
22.37123,28311
22.38057,26921
22.38990,29451
22.39925,29174
22.40858,26777
22.41792,25786
22.42727,25195
22.43660,26876
22.44595,27784
22.45528,25850
22.46462,27638
22.47397,26194
22.48330,23264
22.49263,25043
22.50198,22382
22.51132,24831
22.52065,25087
22.53000,24474
22.53933,24064
22.54867,24498
22.55802,27572
22.56735,28906
22.57668,29792
22.58603,31896
22.59537,30796
22.60472,28400
22.61405,27608
22.62338,28329
22.63273,28345
22.64207,26772
22.65140,23725
22.66075,23934
22.67008,25029
22.67942,27930
22.68877,29646
22.69810,30337
22.70743,27626
22.71678,25207
22.72612,28859
22.73545,28634
22.74480,30715
22.75413,27845
22.76347,29948
22.77282,29031
22.78215,26675
22.79150,28098
22.80083,27462
22.81017,25114
22.81952,26034
22.82885,27372
22.83818,27870
22.84753,27922
22.85687,26319
22.86620,26409
22.87555,25847
22.88488,27352
22.89422,26864
22.90357,24599
22.91290,24758
22.92223,26651
22.93158,28587
22.94092,30452
22.95025,34503
22.95960,34065
22.96893,29173
22.97828,24640
22.98762,27568
22.99695,24405
23.00630,24667
23.01563,22141
23.02497,23162
23.03432,24291
23.04365,22973
23.05298,24872
23.06233,25028
23.07167,25361
23.08100,23535
23.09035,24154
23.09968,23993
23.10902,22620
23.11837,23952
23.12770,24333
23.13703,23354
23.14638,23292
23.15572,24347
23.16507,25329
23.17440,25854
23.18373,24997
23.19308,24184
23.20242,22192
23.21175,23389
23.22110,23731
23.23043,25954
23.23977,27134
23.24912,26997
23.25845,25308
23.26778,24557
23.27713,24109
23.28647,25603
23.29580,25573
23.30515,28476
23.31448,43119
23.32382,65592
23.33317,77674
23.34250,58192
23.35185,39737
23.36118,30589
23.37052,27255
23.37987,26872
23.38920,28351
23.39853,27559
23.40788,28085
23.41722,29322
23.42655,27747
23.43590,29377
23.44523,28079
23.45457,28262
23.46392,27993
23.47325,26997
23.48258,26109
23.49193,26575
23.50127,25449
23.51062,24520
23.51995,25097
23.52928,25874
23.53863,28213
23.54797,26775
23.55730,25636
23.56665,27086
23.57598,26444
23.58532,24810
23.59467,22736
23.60400,23289
23.61333,24891
23.62268,23591
23.63202,22351
23.64135,22081
23.65070,23839
23.66003,24388
23.66937,26549
23.67872,26865
23.68805,26885
23.69740,26168
23.70673,24396
23.71607,24830
23.72542,26587
23.73475,25182
23.74408,25407
23.75343,23307
23.76277,24468
23.77210,24589
23.78145,26934
23.79078,24455
23.80012,24259
23.80947,23684
23.81880,22317
23.82813,22213
23.83748,23230
23.84682,23752
23.85615,24874
23.86550,24864
23.87483,24622
23.88418,24550
23.89352,24613
23.90285,24162
23.91220,23495
23.92153,23907
23.93087,23945
23.94022,23727
23.94955,24846
23.95888,22892
23.96823,21791
23.97757,22934
23.98690,23373
23.99625,23994
24.00558,22490
24.01492,22712
24.02427,21684
24.03360,22614
24.04293,20544
24.05228,21147
24.06162,20422
24.07097,22449
24.08030,22364
24.08963,23428
24.09898,21511
24.10832,23667
24.11765,22376
24.12700,22871
24.13633,23571
24.14567,24364
24.15502,26392
24.16435,29497
24.17368,33315
24.18303,31498
24.19237,27782
24.20170,26562
24.21105,24263
24.22038,23757
24.22973,23908
24.23907,23468
24.24840,22504
24.25775,23872
24.26708,22539
24.27642,20734
24.28577,22395
24.29510,23812
24.30443,23400
24.31378,24299
24.32312,24423
24.33245,24223
24.34180,23882
24.35113,22496
24.36047,23156
24.36982,23324
24.37915,21866
24.38848,24026
24.39783,23819
24.40717,23612
24.41652,22640
24.42585,22934
24.43518,23004
24.44453,23631
24.45387,22977
24.46320,23507
24.47255,24351
24.48188,26133
24.49122,24473
24.50057,22949
24.50990,22888
24.51923,22648
24.52858,23139
24.53792,23671
24.54725,22042
24.55660,24478
24.56593,22331
24.57527,22599
24.58462,24445
24.59395,25496
24.60330,29634
24.61263,27907
24.62197,27507
24.63132,24078
24.64065,23842
24.64998,23710
24.65933,24209
24.66867,22809
24.67800,23564
24.68735,23526
24.69668,21348
24.70602,24413
24.71537,25112
24.72470,23953
24.73403,22791
24.74338,22719
24.75272,22769
24.76205,23516
24.77140,22929
24.78073,22492
24.79008,23239
24.79942,24413
24.80875,24676
24.81810,24038
24.82743,22866
24.83677,24878
24.84612,23150
24.85545,22743
24.86478,22933
24.87413,23875
24.88347,24984
24.89280,23370
24.90215,24891
24.91148,24899
24.92082,23784
24.93017,24058
24.93950,25621
24.94883,26147
24.95818,25964
24.96752,25395
24.97687,24377
24.98620,23280
24.99553,24544
25.00488,24000
25.01422,24312
25.02355,24389
25.03290,24216
25.04223,24493
25.05157,24390
25.06092,24050
25.07025,22376
25.07958,23877
25.08893,24680
25.09827,22973
25.10760,24989
25.11695,24398
25.12628,24979
25.13562,25449
25.14497,26524
25.15430,25341
25.16365,24528
25.17298,23828
25.18232,25727
25.19167,25796
25.20100,24084
25.21033,25340
25.21968,24334
25.22902,25397
25.23835,24492
25.24770,24463
25.25703,24910
25.26637,23383
25.27572,24260
25.28505,24604
25.29438,22206
25.30373,23360
25.31307,24349
25.32242,35195
25.33175,47135
25.34108,51157
25.35043,48048
25.35977,40173
25.36910,36561
25.37845,35522
25.38778,33217
25.39712,30713
25.40647,30797
25.41580,30902
25.42513,29036
25.43448,31324
25.44382,31191
25.45315,28183
25.46250,27981
25.47183,27951
25.48117,31984
25.49052,33256
25.49985,32479
25.50920,30805
25.51853,27500
25.52787,28039
25.53722,28273
25.54655,26648
25.55588,26947
25.56523,27182
25.57457,26713
25.58390,26424
25.59325,27009
25.60258,25494
25.61192,26410
25.62127,26770
25.63060,27178
25.63993,31266
25.64928,32237
25.65862,31780
25.66795,28977
25.67730,29017
25.68663,26950
25.69598,28311
25.70532,28173
25.71465,25997
25.72400,26760
25.73333,27024
25.74267,26717
25.75202,27174
25.76135,29111
25.77068,27470
25.78003,27103
25.78937,25413
25.79870,27341
25.80805,28365
25.81738,28830
25.82672,31694
25.83607,32011
25.84540,31200
25.85473,28868
25.86408,27832
25.87342,28958
25.88277,28790
25.89210,27541
25.90143,27758
25.91078,28179
25.92012,29059
25.92945,25931
25.93880,29224
25.94813,27579
25.95747,26687
25.96682,28600
25.97615,29457
25.98548,29333
25.99483,28540
26.00417,28292
26.01350,26737
26.02285,26581
26.03218,26323
26.04153,27634
26.05087,26494
26.06020,28394
26.06955,28666
26.07888,28840
26.08822,26465
26.09757,26092
26.10690,25185
26.11623,27015
26.12558,27977
26.13492,29598
26.14425,30131
26.15360,26559
26.16293,26628
26.17227,24949
26.18162,24618
26.19095,27740
26.20028,26392
26.20963,29382
26.21897,27992
26.22832,27463
26.23765,26100
26.24698,25961
26.25633,27451
26.26567,27133
26.27500,26688
26.28435,27881
26.29368,27841
26.30302,27922
26.31237,27746
26.32170,27465
26.33103,26497
26.34038,27522
26.34972,27375
26.35905,26275
26.36840,28223
26.37773,27996
26.38707,27701
26.39642,26388
26.40575,27850
26.41510,30519
26.42443,30171
26.43377,28463
26.44312,28759
26.45245,30063
26.46178,29617
26.47113,28479
26.48047,29956
26.48980,27417
26.49915,29105
26.50848,29000
26.51782,28630
26.52717,30446
26.53650,27241
26.54583,28436
26.55518,28996
26.56452,29048
26.57385,31300
26.58320,31565
26.59253,30683
26.60188,31881
26.61122,32662
26.62055,35515
26.62990,39547
26.63923,43762
26.64857,44438
26.65792,41965
26.66725,37804
26.67658,34870
26.68593,33729
26.69527,32030
26.70460,29856
26.71395,29346
26.72328,31861
26.73262,29783
26.74197,30766
26.75130,29506
26.76063,28410
26.76998,29133
26.77932,30222
26.78867,29700
26.79800,29644
26.80733,30849
26.81668,29401
26.82602,31000
26.83535,29028
26.84470,29512
26.85403,31041
26.86337,30552
26.87272,29536
26.88205,29025
26.89138,30324
26.90073,27978
26.91007,29743
26.91940,29715
26.92875,30484
26.93808,31659
26.94743,30623
26.95677,31809
26.96610,30826
26.97545,31860
26.98478,32378
26.99412,32087
27.00347,30651
27.01280,30592
27.02213,31009
27.03148,32535
27.04082,31871
27.05015,33603
27.05950,32430
27.06883,32115
27.07817,32263
27.08752,31191
27.09685,32413
27.10618,32596
27.11553,33289
27.12487,31720
27.13422,32925
27.14355,32932
27.15288,32952
27.16223,31311
27.17157,33113
27.18090,31650
27.19025,33444
27.19958,32357
27.20892,33613
27.21827,32941
27.22760,33215
27.23693,33362
27.24628,32732
27.25562,35317
27.26495,34582
27.27430,33061
27.28363,34193
27.29297,31883
27.30232,33017
27.31165,31886
27.32100,34168
27.33033,30909
27.33967,33046
27.34902,31138
27.35835,33059
27.36768,32735
27.37703,33478
27.38637,33421
27.39570,32241
27.40505,32359
27.41438,34241
27.42372,33931
27.43307,34406
27.44240,34674
27.45173,34635
27.46108,34737
27.47042,35599
27.47975,35842
27.48910,36316
27.49843,38170
27.50778,34228
27.51712,36312
27.52645,35277
27.53580,34880
27.54513,36862
27.55447,34562
27.56382,33636
27.57315,36311
27.58248,37572
27.59183,34317
27.60117,35075
27.61050,34285
27.61985,34980
27.62918,33339
27.63852,33169
27.64787,33880
27.65720,34206
27.66655,34347
27.67588,35088
27.68522,35904
27.69457,39252
27.70390,43227
27.71323,42294
27.72258,45238
27.73192,40760
27.74125,43021
27.75060,39891
27.75993,38821
27.76927,40452
27.77862,40827
27.78795,39433
27.79728,40100
27.80663,40735
27.81597,41041
27.82530,39640
27.83465,40562
27.84398,38726
27.85333,38836
27.86267,42019
27.87200,38434
27.88135,39426
27.89068,38043
27.90002,39790
27.90937,39628
27.91870,38428
27.92803,38292
27.93738,39586
27.94672,39806
27.95605,39658
27.96540,40246
27.97473,40303
27.98407,39288
27.99342,39534
28.00275,39782
28.01208,39066
28.02143,39011
28.03077,42137
28.04012,40897
28.04945,40215
28.05878,40359
28.06813,40304
28.07747,39350
28.08680,41901
28.09615,42136
28.10548,39848
28.11482,44146
28.12417,42567
28.13350,43294
28.14283,41294
28.15218,43690
28.16152,43482
28.17085,43450
28.18020,42691
28.18953,43260
28.19887,44648
28.20822,43796
28.21755,42348
28.22690,45262
28.23623,42641
28.24557,42340
28.25492,41494
28.26425,41353
28.27358,40944
28.28293,41853
28.29227,41856
28.30160,42628
28.31095,41913
28.32028,40669
28.32962,42168
28.33897,41467
28.34830,43201
28.35763,42937
28.36698,43470
28.37632,41477
28.38565,44358
28.39500,44265
28.40433,43870
28.41368,43916
28.42302,44332
28.43235,41588
28.44170,44748
28.45103,45103
28.46037,45712
28.46972,44788
28.47905,43229
28.48838,44185
28.49773,45266
28.50707,44401
28.51640,44602
28.52575,43814
28.53508,45908
28.54442,45343
28.55377,45377
28.56310,44887
28.57243,45016
28.58178,45801
28.59112,45252
28.60047,44601
28.60980,46751
28.61913,45788
28.62848,44910
28.63782,47379
28.64715,45209
28.65650,49948
28.66583,58491
28.67517,64045
28.68452,61116
28.69385,57538
28.70318,55727
28.71253,50696
28.72187,51004
28.73120,50229
28.74055,50743
28.74988,50053
28.75923,50867
28.76857,49521
28.77790,50870
28.78725,50498
28.79658,48586
28.80592,49859
28.81527,53383
28.82460,51304
28.83393,52757
28.84328,51025
28.85262,50163
28.86195,53591
28.87130,53402
28.88063,51158
28.88997,49662
28.89932,52989
28.90865,50458
28.91798,52552
28.92733,50521
28.93667,52022
28.94602,53182
28.95535,53124
28.96468,53553
28.97403,52524
28.98337,52657
28.99270,53973
29.00205,52557
29.01138,50255
29.02072,54069
29.03007,53289
29.03940,54549
29.04873,53391
29.05808,55175
29.06742,54698
29.07675,54049
29.08610,54028
29.09543,52126
29.10477,53799
29.11412,52180
29.12345,50397
29.13280,55741
29.14213,51758
29.15147,54141
29.16082,56166
29.17015,56156
29.17948,56541
29.18883,57437
29.19817,57447
29.20750,55260
29.21685,54471
29.22618,55420
29.23552,53566
29.24487,57108
29.25420,55409
29.26353,56209
29.27288,56491
29.28222,59651
29.29155,55981
29.30090,54949
29.31023,56969
29.31958,58922
29.32892,57070
29.33825,57556
29.34760,55681
29.35693,58819
29.36627,58139
29.37562,56463
29.38495,58768
29.39428,57783
29.40363,55417
29.41297,53766
29.42230,58988
29.43165,57649
29.44098,60009
29.45032,60549
29.45967,63546
29.46900,63581
29.47835,61476
29.48768,60799
29.49702,59927
29.50637,60215
29.51570,59038
29.52503,56673
29.53438,56240
29.54372,57910
29.55305,59013
29.56240,59353
29.57173,59869
29.58107,58607
29.59042,58976
29.59975,59276
29.60908,58825
29.61843,60672
29.62777,59889
29.63710,57129
29.64645,59304
29.65578,58755
29.66513,59150
29.67447,59009
29.68380,61805
29.69315,60691
29.70248,60743
29.71182,59124
29.72117,58725
29.73050,58439
29.73983,60067
29.74918,64055
29.75852,61646
29.76785,59230
29.77720,62157
29.78653,62234
29.79587,60617
29.80522,59697
29.81455,58591
29.82388,60464
29.83323,62190
29.84257,60763
29.85192,59469
29.86125,61450
29.87058,60010
29.87993,60111
29.88927,59373
29.89860,61066
29.90795,59103
29.91728,62614
29.92662,61269
29.93597,60874
29.94530,61740
29.95463,59626
29.96398,61156
29.97332,61195
29.98265,63854
29.99200,61075
30.00133,63534
30.01067,60654
30.02002,60902
30.02935,60507
30.03870,62200
30.04803,60779
30.05737,65443
30.06672,62193
30.07605,67252
30.08538,64706
30.09473,64622
30.10407,64308
30.11340,64880
30.12275,65171
30.13208,64998
30.14142,66342
30.15077,62228
30.16010,62366
30.16943,63259
30.17878,61541
30.18812,62221
30.19745,64709
30.20680,61352
30.21613,62584
30.22548,61293
30.23482,64372
30.24415,62283
30.25350,61793
30.26283,63881
30.27217,64548
30.28152,63820
30.29085,64175
30.30018,61734
30.30953,64996
30.31887,63851
30.32820,64261
30.33755,65309
30.34688,63769
30.35622,65560
30.36557,65905
30.37490,67581
30.38425,66056
30.39358,67357
30.40292,66875
30.41227,63094
30.42160,66011
30.43093,62406
30.44028,65173
30.44962,64776
30.45895,64626
30.46830,64487
30.47763,62578
30.48697,64630
30.49632,64633
30.50565,64116
30.51498,63120
30.52433,64176
30.53367,66789
30.54300,63980
30.55235,64894
30.56168,62834
30.57103,64260
30.58037,67331
30.58970,66567
30.59905,67557
30.60838,70894
30.61772,72352
30.62707,69752
30.63640,74847
30.64573,75652
30.65508,78136
30.66442,76356
30.67375,78873
30.68310,77447
30.69243,76052
30.70177,77628
30.71112,75663
30.72045,76414
30.72978,76227
30.73913,73318
30.74847,73392
30.75782,73544
30.76715,72606
30.77648,71209
30.78583,71040
30.79517,71645
30.80450,71141
30.81385,70586
30.82318,73640
30.83252,72330
30.84187,70620
30.85120,73985
30.86053,73582
30.86988,73514
30.87922,72709
30.88855,72655
30.89790,75861
30.90723,74345
30.91657,77857
30.92592,79046
30.93525,76645
30.94460,77272
30.95393,76206
30.96327,77816
30.97262,76729
30.98195,75762
30.99128,74575
31.00063,75644
31.00997,76574
31.01930,75847
31.02865,72985
31.03798,75388
31.04732,74435
31.05667,72487
31.06600,74621
31.07533,73569
31.08468,74129
31.09402,71181
31.10337,71081
31.11270,72517
31.12203,72997
31.13138,72736
31.14072,70224
31.15005,71874
31.15940,73775
31.16873,73657
31.17807,72227
31.18742,73783
31.19675,72822
31.20608,75775
31.21543,73805
31.22477,76736
31.23410,77449
31.24345,77872
31.25278,77462
31.26212,77370
31.27147,78988
31.28080,77687
31.29015,79090
31.29948,78733
31.30882,80149
31.31817,76893
31.32750,76402
31.33683,75850
31.34618,77393
31.35552,73556
31.36485,76010
