D:\数据\20220412\TEST4-ZRHX-2.D Tue Apr 12 21:05:48 2022
Start of data points
0.09765,17979
0.10698,17512
0.11633,18225
0.12567,19026
0.13502,18230
0.14435,18437
0.15368,20835
0.16303,19122
0.17237,20083
0.18170,17905
0.19105,18868
0.20038,17588
0.20972,18640
0.21907,18941
0.22840,16649
0.23773,18382
0.24708,18265
0.25642,16884
0.26575,18586
0.27510,17671
0.28443,18322
0.29377,17940
0.30312,17967
0.31245,16965
0.32180,18073
0.33113,17319
0.34047,18523
0.34982,17539
0.35915,18191
0.36848,19442
0.37783,17624
0.38717,18034
0.39650,18805
0.40585,18162
0.41518,16677
0.42452,15148
0.43387,12335
0.44320,9775
0.45253,6062
0.46188,5081
0.47122,4638
0.48055,4489
0.48990,4760
0.49923,4595
0.50858,4261
0.51792,4235
0.52725,4094
0.53660,4088
0.54593,3823
0.55527,3947
0.56462,3849
0.57395,3883
0.58328,3781
0.59263,3952
0.60197,4033
0.61130,3657
0.62065,3738
0.62998,3598
0.63932,3818
0.64867,4036
0.65800,3853
0.66733,3695
0.67668,3793
0.68602,3509
0.69537,3517
0.70470,3304
0.71403,3368
0.72338,3782
0.73272,3853
0.74205,3462
0.75140,3395
0.76073,3586
0.77007,3979
0.77942,3401
0.78875,3257
0.79808,4135
0.80743,3521
0.81677,3610
0.82610,2612
0.83545,3655
0.84478,3979
0.85412,3625
0.86347,3933
0.87280,3216
0.88215,3338
0.89148,3244
0.90082,3132
0.91017,3931
0.91950,3640
0.92883,3670
0.93818,3719
0.94752,3798
0.95685,3587
0.96620,3174
0.97553,2873
0.98487,3591
0.99422,3155
1.00355,3105
1.01288,3294
1.02223,3217
1.03157,3533
1.04092,3375
1.05025,3236
1.05958,3540
1.06893,3156
1.07827,3175
1.08760,3710
1.09695,3039
1.10628,3656
1.11562,3040
1.12497,3255
1.13430,3245
1.14363,3414
1.15298,3498
1.16232,3355
1.17165,3471
1.18100,3033
1.19033,2810
1.19967,2788
1.20902,2873
1.21835,3319
1.22770,2961
1.23703,3534
1.24637,3181
1.25572,3251
1.26505,3682
1.27438,3210
1.28373,3131
1.29307,3359
1.30240,3469
1.31175,3572
1.32108,3648
1.33042,3536
1.33977,3288
1.34910,3314
1.35843,3235
1.36778,3125
1.37712,3368
1.38645,3590
1.39580,2661
1.40513,3095
1.41448,3109
1.42382,3482
1.43315,4288
1.44250,3722
1.45183,3092
1.46117,3539
1.47052,3322
1.47985,3364
1.48918,3687
1.49853,3207
1.50787,3146
1.51720,3034
1.52655,2802
1.53588,2845
1.54522,3348
1.55457,3311
1.56390,3092
1.57323,3432
1.58258,3112
1.59192,3648
1.60127,5088
1.61060,9717
1.61993,13849
1.62928,18009
1.63862,22778
1.64795,33841
1.65730,40112
1.66663,40399
1.67597,38105
1.68532,31949
1.69465,28705
1.70398,23084
1.71333,18700
1.72267,13583
1.73200,14186
1.74135,15232
1.75068,16560
1.76003,18065
1.76937,18604
1.77870,20228
1.78805,21041
1.79738,21456
1.80672,21433
1.81607,21711
1.82540,21595
1.83473,20431
1.84408,20943
1.85342,21312
1.86275,23575
1.87210,27865
1.88143,41312
1.89077,68550
1.90012,93549
1.90945,112660
1.91878,127464
1.92813,141780
1.93747,157604
1.94682,162398
1.95615,151830
1.96548,130401
1.97483,105480
1.98417,84891
1.99350,73485
2.00285,64827
2.01218,58937
2.02152,66618
2.03087,78519
2.04020,74419
2.04953,62996
2.05888,54721
2.06822,47550
2.07755,42989
2.08690,41873
2.09623,38848
2.10557,37700
2.11492,43503
2.12425,64475
2.13360,148003
2.14293,254318
2.15227,268473
2.16162,199684
2.17095,141573
2.18028,121528
2.18963,219456
2.19897,313848
2.20830,228568
2.21765,133991
2.22698,111955
2.23632,189634
2.24567,678068
2.25500,2546493
2.26433,4086084
2.27368,3771482
2.28302,2610741
2.29235,1571760
2.30170,1254607
2.31103,3780984
2.32038,9316372
2.32972,9898954
2.33905,5998064
2.34840,2697328
2.35773,1156597
2.36707,545750
2.37642,303810
2.38575,193517
2.39508,138658
2.40443,109842
2.41377,106276
2.42310,98373
2.43245,83263
2.44178,71889
2.45112,62975
2.46047,59899
2.46980,61966
2.47913,58226
2.48848,52721
2.49782,49594
2.50717,48938
2.51650,46325
2.52583,43039
2.53518,42141
2.54452,47340
2.55385,66228
2.56320,150228
2.57253,201958
2.58187,168084
2.59122,130042
2.60055,109163
2.60988,107231
2.61923,142035
2.62857,166689
2.63790,146835
2.64725,127954
2.65658,111260
2.66593,85656
2.67527,63697
2.68460,48580
2.69395,43323
2.70328,45804
2.71262,77341
2.72197,180601
2.73130,257833
2.74063,217997
2.74998,161985
2.75932,150331
2.76865,163150
2.77800,193832
2.78733,205835
2.79667,176386
2.80602,125095
2.81535,101174
2.82468,82381
2.83403,92980
2.84337,227863
2.85272,692160
2.86205,1204601
2.87138,1092548
2.88073,618232
2.89007,287206
2.89940,142142
2.90875,86620
2.91808,67774
2.92742,58434
2.93677,50691
2.94610,47852
2.95543,44835
2.96478,41311
2.97412,43051
2.98345,41023
2.99280,44595
3.00213,52175
3.01147,58271
3.02082,148317
3.03015,322083
3.03950,339491
3.04883,239013
3.05817,158216
3.06752,116424
3.07685,88358
3.08618,68650
3.09553,53823
3.10487,45246
3.11420,40183
3.12355,39680
3.13288,39151
3.14222,50610
3.15157,82042
3.16090,141614
3.17023,155168
3.17958,111587
3.18892,68767
3.19825,48666
3.20760,41056
3.21693,38335
3.22628,36202
3.23562,34462
3.24495,32640
3.25430,35479
3.26363,31936
3.27297,33983
3.28232,32500
3.29165,33820
3.30098,35299
3.31033,37218
3.31967,33555
3.32900,34033
3.33835,32293
3.34768,32091
3.35702,31835
3.36637,31322
3.37570,31100
3.38505,31850
3.39438,32472
3.40372,36158
3.41307,40176
3.42240,43312
3.43173,42091
3.44108,39103
3.45042,38913
3.45975,34488
3.46910,33804
3.47843,32678
3.48777,35246
3.49712,32670
3.50645,30857
3.51578,31073
3.52513,31142
3.53447,32052
3.54380,47376
3.55315,106960
3.56248,200210
3.57183,242351
3.58117,193301
3.59050,122290
3.59985,93239
3.60918,81343
3.61852,63949
3.62787,52807
3.63720,46439
3.64653,41926
3.65588,39519
3.66522,37233
3.67455,35340
3.68390,35600
3.69323,34702
3.70257,32182
3.71192,35754
3.72125,38562
3.73058,41253
3.73993,38757
3.74927,33495
3.75862,31951
3.76795,29311
3.77728,29300
3.78663,30471
3.79597,31423
3.80530,37610
3.81465,44279
3.82398,47332
3.83332,43090
3.84267,37609
3.85200,35312
3.86133,35305
3.87068,32450
3.88002,35059
3.88935,40790
3.89870,46579
3.90803,49268
3.91737,46164
3.92672,49043
3.93605,65899
3.94540,63859
3.95473,56982
3.96407,48584
3.97342,41369
3.98275,34916
3.99208,32449
4.00143,32851
4.01077,32353
4.02010,36440
4.02945,59684
4.03878,120127
4.04812,173368
4.05747,153477
4.06680,100568
4.07613,70365
4.08548,68146
4.09482,65414
4.10415,56032
4.11350,45815
4.12283,38219
4.13218,33706
4.14152,32988
4.15085,33242
4.16020,32829
4.16953,31728
4.17887,29589
4.18822,29511
4.19755,31335
4.20688,33003
4.21623,34007
4.22557,31610
4.23490,31220
4.24425,30484
4.25358,30856
4.26292,32092
4.27227,32082
4.28160,32121
4.29095,31419
4.30028,33296
4.30962,36846
4.31897,45159
4.32830,49219
4.33763,44340
4.34698,39569
4.35632,34319
4.36565,34990
4.37500,31808
4.38433,30920
4.39367,29587
4.40302,28016
4.41235,27810
4.42168,28289
4.43103,27894
4.44037,27171
4.44970,29744
4.45905,29998
4.46838,34987
4.47773,41179
4.48707,41435
4.49640,37674
4.50575,31825
4.51508,29149
4.52442,29288
4.53377,28335
4.54310,28517
4.55243,28173
4.56178,28735
4.57112,26995
4.58045,28073
4.58980,27056
4.59913,29421
4.60847,28502
4.61782,27963
4.62715,27821
4.63648,28739
4.64583,31775
4.65517,32788
4.66452,31765
4.67385,31694
4.68318,34432
4.69253,37814
4.70187,43345
4.71120,41591
4.72055,39909
4.72988,36071
4.73922,33100
4.74857,29142
4.75790,29681
4.76723,28460
4.77658,30430
4.78592,30663
4.79525,30293
4.80460,30044
4.81393,32492
4.82327,34443
4.83262,32956
4.84195,30898
4.85130,28796
4.86063,27930
4.86997,29501
4.87932,29928
4.88865,31156
4.89798,31951
4.90733,32689
4.91667,31146
4.92600,31603
4.93535,31078
4.94468,31190
4.95402,31350
4.96337,29221
4.97270,25850
4.98203,26980
4.99138,27744
5.00072,28572
5.01007,30411
5.01940,33814
5.02873,34261
5.03808,35689
5.04742,31073
5.05675,28846
5.06610,26960
5.07543,29516
5.08477,31486
5.09412,31068
5.10345,28838
5.11278,28348
5.12213,26851
5.13147,28386
5.14080,29901
5.15015,29852
5.15948,27076
5.16882,28600
5.17817,28811
5.18750,30938
5.19685,29964
5.20618,29446
5.21552,25320
5.22487,27289
5.23420,27704
5.24353,27866
5.25288,30302
5.26222,32483
5.27155,51229
5.28090,93751
5.29023,132146
5.29957,125007
5.30892,84935
5.31825,55427
5.32758,45553
5.33693,39019
5.34627,32832
5.35560,29292
5.36495,27266
5.37428,29379
5.38363,31355
5.39297,35090
5.40230,34261
5.41165,35023
5.42098,30704
5.43032,28491
5.43967,27806
5.44900,25806
5.45833,25993
5.46768,26992
5.47702,26258
5.48635,26280
5.49570,27720
5.50503,27762
5.51437,29729
5.52372,32394
5.53305,34772
5.54238,32316
5.55173,31350
5.56107,30364
5.57042,28294
5.57975,28460
5.58908,26195
5.59843,26998
5.60777,25236
5.61710,25781
5.62645,25694
5.63578,24084
5.64512,26004
5.65447,26133
5.66380,24991
5.67313,27139
5.68248,28558
5.69182,29020
5.70115,29945
5.71050,31059
5.71983,33659
5.72917,32026
5.73852,29748
5.74785,30145
5.75720,33528
5.76653,33966
5.77587,32130
5.78522,29006
5.79455,27892
5.80388,26614
5.81323,26485
5.82257,28539
5.83190,30709
5.84125,29475
5.85058,28247
5.85992,27169
5.86927,28528
5.87860,29140
5.88793,29016
5.89728,30352
5.90662,37335
5.91595,55888
5.92530,78068
5.93463,75360
5.94398,57409
5.95332,44020
5.96265,34228
5.97200,30292
5.98133,25424
5.99067,24594
6.00002,23995
6.00935,24723
6.01868,23879
6.02803,24155
6.03737,22912
6.04670,21299
6.05605,20366
6.06538,17405
6.07472,16124
6.08407,15358
6.09340,14010
6.10275,14204
6.11208,16925
6.12142,20631
6.13077,29247
6.14010,30212
6.14943,25992
6.15878,19302
6.16812,14376
6.17745,14131
6.18680,14378
6.19613,13487
6.20547,12935
6.21482,13198
6.22415,14524
6.23348,15527
6.24283,15966
6.25217,14545
6.26150,17987
6.27085,22010
6.28018,23109
6.28953,16486
6.29887,13540
6.30820,12197
6.31755,12299
6.32688,10318
6.33622,11341
6.34557,10132
6.35490,10342
6.36423,10932
6.37358,14087
6.38292,20788
6.39225,47289
6.40160,116054
6.41093,200349
6.42027,185411
6.42962,100169
6.43895,38086
6.44828,17812
6.45763,13516
6.46697,14240
6.47632,13138
6.48565,13519
6.49498,12477
6.50433,12540
6.51367,14074
6.52300,14893
6.53235,15071
6.54168,13077
6.55102,12306
6.56037,11799
6.56970,11698
6.57903,11415
6.58838,13076
6.59772,13735
6.60705,14614
6.61640,13765
6.62573,13147
6.63507,13907
6.64442,14341
6.65375,12984
6.66310,14446
6.67243,14502
6.68177,14224
6.69112,15434
6.70045,15645
6.70978,14892
6.71913,15543
6.72847,14649
6.73780,12247
6.74715,12123
6.75648,12461
6.76582,10773
6.77517,13140
6.78450,13816
6.79383,14765
6.80318,16224
6.81252,15315
6.82187,14778
6.83120,12535
6.84053,13028
6.84988,13474
6.85922,12803
6.86855,11487
6.87790,11542
6.88723,11920
6.89657,13280
6.90592,14083
6.91525,15513
6.92458,14545
6.93393,12474
6.94327,11946
6.95260,11477
6.96195,13563
6.97128,13653
6.98062,12475
6.98997,12037
6.99930,12183
7.00865,12587
7.01798,12612
7.02732,13383
7.03667,10911
7.04600,10394
7.05533,9913
7.06468,10744
7.07402,9464
7.08335,11539
7.09270,12603
7.10203,11384
7.11137,13062
7.12072,13184
7.13005,12749
7.13938,12310
7.14873,11663
7.15807,11500
7.16740,11095
7.17675,10486
7.18608,11104
7.19543,10576
7.20477,10889
7.21410,13340
7.22345,20256
7.23278,38556
7.24212,53452
7.25147,48327
7.26080,31755
7.27013,22329
7.27948,19724
7.28882,18510
7.29815,16893
7.30750,15014
7.31683,12903
7.32617,11868
7.33552,11597
7.34485,10763
7.35418,10902
7.36353,11215
7.37287,11190
7.38222,17872
7.39155,36979
7.40088,76878
7.41023,107772
7.41957,99902
7.42890,63048
7.43825,35223
7.44758,20073
7.45692,15760
7.46627,13467
7.47560,15757
7.48493,14226
7.49428,13357
7.50362,12814
7.51295,12254
7.52230,11445
7.53163,11839
7.54097,12208
7.55032,12070
7.55965,12046
7.56900,13390
7.57833,13252
7.58767,12953
7.59702,12484
7.60635,12774
7.61568,12666
7.62503,13847
7.63437,13064
7.64370,14006
7.65305,11877
7.66238,12212
7.67172,14040
7.68107,25311
7.69040,89214
7.69973,232181
7.70908,320592
7.71842,236329
7.72777,95007
7.73710,29710
7.74643,17328
7.75578,14776
7.76512,15431
7.77445,15686
7.78380,16927
7.79313,16976
7.80247,14351
7.81182,12344
7.82115,13054
7.83048,14020
7.83983,14128
7.84917,18256
7.85850,29965
7.86785,42447
7.87718,46566
7.88652,33259
7.89587,24607
7.90520,31929
7.91455,50154
7.92388,59291
7.93322,45429
7.94257,32939
7.95190,28136
7.96123,24723
7.97058,23842
7.97992,22889
7.98925,23021
7.99860,20160
8.00793,17322
8.01727,14660
8.02662,16158
8.03595,24453
8.04528,26122
8.05463,25732
8.06397,19202
8.07330,14589
8.08265,14937
8.09198,19279
8.10133,21515
8.11067,19715
8.12000,17736
8.12935,17167
8.13868,18451
8.14802,17322
8.15737,16458
8.16670,15808
8.17603,17023
8.18538,15731
8.19472,15365
8.20405,15736
8.21340,15634
8.22273,13684
8.23207,15399
8.24142,16521
8.25075,15429
8.26008,14133
8.26943,12906
8.27877,12744
8.28812,13311
8.29745,12469
8.30678,12843
8.31613,12574
8.32547,11764
8.33480,12841
8.34415,11890
8.35348,11707
8.36282,12661
8.37217,12214
8.38150,12926
8.39083,12444
8.40018,14386
8.40952,15872
8.41885,16881
8.42820,18179
8.43753,16995
8.44688,15803
8.45622,15307
8.46555,16165
8.47490,16778
8.48423,16036
8.49357,15956
8.50292,15142
8.51225,15295
8.52158,14758
8.53093,15394
8.54027,15072
8.54960,17323
8.55895,17178
8.56828,17320
8.57762,14721
8.58697,15610
8.59630,15694
8.60563,16770
8.61498,16282
8.62432,14940
8.63367,15577
8.64300,15237
8.65233,15225
8.66168,15678
8.67102,16321
8.68035,16892
8.68970,16765
8.69903,17469
8.70837,16891
8.71772,16292
8.72705,15669
8.73638,18257
8.74573,24527
8.75507,28527
8.76440,24789
8.77375,19862
8.78308,20921
8.79242,29943
8.80177,51037
8.81110,69839
8.82045,58071
8.82978,35390
8.83912,19912
8.84847,16564
8.85780,16491
8.86713,17537
8.87648,18717
8.88582,18440
8.89515,18059
8.90450,18673
8.91383,17545
8.92317,19125
8.93252,19146
8.94185,19621
8.95118,16975
8.96053,15965
8.96987,16216
8.97920,14108
8.98855,15449
8.99788,16657
9.00723,16517
9.01657,16531
9.02590,15408
9.03525,17765
9.04458,16873
9.05392,17774
9.06327,18917
9.07260,23037
9.08193,26714
9.09128,27717
9.10062,24248
9.10995,18774
9.11930,18773
9.12863,22241
9.13797,23588
9.14732,22839
9.15665,18083
9.16598,16809
9.17533,16547
9.18467,17367
9.19402,18824
9.20335,18562
9.21268,23415
9.22203,34099
9.23137,47959
9.24070,47406
9.25005,34902
9.25938,22205
9.26872,17350
9.27807,16587
9.28740,15821
9.29673,16000
9.30608,18209
9.31542,22695
9.32475,34608
9.33410,38128
9.34343,33506
9.35277,27034
9.36212,41914
9.37145,60954
9.38080,64211
9.39013,53948
9.39947,41165
9.40882,32402
9.41815,29145
9.42748,26835
9.43683,23555
9.44617,17903
9.45550,16242
9.46485,15180
9.47418,14862
9.48352,18380
9.49287,20992
9.50220,19279
9.51153,17202
9.52088,16312
9.53022,19488
9.53957,20953
9.54890,27768
9.55823,37941
9.56758,42059
9.57692,32828
9.58625,24359
9.59560,25583
9.60493,28762
9.61427,22683
9.62362,19999
9.63295,17963
9.64228,18153
9.65163,18557
9.66097,18014
9.67030,17764
9.67965,18262
9.68898,17794
9.69832,17038
9.70767,18341
9.71700,35679
9.72635,131833
9.73568,423347
9.74502,760441
9.75437,770540
9.76370,520233
9.77303,291182
9.78238,176264
9.79172,120655
9.80105,91755
9.81040,78172
9.81973,72659
9.82907,75259
9.83842,83614
9.84775,85535
9.85708,68680
9.86643,54863
9.87577,49842
9.88510,56180
9.89445,58739
9.90378,58212
9.91313,62060
9.92247,60097
9.93180,49231
9.94115,38071
9.95048,31228
9.95982,42575
9.96917,93987
9.97850,232177
9.98783,378661
9.99718,326920
10.00652,160141
10.01585,64388
10.02520,37272
10.03453,29838
10.04387,29513
10.05322,30336
10.06255,36472
10.07190,40588
10.08123,37411
10.09057,34036
10.09992,41961
10.10925,117894
10.11858,314412
10.12793,494690
10.13727,451293
10.14660,612750
10.15595,1471317
10.16528,2169703
10.17462,1558826
10.18397,560120
10.19330,130025
10.20263,42450
10.21198,32123
10.22132,29767
10.23065,29048
10.24000,31292
10.24933,30084
10.25868,26427
10.26802,24481
10.27735,23407
10.28670,24686
10.29603,24575
10.30537,23526
10.31472,22966
10.32405,21567
10.33338,19999
10.34273,19813
10.35207,20583
10.36140,21248
10.37075,20723
10.38008,18731
10.38942,19309
10.39877,18743
10.40810,21100
10.41743,26531
10.42678,29848
10.43612,30601
10.44547,33970
10.45480,42873
10.46413,45918
10.47348,37073
10.48282,25692
10.49215,20265
10.50150,17846
10.51083,17111
10.52017,18356
10.52952,19607
10.53885,18974
10.54818,21217
10.55753,21000
10.56687,19203
10.57620,20146
10.58555,21128
10.59488,19574
10.60422,19483
10.61357,18696
10.62290,21527
10.63225,24916
10.64158,23670
10.65092,20451
10.66027,21136
10.66960,21554
10.67893,21321
10.68828,21612
10.69762,24043
10.70695,33088
10.71630,41887
10.72563,36956
10.73497,28864
10.74432,33485
10.75365,55931
10.76298,86851
10.77233,93529
10.78167,87119
10.79100,106234
10.80035,148471
10.80968,145423
10.81903,89791
10.82837,46363
10.83770,28478
10.84705,24591
10.85638,24164
10.86572,28736
10.87507,29453
10.88440,28931
10.89373,28784
10.90308,24318
10.91242,24694
10.92175,27914
10.93110,29140
10.94043,27827
10.94977,24596
10.95912,22133
10.96845,21706
10.97778,19043
10.98713,18202
10.99647,16618
11.00582,17508
11.01515,17888
11.02448,16930
11.03383,18763
11.04317,17222
11.05250,17398
11.06185,17871
11.07118,17184
11.08052,16558
11.08987,17760
11.09920,15790
11.10853,17021
11.11788,16574
11.12722,18074
11.13655,16852
11.14590,17206
11.15523,16768
11.16458,16750
11.17392,16929
11.18325,16198
11.19260,17379
11.20193,17888
11.21127,19744
11.22062,20919
11.22995,19960
11.23928,16819
11.24863,16078
11.25797,19875
11.26730,18885
11.27665,18106
11.28598,17368
11.29532,17627
11.30467,16985
11.31400,17065
11.32333,17710
11.33268,22954
11.34202,29453
11.35137,34874
11.36070,31122
11.37003,25388
11.37938,21711
11.38872,22048
11.39805,27639
11.40740,31145
11.41673,28819
11.42607,23250
11.43542,19802
11.44475,18211
11.45408,22818
11.46343,29526
11.47277,32179
11.48210,25838
11.49145,19397
11.50078,17280
11.51012,16203
11.51947,16391
11.52880,16194
11.53815,15797
11.54748,17459
11.55682,20818
11.56617,27442
11.57550,35522
11.58483,35149
11.59418,29879
11.60352,26840
11.61285,24037
11.62220,20894
11.63153,20759
11.64087,20138
11.65022,22474
11.65955,26062
11.66888,27163
11.67823,26689
11.68757,22608
11.69690,23169
11.70625,22877
11.71558,23798
11.72493,23553
11.73427,22743
11.74360,22614
11.75295,22315
11.76228,21406
11.77162,21718
11.78097,23882
11.79030,23663
11.79963,23554
11.80898,22486
11.81832,21393
11.82765,21664
11.83700,18546
11.84633,18596
11.85567,18498
11.86502,18775
11.87435,19351
11.88370,20717
11.89303,19867
11.90237,18727
11.91172,18827
11.92105,17650
11.93038,21661
11.93973,26176
11.94907,29332
11.95840,26351
11.96775,20158
11.97708,18816
11.98642,20894
11.99577,22904
12.00510,26496
12.01443,31874
12.02378,28720
12.03312,25177
12.04245,19563
12.05180,18749
12.06113,18602
12.07048,18085
12.07982,18359
12.08915,18457
12.09850,19271
12.10783,19059
12.11717,15483
12.12652,18237
12.13585,18397
12.14518,20084
12.15453,26857
12.16387,51062
12.17320,80268
12.18255,80055
12.19188,49153
12.20122,27996
12.21057,23763
12.21990,27534
12.22923,30420
12.23858,30178
12.24792,23472
12.25727,22497
12.26660,29402
12.27593,41458
12.28528,44505
12.29462,33862
12.30395,25905
12.31330,22361
12.32263,22035
12.33197,25123
12.34132,25509
12.35065,23545
12.35998,21030
12.36933,21210
12.37867,20323
12.38800,20340
12.39735,19445
12.40668,17986
12.41602,18173
12.42537,19178
12.43470,18265
12.44405,19429
12.45338,22022
12.46272,21485
12.47207,24162
12.48140,22788
12.49073,22763
12.50008,24345
12.50942,24513
12.51875,24183
12.52810,25719
12.53743,22409
12.54677,24817
12.55612,29234
12.56545,30493
12.57478,29459
12.58413,23250
12.59347,21071
12.60280,20824
12.61215,22322
12.62148,22265
12.63083,27331
12.64017,31543
12.64950,30270
12.65885,29066
12.66818,23338
12.67752,20506
12.68687,17742
12.69620,18463
12.70553,18717
12.71488,20456
12.72422,20006
12.73355,19545
12.74290,20451
12.75223,21050
12.76157,19924
12.77092,17679
12.78025,16946
12.78960,17406
12.79893,18895
12.80827,19116
12.81762,18570
12.82695,19100
12.83628,19762
12.84563,19182
12.85497,18335
12.86430,18978
12.87365,17895
12.88298,17908
12.89232,18262
12.90167,19156
12.91100,18911
12.92033,18118
12.92968,17754
12.93902,18592
12.94835,19105
12.95770,18526
12.96703,17555
12.97638,15370
12.98572,14944
12.99505,17325
13.00440,16417
13.01373,19690
13.02307,25582
13.03242,26505
13.04175,24122
13.05108,19332
13.06043,18373
13.06977,19147
13.07910,19123
13.08845,20036
13.09778,18813
13.10712,16705
13.11647,18236
13.12580,20022
13.13513,21847
13.14448,22703
13.15382,20329
13.16317,21683
13.17250,21699
13.18183,24052
13.19118,42610
13.20052,86758
13.20985,112101
13.21920,95609
13.22853,59487
13.23787,52082
13.24722,52301
13.25655,42737
13.26588,29527
13.27523,22738
13.28457,22282
13.29390,21078
13.30325,23216
13.31258,25296
13.32192,26061
13.33127,23511
13.34060,23542
13.34995,22411
13.35928,20830
13.36862,19092
13.37797,19716
13.38730,25553
13.39663,28504
13.40598,26341
13.41532,21343
13.42465,21863
13.43400,25149
13.44333,23777
13.45267,22735
13.46202,21154
13.47135,22194
13.48068,21185
13.49003,20870
13.49937,20332
13.50872,30869
13.51805,49679
13.52738,62209
13.53673,46159
13.54607,28743
13.55540,21933
13.56475,20068
13.57408,18912
13.58342,18687
13.59277,18339
13.60210,19070
13.61143,19069
13.62078,18985
13.63012,19623
13.63945,21441
13.64880,22435
13.65813,23418
13.66747,20272
13.67682,19863
13.68615,18230
13.69550,17509
13.70483,16231
13.71417,15854
13.72352,16231
13.73285,16272
13.74218,15935
13.75153,18227
13.76087,18668
13.77020,17250
13.77955,19047
13.78888,20391
13.79822,22777
13.80757,22743
13.81690,21977
13.82623,18998
13.83558,17500
13.84492,19641
13.85425,19737
13.86360,20511
13.87293,22124
13.88228,28894
13.89162,46457
13.90095,85760
13.91030,151546
13.91963,158987
13.92897,97201
13.93832,44748
13.94765,30127
13.95698,26192
13.96633,24475
13.97567,21786
13.98500,22473
13.99435,23568
14.00368,23189
14.01302,22083
14.02237,22550
14.03170,41887
14.04103,247832
14.05038,1411749
14.05972,4150733
14.06907,5624816
14.07840,3918392
14.08773,1252798
14.09708,225384
14.10642,59816
14.11575,39267
14.12510,33974
14.13443,33022
14.14377,33899
14.15312,36161
14.16245,35296
14.17178,34199
14.18113,32771
14.19047,37326
14.19980,38633
14.20915,33049
14.21848,26842
14.22782,22965
14.23717,20594
14.24650,20870
14.25585,22978
14.26518,25579
14.27452,23245
14.28387,21889
14.29320,20873
14.30253,23949
14.31188,30229
14.32122,40307
14.33055,42574
14.33990,35833
14.34923,27852
14.35857,23940
14.36792,22049
14.37725,21068
14.38658,23054
14.39593,26865
14.40527,23515
14.41460,19948
14.42395,19168
14.43328,21235
14.44263,23788
14.45197,34771
14.46130,49131
14.47065,48422
14.47998,37966
14.48932,29856
14.49867,25365
14.50800,21190
14.51733,20749
14.52668,22652
14.53602,21502
14.54535,23374
14.55470,24723
14.56403,25233
14.57337,23241
14.58272,22090
14.59205,21475
14.60140,22287
14.61073,21400
14.62007,19839
14.62942,21098
14.63875,23414
14.64808,26533
14.65743,29795
14.66677,28732
14.67610,27011
14.68545,26725
14.69478,24969
14.70412,22325
14.71347,22442
14.72280,22028
14.73213,22913
14.74148,23581
14.75082,23484
14.76015,22525
14.76950,22086
14.77883,22827
14.78818,24162
14.79752,25407
14.80685,23863
14.81620,24648
14.82553,25394
14.83487,25595
14.84422,30797
14.85355,42665
14.86288,46058
14.87223,39852
14.88157,30024
14.89090,23715
14.90025,21894
14.90958,24606
14.91892,23783
14.92827,23560
14.93760,21492
14.94693,22226
14.95628,21585
14.96562,26451
14.97497,26051
14.98430,26578
14.99363,28257
15.00298,37910
15.01232,40288
15.02165,33412
15.03100,31703
15.04033,37084
15.04967,42693
15.05902,37179
15.06835,34010
15.07768,30302
15.08703,25697
15.09637,25059
15.10570,27091
15.11505,34353
15.12438,45035
15.13372,46650
15.14307,34919
15.15240,27403
15.16175,22161
15.17108,20696
15.18042,25261
15.18977,32119
15.19910,46480
15.20843,67144
15.21778,71305
15.22712,54480
15.23645,39667
15.24580,32018
15.25513,29147
15.26447,29088
15.27382,26624
15.28315,28426
15.29248,28002
15.30183,25956
15.31117,32304
15.32052,38053
15.32985,46045
15.33918,39042
15.34853,32852
15.35787,33673
15.36720,39911
15.37655,36360
15.38588,30669
15.39522,25447
15.40457,24971
15.41390,28995
15.42323,29626
15.43258,26331
15.44192,25113
15.45125,23371
15.46060,23462
15.46993,25723
15.47927,25738
15.48862,29020
15.49795,35882
15.50730,47176
15.51663,54764
15.52597,47354
15.53532,33912
15.54465,26631
15.55398,22545
15.56333,23670
15.57267,24122
15.58200,23912
15.59135,24544
15.60068,26944
15.61002,26289
15.61937,29202
15.62870,33522
15.63803,38251
15.64738,39598
15.65672,36481
15.66605,33542
15.67540,30526
15.68473,34003
15.69408,38064
15.70342,45399
15.71275,42952
15.72210,35642
15.73143,33657
15.74077,40304
15.75012,41711
15.75945,38303
15.76878,39070
15.77813,33737
15.78747,32846
15.79680,31619
15.80615,38304
15.81548,63037
15.82482,153220
15.83417,318746
15.84350,384068
15.85283,246835
15.86218,113484
15.87152,66781
15.88087,56233
15.89020,59516
15.89953,57696
15.90888,50781
15.91822,42775
15.92755,36228
15.93690,32982
15.94623,32771
15.95557,34021
15.96492,36771
15.97425,43624
15.98358,50999
15.99293,52191
16.00227,44160
16.01160,37559
16.02095,35414
16.03028,35908
16.03962,38414
16.04897,39493
16.05830,43205
16.06765,41080
16.07698,40058
16.08632,35896
16.09567,33144
16.10500,36021
16.11433,40921
16.12368,39595
16.13302,38710
16.14235,36978
16.15170,38688
16.16103,37535
16.17037,32928
16.17972,28842
16.18905,29889
16.19838,31689
16.20773,33617
16.21707,38034
16.22642,40409
16.23575,42354
16.24508,43326
16.25443,42327
16.26377,42358
16.27310,49003
16.28245,79972
16.29178,130733
16.30112,140369
16.31047,98878
16.31980,62495
16.32913,41634
16.33848,35447
16.34782,30797
16.35715,27952
16.36650,27486
16.37583,27293
16.38517,30999
16.39452,35571
16.40385,40494
16.41320,39140
16.42253,39614
16.43187,36952
16.44122,38558
16.45055,41051
16.45988,40814
16.46923,34864
16.47857,33365
16.48790,35150
16.49725,34600
16.50658,35168
16.51592,36021
16.52527,33590
16.53460,32746
16.54393,30382
16.55328,29687
16.56262,28345
16.57195,30790
16.58130,32585
16.59063,32697
16.59998,32321
16.60932,34923
16.61865,37693
16.62800,43248
16.63733,40861
16.64667,37248
16.65602,33524
16.66535,32545
16.67468,34901
16.68403,43973
16.69337,48828
16.70270,49262
16.71205,40544
16.72138,36453
16.73072,42698
16.74007,68467
16.74940,83040
16.75873,68063
16.76808,45328
16.77742,35912
16.78677,32022
16.79610,31749
16.80543,31544
16.81478,40739
16.82412,46949
16.83345,48457
16.84280,40729
16.85213,35433
16.86147,31215
16.87082,31320
16.88015,30784
16.88948,33231
16.89883,42578
16.90817,57051
16.91750,58424
16.92685,55711
16.93618,49852
16.94553,48998
16.95487,49125
16.96420,44147
16.97355,40822
16.98288,33868
16.99222,30581
17.00157,32683
17.01090,39116
17.02023,58555
17.02958,75339
17.03892,71153
17.04825,50819
17.05760,40891
17.06693,38544
17.07627,35008
17.08562,35715
17.09495,34922
17.10428,34171
17.11363,34564
17.12297,39530
17.13232,45414
17.14165,41175
17.15098,34251
17.16033,30728
17.16967,32990
17.17900,30105
17.18835,30530
17.19768,30425
17.20702,28999
17.21637,28036
17.22570,29659
17.23503,29974
17.24438,29948
17.25372,31358
17.26305,33644
17.27240,37360
17.28173,37038
17.29107,32597
17.30042,33056
17.30975,35833
17.31910,40543
17.32843,41254
17.33777,38179
17.34712,37754
17.35645,37806
17.36578,55575
17.37513,96046
17.38447,132586
17.39380,105897
17.40315,65662
17.41248,47185
17.42182,42456
17.43117,41707
17.44050,40641
17.44983,39971
17.45918,37060
17.46852,38055
17.47785,63149
17.48720,261407
17.49653,1089593
17.50588,2256604
17.51522,2211569
17.52455,1100807
17.53390,299591
17.54323,84292
17.55257,51551
17.56192,45826
17.57125,48142
17.58058,47726
17.58993,48203
17.59927,42494
17.60860,38307
17.61795,37050
17.62728,36230
17.63662,36051
17.64597,38572
17.65530,43656
17.66463,47342
17.67398,46807
17.68332,46464
17.69267,51017
17.70200,50021
17.71133,46753
17.72068,40725
17.73002,38352
17.73935,39134
17.74870,44808
17.75803,47953
17.76737,47902
17.77672,41621
17.78605,34514
17.79538,30121
17.80473,32239
17.81407,35612
17.82340,35413
17.83275,35794
17.84208,39323
17.85142,48291
17.86077,50011
17.87010,50171
17.87945,43261
17.88878,42464
17.89812,36884
17.90747,33671
17.91680,30794
17.92613,29009
17.93548,30602
17.94482,35108
17.95415,37208
17.96350,37522
17.97283,36547
17.98217,34835
17.99152,33588
18.00085,30207
18.01018,30568
18.01953,29171
18.02887,30123
18.03822,33254
18.04755,36922
18.05688,38452
18.06623,33593
18.07557,31698
18.08490,30155
18.09425,33350
18.10358,34369
18.11292,33553
18.12227,35115
18.13160,36718
18.14093,37706
18.15028,39846
18.15962,40105
18.16895,38251
18.17830,37092
18.18763,32467
18.19697,29902
18.20632,30293
18.21565,32033
18.22500,31827
18.23433,29906
18.24367,31358
18.25302,29154
18.26235,31957
18.27168,36471
18.28103,41172
18.29037,41887
18.29970,43746
18.30905,44148
18.31838,43888
18.32772,48717
18.33707,56097
18.34640,59460
18.35573,55834
18.36508,42237
18.37442,35590
18.38375,32552
18.39310,34020
18.40243,34617
18.41178,35350
18.42112,37015
18.43045,41343
18.43980,47131
18.44913,46096
18.45847,37767
18.46782,32921
18.47715,36318
18.48648,48558
18.49583,66169
18.50517,75828
18.51450,73506
18.52385,62178
18.53318,49029
18.54252,42943
18.55187,43449
18.56120,40206
18.57053,33581
18.57988,30692
18.58922,32150
18.59857,36940
18.60790,40292
18.61723,41787
18.62658,43985
18.63592,44607
18.64525,40203
18.65460,35835
18.66393,35105
18.67327,33927
18.68262,35867
18.69195,35843
18.70128,38288
18.71063,41204
18.71997,43223
18.72930,43899
18.73865,40259
18.74798,36294
18.75733,33065
18.76667,31210
18.77600,30089
18.78535,31809
18.79468,33843
18.80402,34521
18.81337,33430
18.82270,30286
18.83203,33259
18.84138,31596
18.85072,30703
18.86005,27844
18.86940,29505
18.87873,30725
18.88807,33341
18.89742,42149
18.90675,47209
18.91608,46540
18.92543,43166
18.93477,41997
18.94412,43827
18.95345,49922
18.96278,47583
18.97213,49034
18.98147,41767
18.99080,37797
19.00015,35943
19.00948,33982
19.01882,36228
19.02817,41357
19.03750,56517
19.04683,69537
19.05618,74366
19.06552,95513
19.07485,144927
19.08420,189153
19.09353,160467
19.10287,92401
19.11222,53993
19.12155,37543
19.13090,35923
19.14023,32297
19.14957,32209
19.15892,30341
19.16825,33871
19.17758,35353
19.18693,39919
19.19627,43721
19.20560,51277
19.21495,52343
19.22428,45210
19.23362,38860
19.24297,34502
19.25230,32212
19.26163,32911
19.27098,35293
19.28032,34782
19.28965,37094
19.29900,41643
19.30833,49014
19.31768,49125
19.32702,44479
19.33635,37120
19.34570,32660
19.35503,30914
19.36437,30471
19.37372,29159
19.38305,33990
19.39238,37505
19.40173,42134
19.41107,41365
19.42040,37669
19.42975,30240
19.43908,28478
19.44842,28544
19.45777,30888
19.46710,30379
19.47643,33007
19.48578,35809
19.49512,33559
19.50447,30422
19.51380,29597
19.52313,31084
19.53248,31114
19.54182,28390
19.55115,28924
19.56050,28894
19.56983,30065
19.57917,33604
19.58852,34152
19.59785,30586
19.60718,28576
19.61653,32715
19.62587,33134
19.63520,35716
19.64455,33929
19.65388,30210
19.66323,30632
19.67257,30379
19.68190,29231
19.69125,28958
19.70058,33093
19.70992,38912
19.71927,48346
19.72860,53584
19.73793,48613
19.74728,38370
19.75662,32363
19.76595,33835
19.77530,37353
19.78463,39207
19.79397,37061
19.80332,32903
19.81265,33475
19.82198,35026
19.83133,31072
19.84067,30728
19.85002,31640
19.85935,37296
19.86868,48082
19.87803,50164
19.88737,43547
19.89670,35298
19.90605,34619
19.91538,37535
19.92472,35455
19.93407,32978
19.94340,31475
19.95273,32976
19.96208,34276
19.97142,32904
19.98075,28679
19.99010,28817
19.99943,29265
20.00877,32587
20.01812,32012
20.02745,35597
20.03680,41510
20.04613,37558
20.05547,32222
20.06482,30373
20.07415,32622
20.08348,32005
20.09283,31700
20.10217,29572
20.11150,25127
20.12085,26448
20.13018,32625
20.13952,43704
20.14887,53566
20.15820,46975
20.16753,37888
20.17688,31473
20.18622,27619
20.19555,28358
20.20490,29707
20.21423,28032
20.22358,27501
20.23292,26749
20.24225,26174
20.25160,26732
20.26093,27411
20.27027,26009
20.27962,27730
20.28895,28955
20.29828,27779
20.30763,27599
20.31697,27879
20.32630,27401
20.33565,26390
20.34498,28266
20.35432,28640
20.36367,29974
20.37300,30930
20.38235,29086
20.39168,29054
20.40102,26023
20.41037,27285
20.41970,26304
20.42903,27417
20.43838,26843
20.44772,28933
20.45705,34849
20.46640,44577
20.47573,41181
20.48507,34240
20.49442,29613
20.50375,29101
20.51308,27161
20.52243,27234
20.53177,26634
20.54110,31104
20.55045,57386
20.55978,143807
20.56913,307938
20.57847,347310
20.58780,199074
20.59715,78706
20.60648,43277
20.61582,36230
20.62517,36058
20.63450,36021
20.64383,38451
20.65318,39955
20.66252,41126
20.67185,41059
20.68120,40887
20.69053,38812
20.69987,36160
20.70922,34144
20.71855,34233
20.72788,32488
20.73723,31475
20.74657,29873
20.75592,27815
20.76525,27013
20.77458,27282
20.78393,29155
20.79327,32148
20.80260,33228
20.81195,31838
20.82128,28237
20.83062,25659
20.83997,26798
20.84930,26833
20.85863,25485
20.86798,27563
20.87732,27819
20.88665,29073
20.89600,30374
20.90533,30044
20.91467,29201
20.92402,25707
20.93335,26171
20.94270,25901
20.95203,26202
20.96137,26069
20.97072,23532
20.98005,25069
20.98938,25311
20.99873,26115
21.00807,25542
21.01740,25833
21.02675,24160
21.03608,24670
21.04542,23918
21.05477,25632
21.06410,25337
21.07343,24358
21.08278,26588
21.09212,27849
21.10145,30192
21.11080,29920
21.12013,32314
21.12948,33967
21.13882,34584
21.14815,31777
21.15750,28031
21.16683,27484
21.17617,29484
21.18552,31151
21.19485,33984
21.20418,35747
21.21353,34830
21.22287,32186
21.23220,29838
21.24155,31044
21.25088,30161
21.26022,40834
21.26957,52631
21.27890,64322
21.28823,59907
21.29758,45644
21.30692,35023
21.31627,30279
21.32560,28933
21.33493,27301
21.34428,27722
21.35362,28100
21.36295,27462
21.37230,27814
21.38163,26134
21.39097,30344
21.40032,38381
21.40965,47553
21.41898,48038
21.42833,40155
21.43767,33062
21.44700,29085
21.45635,29331
21.46568,32858
21.47503,37024
21.48437,35817
21.49370,30227
21.50305,28524
21.51238,29175
21.52172,25710
21.53107,25535
21.54040,26676
21.54973,26782
21.55908,30188
21.56842,33685
21.57775,39453
21.58710,39795
21.59643,33759
21.60577,30163
21.61512,29029
21.62445,27266
21.63378,26031
21.64313,25410
21.65247,27347
21.66182,25850
21.67115,29096
21.68048,28876
21.68983,27470
21.69917,26888
21.70850,26972
21.71785,27801
21.72718,27718
21.73652,29199
21.74587,24475
21.75520,24848
21.76453,26773
21.77388,24620
21.78322,23749
21.79255,26249
21.80190,27265
21.81123,30087
21.82057,30161
21.82992,30178
21.83925,26959
21.84860,25397
21.85793,25839
21.86727,29293
21.87662,30932
21.88595,34924
21.89528,34122
21.90463,29939
21.91397,32775
21.92330,30675
21.93265,28366
21.94198,27818
21.95132,29281
21.96067,34113
21.97000,49705
21.97933,76058
21.98868,88513
21.99802,68716
22.00735,43758
22.01670,33067
22.02603,30785
22.03538,30325
22.04472,29562
22.05405,30428
22.06340,32787
22.07273,34827
22.08207,34734
22.09142,33903
22.10075,32592
22.11008,30423
22.11943,28980
22.12877,29954
22.13810,31574
22.14745,31805
22.15678,34250
22.16612,35804
22.17547,35317
22.18480,32028
22.19415,29197
22.20348,28799
22.21282,29049
22.22217,26391
22.23150,29855
22.24083,29451
22.25018,29989
22.25952,27294
22.26885,28951
22.27820,31230
22.28753,30992
22.29687,29704
22.30622,30704
22.31555,27966
22.32488,28208
22.33423,26188
22.34357,27956
22.35290,27963
22.36225,28157
22.37158,27648
22.38093,27685
22.39027,28638
22.39960,25593
22.40895,27959
22.41828,24969
22.42762,26409
22.43697,27700
22.44630,27732
22.45563,28349
22.46498,26505
22.47432,26462
22.48365,26414
22.49300,25715
22.50233,25806
22.51167,25810
22.52102,25106
22.53035,25720
22.53968,24678
22.54903,24936
22.55837,27880
22.56772,30285
22.57705,30221
22.58638,30721
22.59573,29792
22.60507,28540
22.61440,28238
22.62375,27652
22.63308,26328
22.64242,26035
22.65177,24481
22.66110,23068
22.67043,24663
22.67978,27313
22.68912,32477
22.69845,29904
22.70780,27478
22.71713,28058
22.72647,27144
22.73582,26603
22.74515,29799
22.75450,29398
22.76383,30038
22.77317,27714
22.78252,27306
22.79185,25962
22.80118,25861
22.81053,26186
22.81987,28442
22.82920,27557
22.83855,28532
22.84788,29330
22.85722,29469
22.86657,27811
22.87590,27141
22.88523,25646
22.89458,26736
22.90392,26166
22.91325,27189
22.92260,24859
22.93193,26449
22.94128,32410
22.95062,35667
22.95995,32170
22.96930,28488
22.97863,26347
22.98797,24182
22.99732,25335
23.00665,22908
23.01598,24096
23.02533,22511
23.03467,23724
23.04400,23745
23.05335,22567
23.06268,22771
23.07202,23358
23.08137,22758
23.09070,23119
23.10005,24449
23.10938,22746
23.11872,23121
23.12807,22591
23.13740,23392
23.14673,23279
23.15608,24234
23.16542,25996
23.17475,24712
23.18410,23603
23.19343,23869
23.20277,24981
23.21212,24962
23.22145,24654
23.23078,25871
23.24013,26823
23.24947,27280
23.25880,25695
23.26815,26572
23.27748,26620
23.28683,27520
23.29617,26781
23.30550,31285
23.31485,46849
23.32418,69603
23.33352,81000
23.34287,64871
23.35220,38768
23.36153,29030
23.37088,26245
23.38022,28363
23.38955,28311
23.39890,28176
23.40823,29004
23.41757,28462
23.42692,27483
23.43625,26359
23.44558,27934
23.45493,29879
23.46427,29672
23.47362,27537
23.48295,26361
23.49228,25081
23.50163,26077
23.51097,25159
23.52030,26224
23.52965,24986
23.53898,26844
23.54832,26556
23.55767,25764
23.56700,25604
23.57633,26135
23.58568,23597
23.59502,22418
23.60435,24312
23.61370,23894
23.62303,23369
23.63237,23163
23.64172,22123
23.65105,22702
23.66040,23325
23.66973,26078
23.67907,26606
23.68842,25039
23.69775,24305
23.70708,23690
23.71643,27271
23.72577,25225
23.73510,25549
23.74445,25625
23.75378,24359
23.76312,24763
23.77247,25266
23.78180,25014
23.79113,23625
23.80048,24018
23.80982,23000
23.81917,23780
23.82850,22160
23.83783,22292
23.84718,22694
23.85652,23506
23.86585,26087
23.87520,26180
23.88453,25191
23.89387,25281
23.90322,23566
23.91255,24014
23.92188,23763
23.93123,23648
23.94057,24851
23.94990,25208
23.95925,23524
23.96858,22821
23.97792,22594
23.98727,23232
23.99660,24170
24.00595,22937
24.01528,22694
24.02462,23648
24.03397,22512
24.04330,22739
24.05263,22494
24.06198,21782
24.07132,23005
24.08065,23613
24.09000,25446
24.09933,24669
24.10867,24756
24.11802,24421
24.12735,24311
24.13668,23897
24.14603,26348
24.15537,27869
24.16470,29473
24.17405,34863
24.18338,32926
24.19273,28253
24.20207,25920
24.21140,24926
24.22075,25325
24.23008,24713
24.23942,24795
24.24877,24475
24.25810,25451
24.26743,24110
24.27678,22364
24.28612,22334
24.29545,23005
24.30480,23488
24.31413,25376
24.32347,25222
24.33282,26154
24.34215,23336
24.35148,24178
24.36083,24059
24.37017,22156
24.37952,23772
24.38885,23248
24.39818,21991
24.40753,23392
24.41687,24718
24.42620,22934
24.43555,24645
24.44488,24568
24.45422,24606
24.46357,25176
24.47290,24672
24.48223,23793
24.49158,25238
24.50092,23292
24.51025,23862
24.51960,25554
24.52893,24276
24.53827,24278
24.54762,24083
24.55695,23731
24.56630,24702
24.57563,25373
24.58497,23117
24.59432,27212
24.60365,28156
24.61298,29783
24.62233,27489
24.63167,24651
24.64100,24496
24.65035,22531
24.65968,23563
24.66902,24341
24.67837,23606
24.68770,24151
24.69703,23403
24.70638,22318
24.71572,23820
24.72505,24465
24.73440,24119
24.74373,24371
24.75308,23065
24.76242,22377
24.77175,22850
24.78110,22815
24.79043,22824
24.79977,23948
24.80912,22940
24.81845,24757
24.82778,24084
24.83713,24066
24.84647,24419
24.85580,23178
24.86515,24576
24.87448,24492
24.88382,24243
24.89317,25843
24.90250,23495
24.91185,26077
24.92118,26101
24.93052,23511
24.93987,24770
24.94920,26485
24.95853,25329
24.96788,24732
24.97722,24980
24.98655,25358
24.99590,23111
25.00523,24033
25.01457,24375
25.02392,22161
25.03325,23849
25.04258,23800
25.05193,24117
25.06127,23305
25.07060,22566
25.07995,22612
25.08928,24553
25.09863,25545
25.10797,25365
25.11730,24097
25.12665,25016
25.13598,24465
25.14532,25006
25.15467,24561
25.16400,25378
25.17333,25638
25.18268,26008
25.19202,24658
25.20135,24548
25.21070,24728
25.22003,24486
25.22937,25141
25.23872,24210
25.24805,25162
25.25738,25382
25.26673,25180
25.27607,23808
25.28542,25302
25.29475,24794
25.30408,26084
25.31343,25906
25.32277,32530
25.33210,42629
25.34145,49320
25.35078,45574
25.36012,41873
25.36947,37988
25.37880,36234
25.38813,34825
25.39748,31069
25.40682,32209
25.41615,30571
25.42550,29581
25.43483,28199
25.44417,28065
25.45352,28364
25.46285,27793
25.47220,27183
25.48153,30406
25.49087,32907
25.50022,31620
25.50955,29895
25.51888,29009
25.52823,27939
25.53757,26077
25.54690,25605
25.55625,27161
25.56558,24859
25.57492,25932
25.58427,25510
25.59360,27012
25.60293,25347
25.61228,26694
25.62162,27013
25.63097,26958
25.64030,29581
25.64963,30570
25.65898,29812
25.66832,29649
25.67765,28563
25.68700,28320
25.69633,28577
25.70567,27381
25.71502,28360
25.72435,29556
25.73368,27366
25.74303,27694
25.75237,29296
25.76170,29455
25.77105,27448
25.78038,28344
25.78972,25774
25.79907,27981
25.80840,28306
25.81775,30816
25.82708,32275
25.83642,30916
25.84577,28920
25.85510,28471
25.86443,28432
25.87378,28429
25.88312,25719
25.89245,26526
25.90180,28325
25.91113,28857
25.92047,27661
25.92982,28206
25.93915,28370
25.94848,26665
25.95783,28007
25.96717,25742
25.97650,25242
25.98585,27466
25.99518,26667
26.00453,25930
26.01387,27844
26.02320,27521
26.03255,26736
26.04188,27115
26.05122,27682
26.06057,27680
26.06990,27006
26.07923,27663
26.08858,27587
26.09792,28309
26.10725,27277
26.11660,27607
26.12593,29292
26.13527,30081
26.14462,29176
26.15395,29477
26.16328,27206
26.17263,28646
26.18197,28936
26.19132,30358
26.20065,26936
26.20998,26909
26.21933,28745
26.22867,27979
26.23800,29766
26.24735,27335
26.25668,28265
26.26602,27534
26.27537,29265
26.28470,28168
26.29403,28660
26.30338,28200
26.31272,27645
26.32205,28241
26.33140,27898
26.34073,28111
26.35007,27269
26.35942,28897
26.36875,27933
26.37810,26492
26.38743,27460
26.39677,25701
26.40612,26537
26.41545,26482
26.42478,26787
26.43413,28335
26.44347,27957
26.45280,26777
26.46215,30307
26.47148,29070
26.48082,28249
26.49017,30532
26.49950,27572
26.50883,28403
26.51818,28329
26.52752,28454
26.53687,28159
26.54620,28323
26.55553,28502
26.56488,29038
26.57422,28948
26.58355,30087
26.59290,31439
26.60223,30158
26.61157,29445
26.62092,30489
26.63025,31549
26.63958,32097
26.64893,33574
26.65827,34055
26.66760,34137
26.67695,33140
26.68628,31733
26.69562,31869
26.70497,28333
26.71430,29581
26.72365,29985
26.73298,29292
26.74232,29015
26.75167,31105
26.76100,30655
26.77033,30196
26.77968,30059
26.78902,29717
26.79835,30532
26.80770,29752
26.81703,28462
26.82637,28178
26.83572,30097
26.84505,30714
26.85438,30352
26.86373,30028
26.87307,30694
26.88240,31049
26.89175,29783
26.90108,30665
26.91043,32146
26.91977,29785
26.92910,32245
26.93845,30712
26.94778,32332
26.95712,32185
26.96647,32504
26.97580,32338
26.98513,33654
26.99448,33984
27.00382,34430
27.01315,33213
27.02250,31148
27.03183,34183
27.04117,33368
27.05052,31192
27.05985,30540
27.06918,32157
27.07853,31407
27.08787,32712
27.09722,30852
27.10655,32035
27.11588,31519
27.12523,31984
27.13457,33151
27.14390,32482
27.15325,32146
27.16258,33556
27.17192,33396
27.18127,33178
27.19060,32053
27.19993,31432
27.20928,31362
27.21862,32822
27.22795,33456
27.23730,32779
27.24663,34393
27.25598,34908
27.26532,35453
27.27465,35539
27.28400,31848
27.29333,32572
27.30267,33062
27.31202,34734
27.32135,31078
27.33068,32976
27.34003,35894
27.34937,32842
27.35870,32526
27.36805,33450
27.37738,32860
27.38672,32406
27.39607,33195
27.40540,32401
27.41473,34344
27.42408,35367
27.43342,33346
27.44277,35068
27.45210,35677
27.46143,36736
27.47078,34472
27.48012,36166
27.48945,37481
27.49880,35698
27.50813,35342
27.51747,35247
27.52682,36100
27.53615,36105
27.54548,36260
27.55483,35475
27.56417,36113
27.57350,35302
27.58285,36406
27.59218,35327
27.60152,35954
27.61087,35643
27.62020,35247
27.62955,34242
27.63888,35622
27.64822,33181
27.65757,36831
27.66690,36868
27.67623,37303
27.68558,38122
27.69492,39552
27.70425,40745
27.71360,42897
27.72293,42280
27.73227,44085
27.74162,40928
27.75095,40799
27.76028,41731
27.76963,40744
27.77897,40340
27.78830,40642
27.79765,40761
27.80698,39827
27.81633,39693
27.82567,41111
27.83500,39277
27.84435,38457
27.85368,38988
27.86302,40314
27.87237,41842
27.88170,40951
27.89103,40715
27.90038,38208
27.90972,37931
27.91905,41382
27.92840,39770
27.93773,39304
27.94707,39066
27.95642,39750
27.96575,41970
27.97508,40743
27.98443,41121
27.99377,40718
28.00312,41124
28.01245,42100
28.02178,41202
28.03113,40205
28.04047,40166
28.04980,39271
28.05915,39484
28.06848,42204
28.07782,41449
28.08717,42405
28.09650,43548
28.10583,43186
28.11518,45284
28.12452,45304
28.13385,42577
28.14320,44586
28.15253,44590
28.16187,41396
28.17122,42860
28.18055,44957
28.18990,43311
28.19923,44017
28.20857,44176
28.21792,44949
28.22725,45313
28.23658,45669
28.24593,44090
28.25527,43354
28.26460,43386
28.27395,42825
28.28328,43345
28.29262,44109
28.30197,44579
28.31130,44057
28.32063,44384
28.32998,43809
28.33932,43727
28.34867,43225
28.35800,43066
28.36733,42694
28.37668,45054
28.38602,42104
28.39535,43442
28.40470,43276
28.41403,43725
28.42337,45548
28.43272,43640
28.44205,45573
28.45138,45785
28.46073,45213
28.47007,46825
28.47940,47484
28.48875,46279
28.49808,45310
28.50742,47911
28.51677,48483
28.52610,47642
28.53545,46443
28.54478,48962
28.55412,47681
28.56347,48001
28.57280,48288
28.58213,47054
28.59148,46991
28.60082,48013
28.61015,47003
28.61950,47738
28.62883,46880
28.63817,46706
28.64752,46953
28.65685,51444
28.66618,55645
28.67553,56875
28.68487,57536
28.69420,54213
28.70355,52954
28.71288,52098
28.72223,52539
28.73157,51046
28.74090,51033
28.75025,50828
28.75958,52481
28.76892,52476
28.77827,50428
28.78760,49824
28.79693,50450
28.80628,50495
28.81562,51355
28.82495,51114
28.83430,52594
28.84363,52461
28.85297,53823
28.86232,53121
28.87165,49514
28.88098,53372
28.89033,52858
28.89967,52109
28.90902,52916
28.91835,53497
28.92768,53931
28.93703,53268
28.94637,51630
28.95570,54700
28.96505,55306
28.97438,52464
28.98372,54169
28.99307,53073
29.00240,54936
29.01173,54989
29.02108,54501
29.03042,54816
29.03975,56406
29.04910,56826
29.05843,54675
29.06778,54952
29.07712,55809
29.08645,54657
29.09580,52397
29.10513,56419
29.11447,55684
29.12382,56192
29.13315,55668
29.14248,55489
29.15183,55102
29.16117,57661
29.17050,55254
29.17985,58258
29.18918,61232
29.19852,58268
29.20787,58910
29.21720,58402
29.22653,59390
29.23588,58706
29.24522,58497
29.25457,58154
29.26390,57276
29.27323,59465
29.28258,58938
29.29192,62470
29.30125,58942
29.31060,58376
29.31993,58019
29.32927,58083
29.33862,58776
29.34795,60835
29.35728,60967
29.36663,59747
29.37597,57947
29.38530,60593
29.39465,61032
29.40398,61947
29.41332,59613
29.42267,58826
29.43200,59580
29.44135,60220
29.45068,66042
29.46002,64442
29.46937,64743
29.47870,63407
29.48803,63702
29.49738,62802
29.50672,62710
29.51605,64326
29.52540,62695
29.53473,62606
29.54407,62078
29.55342,64106
29.56275,64423
29.57208,60501
29.58143,62656
29.59077,61555
29.60010,62195
29.60945,61860
29.61878,64593
29.62813,59939
29.63747,61116
29.64680,62997
29.65615,63452
29.66548,60346
29.67482,64268
29.68417,61551
29.69350,62310
29.70283,60380
29.71218,63625
29.72152,63520
29.73085,61202
29.74020,64303
29.74953,61823
29.75887,61912
29.76822,60856
29.77755,62403
29.78688,62112
29.79623,65063
29.80557,61218
29.81492,62814
29.82425,61821
29.83358,61594
29.84293,64264
29.85227,63985
29.86160,64484
29.87095,64016
29.88028,65609
29.88962,63808
29.89897,62846
29.90830,61713
29.91763,62497
29.92698,63645
29.93632,66106
29.94565,62964
29.95500,63035
29.96433,62977
29.97368,64330
29.98302,63388
29.99235,64309
30.00170,64038
30.01103,63805
30.02037,64599
30.02972,65531
30.03905,61524
30.04838,64345
30.05773,66949
30.06707,65058
30.07640,64662
30.08575,62650
30.09508,63539
30.10442,65345
30.11377,63795
30.12310,66525
30.13243,64680
30.14178,65685
30.15112,65142
30.16047,64575
30.16980,64006
30.17913,66956
30.18848,66543
30.19782,66028
30.20715,68129
30.21650,65869
30.22583,66384
30.23517,66487
30.24452,65623
30.25385,65292
30.26318,67393
30.27253,65849
30.28187,68164
30.29120,64644
30.30055,66582
30.30988,65878
30.31922,67030
30.32857,67068
30.33790,67488
30.34725,66881
30.35658,65434
30.36592,65563
30.37527,69261
30.38460,66897
30.39393,69479
30.40328,68312
30.41262,65252
30.42195,67551
30.43130,65312
30.44063,66122
30.44997,67782
30.45932,66205
30.46865,67594
30.47798,66542
30.48733,66398
30.49667,67969
30.50600,67453
30.51535,66611
30.52468,67675
30.53403,67710
30.54337,65479
30.55270,69406
30.56205,68929
30.57138,69647
30.58072,71177
30.59007,70196
30.59940,72099
30.60873,74692
30.61808,72728
30.62742,75561
30.63675,77164
30.64610,74729
30.65543,79580
30.66477,80872
30.67412,79881
30.68345,80235
30.69280,81192
30.70213,78848
30.71147,81478
30.72082,77811
30.73015,75531
30.73948,75207
30.74883,73600
30.75817,75609
30.76750,74544
30.77685,74285
30.78618,72691
30.79552,72026
30.80487,73850
30.81420,75582
30.82353,76043
30.83288,74683
30.84222,77293
30.85155,76767
30.86090,75431
30.87023,76237
30.87958,79394
30.88892,77984
30.89825,78490
30.90760,80667
30.91693,79269
30.92627,81589
30.93562,81492
30.94495,79630
30.95428,79640
30.96363,80647
30.97297,80545
30.98230,81250
30.99165,79512
31.00098,79123
31.01032,78055
31.01967,77995
31.02900,78723
31.03833,79433
31.04768,76859
31.05702,75740
31.06637,75764
31.07570,78638
31.08503,75044
31.09438,75246
31.10372,74010
31.11305,76298
31.12240,75712
31.13173,75365
31.14107,74910
31.15042,77289
31.15975,78186
31.16908,77021
31.17843,76049
31.18777,78595
31.19710,77775
31.20645,77646
31.21578,77968
31.22512,78222
31.23447,77895
31.24380,79028
31.25315,76677
31.26248,80512
31.27182,78289
31.28117,80778
31.29050,77371
31.29983,80075
31.30918,78872
31.31852,81382
31.32785,80567
31.33720,78600
31.34653,81415
31.35587,78644
31.36522,78888
