D:\数据\20220412\TEST5-SDHX-2.D Wed Apr 13 01:47:48 2022
Start of data points
0.09770,18344
0.10703,18071
0.11638,17508
0.12572,17976
0.13505,18839
0.14440,18746
0.15373,18556
0.16307,17503
0.17242,18738
0.18175,16903
0.19108,17450
0.20043,16768
0.20977,17443
0.21910,18507
0.22845,16769
0.23778,15917
0.24712,17157
0.25647,16483
0.26580,16538
0.27513,16662
0.28448,16952
0.29382,17816
0.30317,17794
0.31250,17176
0.32183,17346
0.33118,15978
0.34052,17341
0.34985,17481
0.35920,16902
0.36853,17666
0.37787,16986
0.38722,16934
0.39655,16809
0.40588,14995
0.41523,12036
0.42457,10582
0.43390,7386
0.44325,4833
0.45258,4352
0.46193,4356
0.47127,4708
0.48060,4231
0.48995,4157
0.49928,4358
0.50862,3908
0.51797,3600
0.52730,3930
0.53663,3711
0.54598,3666
0.55532,3430
0.56465,3578
0.57400,3304
0.58333,3367
0.59267,3425
0.60202,3379
0.61135,4140
0.62068,3481
0.63003,3051
0.63937,3741
0.64872,3180
0.65805,3271
0.66738,3763
0.67673,3153
0.68607,3205
0.69540,3455
0.70475,3504
0.71408,3780
0.72342,3275
0.73277,3152
0.74210,3618
0.75143,3145
0.76078,3257
0.77012,3106
0.77945,3459
0.78880,4009
0.79813,3474
0.80747,3227
0.81682,3379
0.82615,2452
0.83550,2678
0.84483,3255
0.85417,3451
0.86352,2831
0.87285,3123
0.88218,3416
0.89153,3031
0.90087,3706
0.91020,3083
0.91955,3446
0.92888,3353
0.93822,2926
0.94757,3408
0.95690,3602
0.96623,3072
0.97558,3084
0.98492,3599
0.99427,3195
1.00360,2921
1.01293,3375
1.02228,3197
1.03162,3617
1.04095,3541
1.05030,2948
1.05963,3067
1.06897,3221
1.07832,2534
1.08765,2600
1.09698,2714
1.10633,2860
1.11567,3004
1.12500,2787
1.13435,2796
1.14368,3017
1.15302,3398
1.16237,3006
1.17170,3432
1.18105,2613
1.19038,3211
1.19972,3198
1.20907,3331
1.21840,3317
1.22773,3393
1.23708,3288
1.24642,3164
1.25575,3459
1.26510,2783
1.27443,3307
1.28377,3103
1.29312,3514
1.30245,2979
1.31178,2787
1.32113,3208
1.33047,3612
1.33980,3083
1.34915,3148
1.35848,2874
1.36783,3647
1.37717,3141
1.38650,3283
1.39585,2788
1.40518,3019
1.41452,3153
1.42387,2941
1.43320,3120
1.44253,2969
1.45188,3150
1.46122,2660
1.47055,2997
1.47990,2671
1.48923,2850
1.49857,3080
1.50792,2856
1.51725,3024
1.52658,3285
1.53593,3235
1.54527,2924
1.55462,2499
1.56395,3047
1.57328,2949
1.58263,4079
1.59197,8090
1.60130,13288
1.61065,16910
1.61998,22051
1.62932,30503
1.63867,40239
1.64800,42257
1.65733,37245
1.66668,31292
1.67602,25402
1.68535,22741
1.69470,18020
1.70403,13352
1.71337,13191
1.72272,15251
1.73205,15740
1.74140,17391
1.75073,18398
1.76007,18623
1.76942,20517
1.77875,19436
1.78808,19989
1.79743,20907
1.80677,21370
1.81610,19585
1.82545,21035
1.83478,21125
1.84412,20265
1.85347,20653
1.86280,20691
1.87213,25499
1.88148,38166
1.89082,65841
1.90015,95376
1.90950,114287
1.91883,127726
1.92818,152145
1.93752,188553
1.94685,207585
1.95620,205423
1.96553,174201
1.97487,141100
1.98422,109302
1.99355,86954
2.00288,73847
2.01223,67410
2.02157,71705
2.03090,77100
2.04025,71650
2.04958,61418
2.05892,53400
2.06827,46539
2.07760,44202
2.08695,40319
2.09628,35433
2.10562,37172
2.11497,44054
2.12430,84275
2.13363,231927
2.14298,405465
2.15232,399098
2.16165,288378
2.17100,189873
2.18033,155393
2.18967,241616
2.19902,308900
2.20835,216948
2.21768,126785
2.22703,97269
2.23637,152757
2.24570,513012
2.25505,2019889
2.26438,3522709
2.27373,3438965
2.28307,2465993
2.29240,1508466
2.30175,1028095
2.31108,1891001
2.32042,3996064
2.32977,4032851
2.33910,2292250
2.34843,1016166
2.35778,461100
2.36712,246594
2.37645,164196
2.38580,124418
2.39513,94445
2.40447,82717
2.41382,84652
2.42315,84870
2.43248,74004
2.44183,61483
2.45117,55620
2.46052,49993
2.46985,50506
2.47918,48758
2.48853,47251
2.49787,42985
2.50720,39749
2.51655,39590
2.52588,39038
2.53522,37301
2.54457,39040
2.55390,43512
2.56323,52543
2.57258,66897
2.58192,67218
2.59125,63596
2.60060,65693
2.60993,77227
2.61927,130054
2.62862,165417
2.63795,145654
2.64730,121635
2.65663,100265
2.66597,73325
2.67532,55053
2.68465,44986
2.69398,40114
2.70333,38712
2.71267,66029
2.72200,155986
2.73135,223632
2.74068,189074
2.75002,127188
2.75937,95164
2.76870,91764
2.77803,102634
2.78738,111724
2.79672,101606
2.80607,80892
2.81540,68426
2.82473,63147
2.83408,71970
2.84342,186387
2.85275,592861
2.86210,1114044
2.87143,1062347
2.88077,610719
2.89012,281851
2.89945,137784
2.90878,83881
2.91813,63278
2.92747,51627
2.93680,46369
2.94615,41361
2.95548,38660
2.96482,37208
2.97417,35817
2.98350,37831
2.99285,42727
3.00218,47119
3.01152,57292
3.02087,118102
3.03020,268221
3.03953,298810
3.04888,214191
3.05822,141492
3.06755,105008
3.07690,81847
3.08623,65552
3.09557,52456
3.10492,40196
3.11425,37195
3.12358,35242
3.13293,36138
3.14227,44269
3.15160,79993
3.16095,139422
3.17028,149380
3.17963,103271
3.18897,64717
3.19830,45481
3.20765,38683
3.21698,34677
3.22632,32629
3.23567,29979
3.24500,30850
3.25433,30586
3.26368,30709
3.27302,30878
3.28235,27995
3.29170,29238
3.30103,30116
3.31037,30773
3.31972,29801
3.32905,29325
3.33838,30600
3.34773,30063
3.35707,30184
3.36642,30528
3.37575,28354
3.38508,29841
3.39443,28384
3.40377,33010
3.41310,37660
3.42245,41956
3.43178,40591
3.44112,38048
3.45047,36610
3.45980,35097
3.46913,33777
3.47848,31012
3.48782,30700
3.49715,29627
3.50650,29160
3.51583,28914
3.52517,29434
3.53452,29672
3.54385,44381
3.55320,88898
3.56253,175682
3.57187,229735
3.58122,185952
3.59055,115356
3.59988,85471
3.60923,76939
3.61857,60583
3.62790,52563
3.63725,44881
3.64658,41119
3.65592,37237
3.66527,33550
3.67460,34480
3.68393,33101
3.69328,31501
3.70262,31327
3.71197,33183
3.72130,36018
3.73063,39781
3.73998,35482
3.74932,31484
3.75865,29653
3.76800,27413
3.77733,27227
3.78667,27638
3.79602,30973
3.80535,35390
3.81468,38002
3.82403,41388
3.83337,39047
3.84270,35123
3.85205,34047
3.86138,32768
3.87072,31485
3.88007,34629
3.88940,36545
3.89875,42566
3.90808,44002
3.91742,41413
3.92677,37198
3.93610,39402
3.94543,42528
3.95478,41870
3.96412,39752
3.97345,34549
3.98280,30462
3.99213,28911
4.00147,29154
4.01082,29212
4.02015,31227
4.02948,59961
4.03883,120657
4.04817,183028
4.05750,171313
4.06685,113392
4.07618,73788
4.08553,64387
4.09487,62266
4.10420,53955
4.11355,41545
4.12288,35474
4.13222,31438
4.14157,31087
4.15090,29359
4.16023,30037
4.16958,30321
4.17892,27833
4.18825,25454
4.19760,28193
4.20693,28073
4.21627,30342
4.22562,29505
4.23495,27409
4.24428,27422
4.25363,28471
4.26297,29769
4.27232,29803
4.28165,29484
4.29098,28067
4.30033,25915
4.30967,28855
4.31900,31782
4.32835,35468
4.33768,32794
4.34702,31427
4.35637,30352
4.36570,27636
4.37503,27235
4.38438,27163
4.39372,27389
4.40305,27550
4.41240,23963
4.42173,23958
4.43108,23790
4.44042,24896
4.44975,26958
4.45910,28898
4.46843,32709
4.47777,37466
4.48712,40021
4.49645,35242
4.50578,32239
4.51513,27055
4.52447,26114
4.53380,26984
4.54315,26291
4.55248,26181
4.56182,27170
4.57117,25899
4.58050,25834
4.58983,26230
4.59918,24219
4.60852,26480
4.61787,26293
4.62720,25817
4.63653,26137
4.64588,26961
4.65522,27548
4.66455,27904
4.67390,29796
4.68323,32518
4.69257,43760
4.70192,53101
4.71125,51795
4.72058,43793
4.72993,35731
4.73927,32303
4.74860,31005
4.75795,27901
4.76728,26556
4.77662,27959
4.78597,27720
4.79530,27429
4.80465,27460
4.81398,29493
4.82332,32207
4.83267,30537
4.84200,28900
4.85133,28773
4.86068,30550
4.87002,36994
4.87935,44001
4.88870,41742
4.89803,36061
4.90737,30862
4.91672,29551
4.92605,27494
4.93538,31310
4.94473,31288
4.95407,29323
4.96340,26664
4.97275,26043
4.98208,24472
4.99143,25096
5.00077,26960
5.01010,26058
5.01945,28519
5.02878,30733
5.03812,30307
5.04747,29233
5.05680,26001
5.06613,24114
5.07548,24049
5.08482,27254
5.09415,26061
5.10350,25512
5.11283,24256
5.12217,24504
5.13152,25819
5.14085,25861
5.15018,26326
5.15953,25873
5.16887,24980
5.17822,28378
5.18755,28340
5.19688,27368
5.20623,26004
5.21557,23199
5.22490,24572
5.23425,26019
5.24358,26797
5.25292,27106
5.26227,30933
5.27160,47336
5.28093,86144
5.29028,123882
5.29962,116053
5.30895,77542
5.31830,48080
5.32763,36190
5.33698,31913
5.34632,27868
5.35565,25879
5.36500,25648
5.37433,24697
5.38367,26312
5.39302,31571
5.40235,30398
5.41168,29985
5.42103,27451
5.43037,26036
5.43970,23773
5.44905,22309
5.45838,24534
5.46772,23220
5.47707,24223
5.48640,24754
5.49573,24020
5.50508,25757
5.51442,25647
5.52377,29278
5.53310,29746
5.54243,29517
5.55178,27217
5.56112,25544
5.57045,25778
5.57980,24694
5.58913,24035
5.59847,22996
5.60782,23683
5.61715,23631
5.62648,22653
5.63583,23972
5.64517,24661
5.65450,23431
5.66385,24346
5.67318,24453
5.68252,24629
5.69187,24500
5.70120,25463
5.71055,28520
5.71988,26214
5.72922,25889
5.73857,26200
5.74790,27500
5.75723,29682
5.76658,29326
5.77592,26833
5.78525,24105
5.79460,24956
5.80393,23783
5.81327,24975
5.82262,25287
5.83195,27983
5.84128,29517
5.85063,27748
5.85997,26709
5.86930,25656
5.87865,24810
5.88798,26933
5.89733,26764
5.90667,29116
5.91600,36498
5.92535,51865
5.93468,50923
5.94402,41238
5.95337,35668
5.96270,31867
5.97203,27329
5.98138,23145
5.99072,24200
6.00005,23781
6.00940,22699
6.01873,23530
6.02807,21661
6.03742,21248
6.04675,18691
6.05610,16392
6.06543,14954
6.07477,14372
6.08412,13684
6.09345,11838
6.10278,11801
6.11213,12936
6.12147,16738
6.13080,22328
6.14015,24038
6.14948,22740
6.15882,16088
6.16817,11977
6.17750,11087
6.18683,11421
6.19618,11183
6.20552,10194
6.21485,10886
6.22420,10690
6.23353,12331
6.24288,12906
6.25222,12402
6.26155,14002
6.27090,17486
6.28023,19677
6.28957,15200
6.29892,12065
6.30825,10449
6.31758,9524
6.32693,9203
6.33627,9033
6.34560,9704
6.35495,8581
6.36428,10153
6.37362,13260
6.38297,24056
6.39230,81318
6.40163,242091
6.41098,428655
6.42032,414328
6.42967,215905
6.43900,72022
6.44833,24728
6.45768,15921
6.46702,13446
6.47635,12014
6.48570,11488
6.49503,12547
6.50437,11154
6.51372,11271
6.52305,12360
6.53238,11593
6.54173,10232
6.55107,10182
6.56040,9969
6.56975,10414
6.57908,10436
6.58842,10607
6.59777,10835
6.60710,11490
6.61645,10909
6.62578,11951
6.63512,12307
6.64447,11013
6.65380,12633
6.66313,12523
6.67248,12914
6.68182,11472
6.69115,12128
6.70050,13580
6.70983,12997
6.71917,11958
6.72852,11614
6.73785,10510
6.74718,9983
6.75653,10585
6.76587,10247
6.77520,10435
6.78455,11667
6.79388,13770
6.80323,16178
6.81257,13846
6.82190,11331
6.83125,10084
6.84058,9784
6.84992,9943
6.85927,9904
6.86860,8832
6.87793,10956
6.88728,9978
6.89662,10656
6.90595,11699
6.91530,11294
6.92463,11283
6.93397,10843
6.94332,11453
6.95265,11769
6.96198,11315
6.97133,11167
6.98067,10716
6.99002,9908
6.99935,10954
7.00868,11181
7.01803,10192
7.02737,12084
7.03670,9178
7.04605,9526
7.05538,9394
7.06472,9445
7.07407,9440
7.08340,8912
7.09273,9771
7.10208,10082
7.11142,11932
7.12075,12215
7.13010,11664
7.13943,10762
7.14878,11592
7.15812,9466
7.16745,9122
7.17680,10841
7.18613,10178
7.19547,10665
7.20482,11364
7.21415,11710
7.22348,18748
7.23283,31739
7.24217,45666
7.25150,40246
7.26085,26508
7.27018,20262
7.27952,16659
7.28887,15765
7.29820,14242
7.30753,12154
7.31688,9712
7.32622,8935
7.33557,9323
7.34490,9443
7.35423,9123
7.36358,10388
7.37292,12141
7.38225,16352
7.39160,31374
7.40093,62577
7.41027,87527
7.41962,80370
7.42895,52340
7.43828,29101
7.44763,17527
7.45697,12725
7.46630,12625
7.47565,13471
7.48498,14957
7.49432,13123
7.50367,11885
7.51300,10148
7.52235,10454
7.53168,10619
7.54102,10399
7.55037,10850
7.55970,11462
7.56903,13788
7.57838,12550
7.58772,11632
7.59705,10084
7.60640,10947
7.61573,11840
7.62507,11431
7.63442,11963
7.64375,12466
7.65308,11991
7.66243,10732
7.67177,12558
7.68112,24491
7.69045,87632
7.69978,219685
7.70913,314179
7.71847,233304
7.72780,98753
7.73715,30998
7.74648,15616
7.75582,13601
7.76517,13609
7.77450,13609
7.78383,16243
7.79318,16471
7.80252,14358
7.81185,11471
7.82120,11143
7.83053,12384
7.83987,11374
7.84922,14557
7.85855,23996
7.86790,36845
7.87723,37242
7.88657,27777
7.89592,22400
7.90525,27280
7.91458,44516
7.92393,51365
7.93327,40617
7.94260,30882
7.95195,27602
7.96128,24144
7.97062,20416
7.97997,19863
7.98930,18749
7.99863,17246
8.00798,14422
8.01732,13110
8.02665,12751
8.03600,17844
8.04533,21412
8.05468,21458
8.06402,16720
8.07335,14151
8.08270,14331
8.09203,18671
8.10137,19765
8.11072,17786
8.12005,15752
8.12938,13931
8.13873,14378
8.14807,14462
8.15740,13636
8.16675,13755
8.17608,14388
8.18542,13612
8.19477,12534
8.20410,13025
8.21343,13615
8.22278,11389
8.23212,13206
8.24147,12571
8.25080,12090
8.26013,12053
8.26948,12139
8.27882,12075
8.28815,11884
8.29750,11670
8.30683,11949
8.31617,11058
8.32552,11236
8.33485,10992
8.34418,11240
8.35353,11662
8.36287,11341
8.37220,11889
8.38155,11363
8.39088,12203
8.40022,13101
8.40957,14260
8.41890,15278
8.42825,14605
8.43758,12169
8.44692,13049
8.45627,12620
8.46560,13668
8.47493,13791
8.48428,12961
8.49362,14091
8.50295,13821
8.51230,11358
8.52163,13258
8.53097,11673
8.54032,13331
8.54965,13385
8.55898,13409
8.56833,14089
8.57767,13246
8.58700,13118
8.59635,15271
8.60568,14471
8.61503,15528
8.62437,15977
8.63370,14873
8.64305,15656
8.65238,14266
8.66172,15204
8.67107,14920
8.68040,14527
8.68973,14633
8.69908,15431
8.70842,14545
8.71775,14249
8.72710,14308
8.73643,14158
8.74577,17950
8.75512,19889
8.76445,18511
8.77380,16707
8.78313,16048
8.79247,26740
8.80182,49564
8.81115,62180
8.82048,51680
8.82983,32323
8.83917,18929
8.84850,15708
8.85785,14413
8.86718,15236
8.87652,15353
8.88587,14480
8.89520,15766
8.90453,15346
8.91388,15292
8.92322,15539
8.93255,16571
8.94190,14941
8.95123,14623
8.96058,13884
8.96992,13039
8.97925,13406
8.98860,13936
8.99793,13408
9.00727,14215
9.01662,13560
9.02595,13096
9.03528,13947
9.04463,13850
9.05397,14282
9.06330,14527
9.07265,15728
9.08198,18596
9.09132,19353
9.10067,18682
9.11000,15904
9.11933,17204
9.12868,19468
9.13802,22210
9.14737,20842
9.15670,16586
9.16603,15196
9.17538,14643
9.18472,14051
9.19405,15021
9.20340,15761
9.21273,19328
9.22207,28709
9.23142,35165
9.24075,34735
9.25008,24347
9.25943,18444
9.26877,13755
9.27810,13351
9.28745,12630
9.29678,14503
9.30612,14458
9.31547,17697
9.32480,23065
9.33415,25600
9.34348,21513
9.35282,25209
9.36217,43794
9.37150,69115
9.38083,72903
9.39018,61688
9.39952,42354
9.40885,31671
9.41820,26415
9.42753,24335
9.43687,21744
9.44622,17047
9.45555,15333
9.46488,13987
9.47423,14131
9.48357,15448
9.49292,16812
9.50225,17327
9.51158,16138
9.52093,15074
9.53027,16355
9.53960,19168
9.54895,21465
9.55828,26489
9.56762,31711
9.57697,24438
9.58630,21935
9.59563,22071
9.60498,19685
9.61432,17522
9.62365,15025
9.63300,13843
9.64233,14409
9.65167,14315
9.66102,15130
9.67035,14824
9.67970,15548
9.68903,15258
9.69837,14538
9.70772,15279
9.71705,25651
9.72638,66848
9.73573,165175
9.74507,294973
9.75440,343716
9.76375,252710
9.77308,158404
9.78242,105773
9.79177,77778
9.80110,62407
9.81043,53137
9.81978,50125
9.82912,54415
9.83845,52417
9.84780,53867
9.85713,43940
9.86648,39039
9.87582,35529
9.88515,42828
9.89450,46131
9.90383,48503
9.91317,46800
9.92252,46084
9.93185,37096
9.94118,28844
9.95053,26056
9.95987,35650
9.96920,90439
9.97855,250231
9.98788,391889
9.99722,330440
10.00657,158066
10.01590,59322
10.02523,30198
10.03458,25249
10.04392,24352
10.05327,25566
10.06260,30690
10.07193,33796
10.08128,31346
10.09062,26340
10.09995,37121
10.10930,111815
10.11863,302956
10.12797,455027
10.13732,412452
10.14665,466029
10.15598,1074297
10.16533,1500706
10.17467,1027985
10.18400,354784
10.19335,85607
10.20268,34597
10.21202,27764
10.22137,23210
10.23070,24788
10.24005,24016
10.24938,26557
10.25872,23656
10.26807,20166
10.27740,20688
10.28673,20587
10.29608,20047
10.30542,19738
10.31475,19576
10.32410,18705
10.33343,17594
10.34277,17651
10.35212,17594
10.36145,17476
10.37078,18061
10.38013,17332
10.38947,16576
10.39882,16551
10.40815,18221
10.41748,22674
10.42683,23051
10.43617,24770
10.44550,29270
10.45485,39667
10.46418,42204
10.47352,31780
10.48287,21824
10.49220,17149
10.50153,15903
10.51088,15495
10.52022,15085
10.52955,15957
10.53890,15874
10.54823,17282
10.55757,16806
10.56692,16771
10.57625,18050
10.58560,15882
10.59493,14810
10.60427,14530
10.61362,14880
10.62295,17665
10.63228,18888
10.64163,18702
10.65097,17385
10.66030,15801
10.66965,17900
10.67898,18748
10.68832,17271
10.69767,20934
10.70700,29188
10.71633,35971
10.72568,34573
10.73502,25923
10.74435,33861
10.75370,64799
10.76303,98275
10.77238,105355
10.78172,90561
10.79105,101086
10.80040,145071
10.80973,138010
10.81907,82261
10.82842,41140
10.83775,27634
10.84708,22657
10.85643,23541
10.86577,25452
10.87510,26950
10.88445,27679
10.89378,25934
10.90312,23212
10.91247,23352
10.92180,22907
10.93113,24958
10.94048,25301
10.94982,25386
10.95917,21207
10.96850,19151
10.97783,17688
10.98718,17153
10.99652,16027
11.00585,15554
11.01520,14406
11.02453,14834
11.03387,16136
11.04322,15696
11.05255,15586
11.06188,14748
11.07123,14902
11.08057,13842
11.08990,13964
11.09925,15536
11.10858,16247
11.11793,16473
11.12727,16485
11.13660,15660
11.14595,16050
11.15528,16055
11.16462,15773
11.17397,15512
11.18330,14266
11.19263,15667
11.20198,16214
11.21132,18249
11.22065,19707
11.23000,18120
11.23933,15195
11.24867,15984
11.25802,17119
11.26735,17655
11.27668,15681
11.28603,17099
11.29537,16087
11.30472,15887
11.31405,15685
11.32338,15858
11.33273,21285
11.34207,27116
11.35140,30373
11.36075,28453
11.37008,21095
11.37942,18472
11.38877,20277
11.39810,23468
11.40743,28453
11.41678,26540
11.42612,22289
11.43545,16731
11.44480,15017
11.45413,18293
11.46347,22879
11.47282,25584
11.48215,21944
11.49150,16274
11.50083,14857
11.51017,15013
11.51952,13344
11.52885,13404
11.53818,13225
11.54753,15573
11.55687,19422
11.56620,30253
11.57555,38444
11.58488,36452
11.59422,29419
11.60357,25196
11.61290,22415
11.62223,19294
11.63158,19273
11.64092,19754
11.65025,23830
11.65960,30453
11.66893,30704
11.67828,27944
11.68762,26717
11.69695,22821
11.70630,23938
11.71563,23537
11.72497,24250
11.73432,23142
11.74365,20739
11.75298,18824
11.76233,17904
11.77167,20694
11.78100,20575
11.79035,20470
11.79968,18591
11.80902,18731
11.81837,19084
11.82770,18817
11.83703,17259
11.84638,17465
11.85572,17084
11.86507,16798
11.87440,18195
11.88373,18281
11.89308,18452
11.90242,18402
11.91175,15679
11.92110,18807
11.93043,21799
11.93977,27512
11.94912,27217
11.95845,23683
11.96778,20008
11.97713,17745
11.98647,19193
11.99580,20688
12.00515,25039
12.01448,26964
12.02383,24345
12.03317,21074
12.04250,19140
12.05185,17080
12.06118,16541
12.07052,15890
12.07987,16888
12.08920,16789
12.09853,16320
12.10788,17406
12.11722,15727
12.12655,16358
12.13590,16258
12.14523,18903
12.15457,24339
12.16392,45033
12.17325,71314
12.18258,67330
12.19193,40301
12.20127,23352
12.21062,21196
12.21995,23001
12.22928,25420
12.23863,22970
12.24797,20177
12.25730,20279
12.26665,24709
12.27598,34002
12.28532,37328
12.29467,30112
12.30400,21770
12.31333,19203
12.32268,18534
12.33202,21348
12.34135,20956
12.35070,20719
12.36003,17408
12.36937,16486
12.37872,17755
12.38805,18321
12.39740,17507
12.40673,17276
12.41607,17625
12.42542,16492
12.43475,16921
12.44408,16622
12.45343,17091
12.46277,19752
12.47210,20023
12.48145,20053
12.49078,18651
12.50012,18740
12.50947,19575
12.51880,18767
12.52813,19626
12.53748,18841
12.54682,19853
12.55615,23439
12.56550,23164
12.57483,20582
12.58418,19267
12.59352,16499
12.60285,18201
12.61220,18063
12.62153,21778
12.63087,23361
12.64022,25472
12.64955,24606
12.65888,24071
12.66823,21039
12.67757,17634
12.68690,14365
12.69625,15060
12.70558,17090
12.71492,18901
12.72427,18915
12.73360,17191
12.74295,18851
12.75228,17996
12.76162,18372
12.77097,17006
12.78030,15150
12.78963,15130
12.79898,16124
12.80832,16189
12.81765,16427
12.82700,16311
12.83633,17282
12.84567,17105
12.85502,15594
12.86435,16092
12.87368,15380
12.88303,16052
12.89237,16088
12.90170,15508
12.91105,15363
12.92038,14932
12.92973,14332
12.93907,15374
12.94840,15900
12.95775,15589
12.96708,15031
12.97642,14563
12.98577,13886
12.99510,13610
13.00443,14167
13.01378,15770
13.02312,20072
13.03245,19400
13.04180,19600
13.05113,16989
13.06047,17559
13.06982,17583
13.07915,18135
13.08848,17399
13.09783,18166
13.10717,15697
13.11652,16455
13.12585,17274
13.13518,19138
13.14453,19707
13.15387,19388
13.16320,18747
13.17255,19453
13.18188,24766
13.19122,46889
13.20057,96259
13.20990,128224
13.21923,101776
13.22858,59055
13.23792,45041
13.24725,40801
13.25660,33314
13.26593,23610
13.27527,21892
13.28462,19954
13.29395,19526
13.30330,20794
13.31263,21449
13.32197,24527
13.33132,21908
13.34065,20178
13.34998,19597
13.35933,18920
13.36867,17810
13.37800,18634
13.38735,22031
13.39668,24699
13.40602,22021
13.41537,19373
13.42470,19028
13.43403,20440
13.44338,20169
13.45272,18336
13.46205,19491
13.47140,21286
13.48073,20223
13.49008,18416
13.49942,19334
13.50875,27213
13.51810,42230
13.52743,48364
13.53677,36367
13.54612,25055
13.55545,19531
13.56478,17349
13.57413,17759
13.58347,16429
13.59280,17035
13.60215,16903
13.61148,16543
13.62082,16372
13.63017,17705
13.63950,19372
13.64883,18269
13.65818,20474
13.66752,20048
13.67687,16761
13.68620,15143
13.69553,14973
13.70488,14832
13.71422,15273
13.72355,14428
13.73290,15551
13.74223,14946
13.75157,14739
13.76092,16920
13.77025,14998
13.77958,16838
13.78893,17906
13.79827,20039
13.80760,20750
13.81695,19327
13.82628,17558
13.83563,16688
13.84497,16840
13.85430,18161
13.86365,18218
13.87298,19265
13.88232,27347
13.89167,41079
13.90100,79123
13.91033,129392
13.91968,138412
13.92902,86068
13.93835,39874
13.94770,26584
13.95703,24689
13.96637,22327
13.97572,21153
13.98505,20439
13.99438,19823
14.00373,21798
14.01307,19062
14.02242,18826
14.03175,39866
14.04108,237452
14.05043,1429871
14.05977,3750913
14.06910,4959924
14.07845,3217081
14.08778,983724
14.09712,176213
14.10647,51641
14.11580,34961
14.12513,30392
14.13448,29174
14.14382,30939
14.15315,33361
14.16250,33189
14.17183,30898
14.18117,28746
14.19052,30734
14.19985,32409
14.20920,27654
14.21853,23185
14.22787,22011
14.23722,20718
14.24655,20596
14.25588,21644
14.26523,22033
14.27457,21719
14.28390,19510
14.29325,19821
14.30258,22567
14.31192,28372
14.32127,36638
14.33060,37441
14.33993,30198
14.34928,24019
14.35862,19453
14.36797,20038
14.37730,19983
14.38663,22580
14.39598,20796
14.40532,20011
14.41465,18858
14.42400,19072
14.43333,19210
14.44267,21363
14.45202,29870
14.46135,39714
14.47068,40794
14.48003,33124
14.48937,26307
14.49870,22853
14.50805,21381
14.51738,21210
14.52672,20750
14.53607,22415
14.54540,21337
14.55475,22280
14.56408,22945
14.57342,22336
14.58277,19728
14.59210,21467
14.60143,19759
14.61078,19241
14.62012,18469
14.62945,21892
14.63880,21297
14.64813,23789
14.65747,27015
14.66682,26701
14.67615,24749
14.68548,22338
14.69483,21433
14.70417,20613
14.71350,18650
14.72285,20625
14.73218,22827
14.74153,21980
14.75087,21728
14.76020,20898
14.76955,19121
14.77888,20965
14.78822,21325
14.79757,22481
14.80690,21068
14.81623,23339
14.82558,23593
14.83492,23655
14.84425,31733
14.85360,38179
14.86293,41326
14.87227,36682
14.88162,26047
14.89095,22750
14.90028,21075
14.90963,21840
14.91897,22264
14.92832,23087
14.93765,20542
14.94698,20294
14.95633,22578
14.96567,23494
14.97500,24698
14.98435,23553
14.99368,26789
15.00302,34800
15.01237,35631
15.02170,31564
15.03103,29940
15.04038,35902
15.04972,36844
15.05905,33078
15.06840,29574
15.07773,25761
15.08707,21104
15.09642,21622
15.10575,22947
15.11510,31013
15.12443,40484
15.13377,40683
15.14312,31627
15.15245,24408
15.16178,20303
15.17113,21422
15.18047,22386
15.18980,28305
15.19915,41972
15.20848,57794
15.21782,60324
15.22717,49988
15.23650,36375
15.24583,26978
15.25518,24178
15.26452,24741
15.27385,25579
15.28320,24283
15.29253,22979
15.30188,24359
15.31122,25706
15.32055,33531
15.32990,38551
15.33923,32219
15.34857,28967
15.35792,31148
15.36725,33954
15.37658,32217
15.38593,27513
15.39527,23758
15.40460,22183
15.41395,24792
15.42328,24758
15.43262,23571
15.44197,21283
15.45130,20597
15.46065,22261
15.46998,24553
15.47932,23977
15.48867,25996
15.49800,34097
15.50733,44398
15.51668,50161
15.52602,42114
15.53535,30683
15.54470,23266
15.55403,21393
15.56337,21417
15.57272,22455
15.58205,21185
15.59138,23912
15.60073,23971
15.61007,25472
15.61940,27720
15.62875,33342
15.63808,35438
15.64743,34266
15.65677,34682
15.66610,32106
15.67545,27742
15.68478,27993
15.69412,33498
15.70347,39824
15.71280,38576
15.72213,34468
15.73148,31320
15.74082,34883
15.75015,37901
15.75950,36859
15.76883,33810
15.77817,32756
15.78752,29124
15.79685,31394
15.80618,42853
15.81553,84306
15.82487,199049
15.83422,366968
15.84355,395277
15.85288,246015
15.86223,115936
15.87157,68339
15.88090,59738
15.89025,61735
15.89958,59351
15.90892,54190
15.91827,45605
15.92760,39674
15.93693,34404
15.94628,33532
15.95562,33216
15.96495,35846
15.97430,44114
15.98363,50845
15.99297,51630
16.00232,44442
16.01165,36063
16.02100,32469
16.03033,33379
16.03967,35189
16.04902,38640
16.05835,37904
16.06768,36903
16.07703,37785
16.08637,33501
16.09570,32030
16.10505,33108
16.11438,34815
16.12372,36266
16.13307,34496
16.14240,34189
16.15173,34095
16.16108,33913
16.17042,29279
16.17977,27590
16.18910,28239
16.19843,29879
16.20778,35304
16.21712,34973
16.22645,38255
16.23580,42431
16.24513,44252
16.25447,40310
16.26382,41017
16.27315,52816
16.28248,83325
16.29183,129136
16.30117,136499
16.31050,95363
16.31985,55279
16.32918,40601
16.33852,30870
16.34787,27546
16.35720,25740
16.36655,23322
16.37588,26223
16.38522,29126
16.39457,31764
16.40390,37188
16.41323,38509
16.42258,35979
16.43192,33678
16.44125,35232
16.45060,35881
16.45993,35286
16.46927,31725
16.47862,30854
16.48795,30599
16.49728,30119
16.50663,29028
16.51597,31170
16.52530,29855
16.53465,28501
16.54398,28456
16.55333,24982
16.56267,26598
16.57200,28586
16.58135,27617
16.59068,28543
16.60002,27395
16.60937,31458
16.61870,37297
16.62803,36435
16.63738,37402
16.64672,32658
16.65605,30983
16.66540,29361
16.67473,31896
16.68407,38802
16.69342,44879
16.70275,41218
16.71208,36011
16.72143,32267
16.73077,40327
16.74012,62417
16.74945,76649
16.75878,60991
16.76813,41129
16.77747,32252
16.78680,29634
16.79615,28532
16.80548,30475
16.81482,35232
16.82417,41345
16.83350,40676
16.84283,36320
16.85218,30259
16.86152,27900
16.87085,26589
16.88020,26969
16.88953,30896
16.89887,41145
16.90822,52543
16.91755,53884
16.92690,47741
16.93623,44898
16.94557,44858
16.95492,44962
16.96425,41274
16.97358,35450
16.98293,29125
16.99227,28339
17.00160,28621
17.01095,33710
17.02028,52283
17.02962,66908
17.03897,60570
17.04830,47473
17.05763,38032
17.06698,35467
17.07632,32999
17.08565,31891
17.09500,30342
17.10433,31905
17.11368,33591
17.12302,35368
17.13235,40231
17.14170,38266
17.15103,31934
17.16037,30739
17.16972,26633
17.17905,27421
17.18838,27474
17.19773,24609
17.20707,26468
17.21640,25229
17.22575,26209
17.23508,26545
17.24442,26452
17.25377,27645
17.26310,29033
17.27245,30121
17.28178,32144
17.29112,28940
17.30047,27731
17.30980,31657
17.31913,36764
17.32848,36347
17.33782,33738
17.34715,30132
17.35650,33821
17.36583,49405
17.37517,89842
17.38452,117781
17.39385,98841
17.40318,60376
17.41253,47093
17.42187,41709
17.43120,40129
17.44055,39198
17.44988,37820
17.45923,34960
17.46857,35435
17.47790,62348
17.48725,248346
17.49658,1068861
17.50592,2198079
17.51527,2249394
17.52460,1057515
17.53393,275940
17.54328,77338
17.55262,46618
17.56195,44204
17.57130,42719
17.58063,43990
17.58997,42545
17.59932,39651
17.60865,36239
17.61798,32973
17.62733,35081
17.63667,35208
17.64602,36169
17.65535,42306
17.66468,43004
17.67403,39396
17.68337,44287
17.69270,49434
17.70205,45787
17.71138,45390
17.72072,37857
17.73007,36459
17.73940,39526
17.74873,40503
17.75808,43321
17.76742,43525
17.77675,37871
17.78610,30569
17.79543,28453
17.80477,28205
17.81412,33068
17.82345,33154
17.83280,32280
17.84213,36130
17.85147,42079
17.86082,47421
17.87015,44391
17.87948,42416
17.88883,40090
17.89817,34713
17.90750,29909
17.91685,27813
17.92618,25929
17.93552,27433
17.94487,30132
17.95420,33517
17.96353,33427
17.97288,34049
17.98222,30420
17.99157,28381
18.00090,27447
18.01023,27138
18.01958,26209
18.02892,26723
18.03825,28867
18.04760,36117
18.05693,36473
18.06627,31687
18.07562,28317
18.08495,28632
18.09428,30856
18.10363,32513
18.11297,32596
18.12230,34356
18.13165,36224
18.14098,35530
18.15032,35420
18.15967,36638
18.16900,34682
18.17835,31158
18.18768,28282
18.19702,27364
18.20637,28786
18.21570,29003
18.22503,30767
18.23438,29121
18.24372,26465
18.25305,26484
18.26240,29103
18.27173,33604
18.28107,36312
18.29042,38103
18.29975,39588
18.30908,38598
18.31843,38730
18.32777,43657
18.33710,50106
18.34645,55099
18.35578,52269
18.36513,41328
18.37447,33029
18.38380,29642
18.39315,29573
18.40248,30728
18.41182,32312
18.42117,37112
18.43050,38942
18.43983,43921
18.44918,40691
18.45852,32691
18.46785,30381
18.47720,33260
18.48653,42559
18.49587,58636
18.50522,69138
18.51455,68811
18.52388,55697
18.53323,45540
18.54257,42190
18.55192,40395
18.56125,36764
18.57058,30218
18.57993,27050
18.58927,29987
18.59860,33839
18.60795,39095
18.61728,38808
18.62662,39852
18.63597,38015
18.64530,32772
18.65463,32092
18.66398,31236
18.67332,31652
18.68265,30018
18.69200,31523
18.70133,36630
18.71067,39437
18.72002,39135
18.72935,39566
18.73870,36753
18.74803,32151
18.75737,29518
18.76672,26937
18.77605,24108
18.78538,26553
18.79473,28681
18.80407,32742
18.81340,30985
18.82275,30172
18.83208,27627
18.84142,27083
18.85077,26553
18.86010,25811
18.86943,26963
18.87878,24545
18.88812,30070
18.89747,37683
18.90680,44570
18.91613,42837
18.92548,38229
18.93482,35882
18.94415,43056
18.95350,47574
18.96283,46901
18.97217,43534
18.98152,39859
18.99085,33975
19.00018,29516
19.00953,31819
19.01887,34571
19.02820,37683
19.03755,51013
19.04688,72635
19.05622,76541
19.06557,83635
19.07490,120106
19.08425,147602
19.09358,124419
19.10292,73891
19.11227,46373
19.12160,36570
19.13093,30884
19.14028,28418
19.14962,26857
19.15895,28568
19.16830,29001
19.17763,32820
19.18697,36745
19.19632,38501
19.20565,46002
19.21498,45043
19.22433,40549
19.23367,35156
19.24300,31892
19.25235,27706
19.26168,28305
19.27103,29454
19.28037,28083
19.28970,33645
19.29905,35816
19.30838,40508
19.31772,41613
19.32707,37361
19.33640,30889
19.34573,28334
19.35508,27402
19.36442,27043
19.37375,26094
19.38310,28738
19.39243,33973
19.40177,38627
19.41112,33912
19.42045,31768
19.42978,26572
19.43913,24428
19.44847,25502
19.45782,25151
19.46715,27455
19.47648,29866
19.48583,33178
19.49517,31705
19.50450,26985
19.51385,26206
19.52318,25671
19.53252,26746
19.54187,26050
19.55120,23750
19.56053,26183
19.56988,28836
19.57922,29774
19.58855,31596
19.59790,28626
19.60723,25463
19.61658,29705
19.62592,32638
19.63525,33588
19.64460,30793
19.65393,27087
19.66327,26577
19.67262,26783
19.68195,25777
19.69128,25276
19.70063,29575
19.70997,35224
19.71930,47742
19.72865,54460
19.73798,47922
19.74732,36470
19.75667,31671
19.76600,29783
19.77533,34855
19.78468,34714
19.79402,32282
19.80337,29086
19.81270,31233
19.82203,31070
19.83138,27219
19.84072,22681
19.85005,28254
19.85940,35274
19.86873,47315
19.87807,48112
19.88742,38968
19.89675,32920
19.90608,31630
19.91543,31678
19.92477,28556
19.93410,26157
19.94345,25990
19.95278,28047
19.96212,27941
19.97147,26922
19.98080,24739
19.99015,23715
19.99948,26630
20.00882,27311
20.01817,28363
20.02750,32920
20.03683,34328
20.04618,31424
20.05552,27645
20.06485,27982
20.07420,28046
20.08353,26759
20.09287,25977
20.10222,25242
20.11155,22224
20.12088,22420
20.13023,28161
20.13957,38064
20.14890,44614
20.15825,42858
20.16758,35111
20.17693,28159
20.18627,25792
20.19560,26632
20.20495,24229
20.21428,25398
20.22362,23959
20.23297,22603
20.24230,23075
20.25163,24089
20.26098,24569
20.27032,23786
20.27965,25236
20.28900,25329
20.29833,24006
20.30767,23024
20.31702,21831
20.32635,22001
20.33568,21799
20.34503,23565
20.35437,25502
20.36372,25550
20.37305,25030
20.38238,24019
20.39173,22940
20.40107,23356
20.41040,22720
20.41975,23475
20.42908,24412
20.43842,23384
20.44777,26178
20.45710,32577
20.46643,37949
20.47578,35688
20.48512,28094
20.49445,26023
20.50380,24751
20.51313,24105
20.52248,22526
20.53182,23274
20.54115,26583
20.55050,48369
20.55983,131348
20.56917,266402
20.57852,302118
20.58785,170897
20.59718,72108
20.60653,39782
20.61587,33824
20.62520,31632
20.63455,32012
20.64388,33408
20.65322,36317
20.66257,37513
20.67190,36848
20.68123,35917
20.69058,35268
20.69992,33140
20.70927,31494
20.71860,30323
20.72793,29474
20.73728,28697
20.74662,26106
20.75595,26227
20.76530,23527
20.77463,23449
20.78397,25104
20.79332,28736
20.80265,29744
20.81198,26855
20.82133,25088
20.83067,25392
20.84000,22756
20.84935,25438
20.85868,22599
20.86802,23787
20.87737,26602
20.88670,24310
20.89605,25731
20.90538,25371
20.91472,23421
20.92407,22708
20.93340,22415
20.94273,22340
20.95208,22386
20.96142,22478
20.97075,21988
20.98010,20859
20.98943,22110
20.99877,22751
21.00812,22221
21.01745,23058
21.02678,22565
21.03613,21149
21.04547,23708
21.05480,23321
21.06415,21763
21.07348,21887
21.08283,23301
21.09217,25896
21.10150,26570
21.11085,27877
21.12018,30330
21.12952,30307
21.13887,30528
21.14820,27966
21.15753,27458
21.16688,23746
21.17622,26190
21.18555,30695
21.19490,31893
21.20423,31138
21.21357,31176
21.22292,31647
21.23225,28459
21.24160,26984
21.25093,28599
21.26027,37642
21.26962,49633
21.27895,59553
21.28828,55064
21.29763,44411
21.30697,32829
21.31630,27982
21.32565,26137
21.33498,25051
21.34432,23259
21.35367,25247
21.36300,25279
21.37233,25094
21.38168,24368
21.39102,27293
21.40035,34770
21.40970,44014
21.41903,43634
21.42838,36708
21.43772,30081
21.44705,26876
21.45640,27443
21.46573,30100
21.47507,31996
21.48442,32341
21.49375,30202
21.50308,26002
21.51243,26092
21.52177,24978
21.53110,25094
21.54045,23947
21.54978,25390
21.55912,27831
21.56847,29297
21.57780,33067
21.58713,33355
21.59648,29641
21.60582,26577
21.61517,26345
21.62450,24837
21.63383,23849
21.64318,25803
21.65252,22400
21.66185,24041
21.67120,26569
21.68053,26931
21.68987,26246
21.69922,25364
21.70855,25113
21.71788,28801
21.72723,29914
21.73657,27624
21.74590,26518
21.75525,25178
21.76458,23429
21.77392,21902
21.78327,22867
21.79260,24604
21.80195,26686
21.81128,29913
21.82062,30742
21.82997,29937
21.83930,26847
21.84863,24950
21.85798,25219
21.86732,25928
21.87665,30402
21.88600,31891
21.89533,33196
21.90467,32071
21.91402,32932
21.92335,29007
21.93268,29407
21.94203,27798
21.95137,27753
21.96070,31918
21.97005,43492
21.97938,60946
21.98873,65771
21.99807,50840
22.00740,36781
22.01675,30185
22.02608,30614
22.03542,30457
22.04477,28541
22.05410,29859
22.06343,31366
22.07278,33512
22.08212,32757
22.09145,31018
22.10080,29585
22.11013,29915
22.11947,27857
22.12882,26663
22.13815,28875
22.14748,30606
22.15683,35424
22.16617,39306
22.17552,34347
22.18485,29645
22.19418,25634
22.20353,23597
22.21287,22651
22.22220,23787
22.23155,25578
22.24088,24134
22.25022,23502
22.25957,25917
22.26890,25331
22.27823,28751
22.28758,31203
22.29692,28200
22.30625,27310
22.31560,24587
22.32493,25526
22.33428,23536
22.34362,25758
22.35295,27731
22.36230,25346
22.37163,25319
22.38097,26694
22.39032,27798
22.39965,25066
22.40898,23852
22.41833,24463
22.42767,24894
22.43700,25777
22.44635,26586
22.45568,26519
22.46502,24749
22.47437,25292
22.48370,26000
22.49303,24423
22.50238,25786
22.51172,28192
22.52107,26279
22.53040,24336
22.53973,23988
22.54908,23816
22.55842,25316
22.56775,27550
22.57710,28794
22.58643,27275
22.59577,27204
22.60512,26975
22.61445,26470
22.62378,25353
22.63313,25520
22.64247,24660
22.65180,22518
22.66115,21547
22.67048,23937
22.67982,27806
22.68917,30770
22.69850,27689
22.70785,25855
22.71718,26272
22.72652,24812
22.73587,28788
22.74520,28408
22.75453,28172
22.76388,26850
22.77322,26810
22.78255,25054
22.79190,24661
22.80123,24759
22.81057,25948
22.81992,25492
22.82925,26224
22.83858,27522
22.84793,27335
22.85727,26377
22.86660,24775
22.87595,25050
22.88528,24976
22.89463,25496
22.90397,22899
22.91330,24630
22.92265,24178
22.93198,23864
22.94132,30439
22.95067,34718
22.96000,32439
22.96933,25727
22.97868,22832
22.98802,23292
22.99735,23017
23.00670,21897
23.01603,22698
23.02537,21510
23.03472,22546
23.04405,22058
23.05340,22203
23.06273,22848
23.07207,22493
23.08142,20703
23.09075,21104
23.10008,22681
23.10943,22336
23.11877,22558
23.12810,23045
23.13745,21687
23.14678,22290
23.15612,22885
23.16547,25850
23.17480,23851
23.18413,22921
23.19348,21630
23.20282,21583
23.21215,22203
23.22150,21913
23.23083,24160
23.24018,25821
23.24952,25467
23.25885,24766
23.26820,24254
23.27753,24231
23.28687,25651
23.29622,24492
23.30555,28923
23.31488,40551
23.32423,60721
23.33357,66128
23.34290,50779
23.35225,34084
23.36158,26951
23.37092,25699
23.38027,25259
23.38960,26736
23.39893,28105
23.40828,28236
23.41762,25735
23.42697,25579
23.43630,26704
23.44563,25889
23.45498,26107
23.46432,25616
23.47365,27379
23.48300,25962
23.49233,25580
23.50167,23831
23.51102,22794
23.52035,23359
23.52968,24719
23.53903,23592
23.54837,23749
23.55770,26201
23.56705,24325
23.57638,23667
23.58572,22760
23.59507,23150
23.60440,22450
23.61375,21977
23.62308,21524
23.63242,21638
23.64177,21869
23.65110,23003
23.66043,24889
23.66978,27928
23.67912,29380
23.68845,26564
23.69780,23393
23.70713,23664
23.71647,24657
23.72582,23371
23.73515,25042
23.74448,23518
23.75383,21667
23.76317,22728
23.77250,22191
23.78185,24150
23.79118,23947
23.80053,23034
23.80987,22671
23.81920,21705
23.82855,22542
23.83788,21587
23.84722,21733
23.85657,23201
23.86590,24690
23.87523,24037
23.88458,23993
23.89392,23449
23.90325,22349
23.91260,22486
23.92193,22485
23.93127,22193
23.94062,22996
23.94995,22191
23.95930,22928
23.96863,21215
23.97797,21499
23.98732,21200
23.99665,22987
24.00598,21258
24.01533,21678
24.02467,19703
24.03400,19417
24.04335,21502
24.05268,20769
24.06202,20950
24.07137,21843
24.08070,22566
24.09003,22783
24.09938,22058
24.10872,22089
24.11805,22352
24.12740,22306
24.13673,21979
24.14608,22904
24.15542,25818
24.16475,29998
24.17410,31120
24.18343,29673
24.19277,25546
24.20212,23164
24.21145,24136
24.22078,23719
24.23013,24734
24.23947,23577
24.24880,23013
24.25815,23391
24.26748,22420
24.27682,22118
24.28617,20423
24.29550,20743
24.30483,20912
24.31418,23121
24.32352,23041
24.33287,23367
24.34220,21944
24.35153,21396
24.36088,21185
24.37022,21889
24.37955,22483
24.38890,21873
24.39823,23498
24.40757,23064
24.41692,20849
24.42625,22873
24.43558,20172
24.44493,21563
24.45427,22612
24.46360,22380
24.47295,23854
24.48228,21916
24.49162,22680
24.50097,22264
24.51030,22141
24.51965,22878
24.52898,23396
24.53832,22913
24.54767,24593
24.55700,22321
24.56633,23976
24.57568,23291
24.58502,23786
24.59435,23751
24.60370,26971
24.61303,25351
24.62237,24645
24.63172,23375
24.64105,21939
24.65038,21985
24.65973,22852
24.66907,22294
24.67842,21380
24.68775,22121
24.69708,22156
24.70643,22271
24.71577,21931
24.72510,22372
24.73445,22464
24.74378,20725
24.75312,21973
24.76247,24071
24.77180,23490
24.78113,22202
24.79048,21602
24.79982,21383
24.80915,23083
24.81850,21831
24.82783,21570
24.83717,21831
24.84652,23351
24.85585,21999
24.86520,22766
24.87453,22018
24.88387,22233
24.89322,22332
24.90255,20949
24.91188,22702
24.92123,21816
24.93057,22037
24.93990,22266
24.94925,22601
24.95858,24479
24.96792,22574
24.97727,21859
24.98660,22041
24.99593,22221
25.00528,21245
25.01462,22999
25.02395,22726
25.03330,22660
25.04263,21148
25.05198,20940
25.06132,21618
25.07065,20839
25.08000,20770
25.08933,22020
25.09867,20518
25.10802,23055
25.11735,22752
25.12668,23337
25.13603,23777
25.14537,22588
25.15470,22198
25.16405,22723
25.17338,24667
25.18272,24939
25.19207,22590
25.20140,22268
25.21073,23633
25.22008,21183
25.22942,23981
25.23877,24522
25.24810,23515
25.25743,22875
25.26678,22590
25.27612,21575
25.28545,21402
25.29480,22146
25.30413,23267
25.31347,24679
25.32282,28737
25.33215,36281
25.34148,41877
25.35083,40026
25.36017,36757
25.36950,33938
25.37885,30445
25.38818,30083
25.39752,28098
25.40687,29199
25.41620,26888
25.42555,28075
25.43488,27098
25.44422,27032
25.45357,25015
25.46290,26146
25.47223,25942
25.48158,28605
25.49092,30546
25.50025,30666
25.50960,28064
25.51893,25803
25.52827,24241
25.53762,24612
25.54695,25523
25.55628,23362
25.56563,25038
25.57497,22557
25.58430,22794
25.59365,23864
25.60298,23764
25.61233,25235
25.62167,24548
25.63100,26069
25.64035,26713
25.64968,26381
25.65902,26355
25.66837,24545
25.67770,25744
25.68703,26658
25.69638,25500
25.70572,26269
25.71505,24751
25.72440,26608
25.73373,24386
25.74307,24538
25.75242,25295
25.76175,24375
25.77110,25599
25.78043,24809
25.78977,23567
25.79912,24490
25.80845,24260
25.81778,26863
25.82713,29079
25.83647,27907
25.84580,27321
25.85515,26080
25.86448,25556
25.87382,24757
25.88317,25252
25.89250,25537
25.90183,26060
25.91118,25763
25.92052,25345
25.92985,26601
25.93920,27613
25.94853,25410
25.95788,26298
25.96722,26267
25.97655,25129
25.98590,26167
25.99523,25793
26.00457,25612
26.01392,27087
26.02325,27329
26.03258,25794
26.04193,23316
26.05127,26086
26.06060,25468
26.06995,25466
26.07928,25744
26.08862,26317
26.09797,26849
26.10730,24545
26.11663,25191
26.12598,28739
26.13532,28852
26.14467,28964
26.15400,26828
26.16333,25701
26.17268,25587
26.18202,25494
26.19135,24848
26.20070,27687
26.21003,25172
26.21937,25474
26.22872,27389
26.23805,26677
26.24738,27353
26.25673,25025
26.26607,25363
26.27540,26688
26.28475,25837
26.29408,27127
26.30342,27026
26.31277,25899
26.32210,26011
26.33145,27966
26.34078,25284
26.35012,26320
26.35947,25760
26.36880,24208
26.37813,26914
26.38748,25731
26.39682,25166
26.40615,26969
26.41550,27729
26.42483,26831
26.43417,29521
26.44352,27642
26.45285,29858
26.46218,26328
26.47153,27053
26.48087,25861
26.49022,26097
26.49955,26575
26.50888,28078
26.51823,26837
26.52757,27817
26.53690,27707
26.54625,25894
26.55558,25301
26.56492,28616
26.57427,29086
26.58360,28005
26.59293,28655
26.60228,27511
26.61162,29204
26.62095,30303
26.63030,32519
26.63963,32406
26.64897,34853
26.65832,34508
26.66765,35047
26.67700,32584
26.68633,29180
26.69567,29427
26.70502,27626
26.71435,27573
26.72368,27008
26.73303,29212
26.74237,30727
26.75170,28204
26.76105,27282
26.77038,28023
26.77972,27903
26.78907,28125
26.79840,28290
26.80773,27105
26.81708,28628
26.82642,26608
26.83575,27641
26.84510,29390
26.85443,28242
26.86378,28367
26.87312,30865
26.88245,27822
26.89180,31055
26.90113,29782
26.91047,30330
26.91982,30045
26.92915,28585
26.93848,30507
26.94783,29164
26.95717,28116
26.96650,30349
26.97585,28616
26.98518,29404
26.99452,31032
27.00387,30421
27.01320,29988
27.02253,29500
27.03188,28046
27.04122,28946
27.05057,29602
27.05990,31109
27.06923,29333
27.07858,28087
27.08792,28625
27.09725,29742
27.10660,28264
27.11593,29261
27.12527,29073
27.13462,28738
27.14395,29391
27.15328,30949
27.16263,30360
27.17197,30557
27.18130,30598
27.19065,30500
27.19998,29570
27.20932,29493
27.21867,30122
27.22800,31499
27.23735,32952
27.24668,31463
27.25602,31461
27.26537,32254
27.27470,31435
27.28403,29423
27.29338,31353
27.30272,32018
27.31205,30267
27.32140,32275
27.33073,28349
27.34007,29981
27.34942,30325
27.35875,31784
27.36808,30687
27.37743,31431
27.38677,30966
27.39612,30191
27.40545,32312
27.41478,30195
27.42413,31579
27.43347,30897
27.44280,32620
27.45215,31177
27.46148,32497
27.47082,33362
27.48017,33187
27.48950,31973
27.49883,32799
27.50818,32885
27.51752,34626
27.52685,32418
27.53620,30964
27.54553,32302
27.55487,30399
27.56422,33561
27.57355,31522
27.58290,33407
27.59223,32079
27.60157,32101
27.61092,32512
27.62025,30025
27.62958,32618
27.63893,33211
27.64827,33419
27.65760,33310
27.66695,35009
27.67628,31592
27.68562,32913
27.69497,36632
27.70430,35857
27.71363,39355
27.72298,37506
27.73232,38197
27.74165,38258
27.75100,38294
27.76033,38671
27.76968,36599
27.77902,35857
27.78835,37107
27.79770,35561
27.80703,36178
27.81637,37493
27.82572,36946
27.83505,34188
27.84438,36225
27.85373,34608
27.86307,34599
27.87240,36951
27.88175,33293
27.89108,35789
27.90042,36945
27.90977,34162
27.91910,37284
27.92843,34816
27.93778,36308
27.94712,36466
27.95647,36892
27.96580,34133
27.97513,34729
27.98448,36199
27.99382,36041
28.00315,36866
28.01250,35618
28.02183,36916
28.03117,35592
28.04052,36254
28.04985,37028
28.05918,34137
28.06853,36628
28.07787,37710
28.08720,36603
28.09655,37878
28.10588,38215
28.11523,40503
28.12457,38588
28.13390,35965
28.14325,37934
28.15258,38645
28.16192,37536
28.17127,36119
28.18060,37004
28.18993,39457
28.19928,37038
28.20862,38785
28.21795,39264
28.22730,39322
28.23663,38101
28.24597,37520
28.25532,36927
28.26465,38051
28.27398,39412
28.28333,39165
28.29267,39150
28.30202,37392
28.31135,39994
28.32068,38540
28.33003,37996
28.33937,40215
28.34870,39453
28.35805,40418
28.36738,38712
28.37672,39080
28.38607,37368
28.39540,39544
28.40473,41095
28.41408,38265
28.42342,39876
28.43275,39876
28.44210,38780
28.45143,40231
28.46077,40153
28.47012,42082
28.47945,42468
28.48880,41036
28.49813,41715
28.50747,42438
28.51682,41422
28.52615,41640
28.53548,43006
28.54483,41752
28.55417,43813
28.56350,42806
28.57285,40763
28.58218,42983
28.59152,41486
28.60087,43340
28.61020,43264
28.61953,43526
28.62888,42425
28.63822,44114
28.64755,44710
28.65690,48078
28.66623,54532
28.67558,56777
28.68492,59821
28.69425,53529
28.70360,50734
28.71293,48181
28.72227,47883
28.73162,47578
28.74095,46841
28.75028,45122
28.75963,48780
28.76897,46369
28.77830,45947
28.78765,47125
28.79698,47564
28.80632,46046
28.81567,46303
28.82500,45606
28.83433,47525
28.84368,45715
28.85302,45996
28.86237,46112
28.87170,44874
28.88103,47392
28.89038,47969
28.89972,47083
28.90905,46849
28.91840,47520
28.92773,47428
28.93707,50967
28.94642,48247
28.95575,48154
28.96508,48387
28.97443,47062
28.98377,50539
28.99310,49499
29.00245,47695
29.01178,47840
29.02112,48100
29.03047,46778
29.03980,47904
29.04915,49893
29.05848,51354
29.06782,50245
29.07717,50252
29.08650,49730
29.09583,48759
29.10518,48464
29.11452,50226
29.12385,49793
29.13320,48703
29.14253,47010
29.15187,50081
29.16122,52743
29.17055,51316
29.17988,52586
29.18923,52909
29.19857,51244
29.20792,50106
29.21725,50307
29.22658,51185
29.23593,51878
29.24527,51798
29.25460,52460
29.26395,52472
29.27328,51881
29.28262,51856
29.29197,53362
29.30130,51941
29.31063,53507
29.31998,54041
29.32932,55665
29.33865,54812
29.34800,53248
29.35733,53093
29.36667,51394
29.37602,53141
29.38535,54024
29.39470,53102
29.40403,51565
29.41337,52017
29.42272,54183
29.43205,54853
29.44138,54094
29.45073,55254
29.46007,57404
29.46940,58735
29.47875,57954
29.48808,56287
29.49742,55285
29.50677,53745
29.51610,52600
29.52543,53814
29.53478,54308
29.54412,54369
29.55345,54759
29.56280,53677
29.57213,51219
29.58148,55082
29.59082,52711
29.60015,54795
29.60950,52834
29.61883,53343
29.62817,52080
29.63752,55080
29.64685,53483
29.65618,53540
29.66553,55311
29.67487,54200
29.68420,53351
29.69355,54542
29.70288,55907
29.71222,55375
29.72157,54753
29.73090,55026
29.74023,54910
29.74958,56690
29.75892,54630
29.76827,55626
29.77760,54607
29.78693,54705
29.79628,53614
29.80562,53173
29.81495,53072
29.82430,54979
29.83363,54418
29.84297,53683
29.85232,55798
29.86165,53142
29.87098,54487
29.88033,55819
29.88967,55648
29.89900,54242
29.90835,54838
29.91768,53545
29.92703,56175
29.93637,54749
29.94570,53308
29.95505,55572
29.96438,58695
29.97372,59107
29.98307,54973
29.99240,54761
30.00173,55008
30.01108,56096
30.02042,57152
30.02975,55570
30.03910,57996
30.04843,57238
30.05777,55867
30.06712,55803
30.07645,55861
30.08578,56790
30.09513,55580
30.10447,55632
30.11382,58610
30.12315,57414
30.13248,56869
30.14183,58211
30.15117,57150
30.16050,58528
30.16985,56288
30.17918,56648
30.18852,58368
30.19787,57187
30.20720,54773
30.21653,56869
30.22588,59293
30.23522,56220
30.24455,57589
30.25390,57219
30.26323,56630
30.27257,59156
30.28192,58661
30.29125,56799
30.30060,56997
30.30993,57625
30.31927,57207
30.32862,56284
30.33795,57583
30.34728,57447
30.35663,57596
30.36597,59388
30.37530,62217
30.38465,62118
30.39398,61231
30.40332,61036
30.41267,60822
30.42200,58495
30.43133,56618
30.44068,58789
30.45002,57380
30.45935,59424
30.46870,56047
30.47803,57752
30.48738,58960
30.49672,56628
30.50605,59474
30.51540,57105
30.52473,55845
30.53407,57852
30.54342,59591
30.55275,57923
30.56208,57511
30.57143,61686
30.58077,61132
30.59010,60489
30.59945,62748
30.60878,64175
30.61812,65129
30.62747,68189
30.63680,66451
30.64613,70002
30.65548,71495
30.66482,70448
30.67417,69629
30.68350,69695
30.69283,67767
30.70218,67124
30.71152,67114
30.72085,63067
30.73020,64643
30.73953,63753
30.74887,63994
30.75822,63125
30.76755,62870
30.77688,60255
30.78623,63030
30.79557,60456
30.80490,62396
30.81425,63482
30.82358,62791
30.83293,63045
30.84227,65695
30.85160,65603
30.86095,66071
30.87028,66917
30.87962,67265
30.88897,69931
30.89830,70419
30.90763,70274
30.91698,72548
30.92632,72202
30.93565,72457
30.94500,73303
30.95433,71162
30.96367,73000
30.97302,70650
30.98235,73003
30.99168,71363
31.00103,69115
31.01037,70729
31.01972,68176
31.02905,67535
31.03838,69355
31.04773,70958
31.05707,69360
31.06640,70519
31.07575,67632
31.08508,67064
31.09442,69186
31.10377,67716
31.11310,67025
31.12243,69669
31.13178,69207
31.14112,67845
31.15045,68084
31.15980,67920
31.16913,67108
31.17847,68362
31.18782,69199
31.19715,67766
31.20650,67823
31.21583,66534
31.22517,66275
31.23452,71121
31.24385,68831
31.25318,69285
31.26253,67390
31.27187,68976
31.28120,66520
31.29055,69698
31.29988,68626
31.30922,68885
31.31857,65561
31.32790,67658
31.33723,65035
31.34658,68090
31.35592,65761
31.36525,67315
