D:\数据\20220412\TEST2-SDHX-2.D Tue Apr 12 16:23:52 2022
Start of data points
0.09750,20516
0.10685,18505
0.11618,19548
0.12552,18774
0.13487,20525
0.14420,19895
0.15353,19573
0.16288,20024
0.17222,18895
0.18155,18411
0.19090,20009
0.20023,19163
0.20958,18437
0.21892,18494
0.22825,17542
0.23760,18187
0.24693,19109
0.25627,18349
0.26562,19225
0.27495,18288
0.28428,18874
0.29363,17898
0.30297,17962
0.31230,18797
0.32165,18304
0.33098,18474
0.34032,17819
0.34967,18826
0.35900,18839
0.36835,18261
0.37768,18542
0.38702,18012
0.39637,18203
0.40570,18984
0.41503,17825
0.42438,16932
0.43372,15845
0.44305,13257
0.45240,12108
0.46173,8244
0.47107,5183
0.48042,5057
0.48975,5478
0.49908,4883
0.50843,4930
0.51777,4887
0.52710,4395
0.53645,3929
0.54578,4205
0.55513,4533
0.56447,4155
0.57380,4295
0.58315,4544
0.59248,4734
0.60182,4632
0.61117,4129
0.62050,4065
0.62983,4046
0.63918,3704
0.64852,3834
0.65785,3794
0.66720,3150
0.67653,3788
0.68587,3794
0.69522,4265
0.70455,4474
0.71388,4393
0.72323,3664
0.73257,3781
0.74192,3770
0.75125,3660
0.76058,3811
0.76993,3459
0.77927,3778
0.78860,4129
0.79795,4202
0.80728,3760
0.81662,3309
0.82597,3709
0.83530,3860
0.84463,3132
0.85398,3865
0.86332,4178
0.87265,3694
0.88200,3688
0.89133,3794
0.90067,3739
0.91002,3347
0.91935,3365
0.92870,3931
0.93803,3557
0.94737,4170
0.95672,3695
0.96605,3302
0.97538,3462
0.98473,3302
0.99407,3677
1.00340,3628
1.01275,3133
1.02208,3221
1.03142,3413
1.04077,3151
1.05010,3400
1.05943,3747
1.06878,3453
1.07812,3337
1.08747,3598
1.09680,3220
1.10613,3787
1.11548,3353
1.12482,3914
1.13415,3927
1.14350,3274
1.15283,3117
1.16217,3603
1.17152,3538
1.18085,3287
1.19018,3552
1.19953,3649
1.20887,3487
1.21820,3457
1.22755,3360
1.23688,3612
1.24622,3418
1.25557,3750
1.26490,3262
1.27425,3479
1.28358,3637
1.29292,3341
1.30227,3291
1.31160,3897
1.32093,3379
1.33028,3190
1.33962,3642
1.34895,3317
1.35830,3502
1.36763,2989
1.37697,3261
1.38632,3078
1.39565,3216
1.40498,3632
1.41433,3587
1.42367,3680
1.43300,3588
1.44235,3606
1.45168,3373
1.46103,3360
1.47037,2785
1.47970,3428
1.48905,4052
1.49838,3301
1.50772,3310
1.51707,3000
1.52640,3485
1.53573,2726
1.54508,3278
1.55442,3422
1.56375,2890
1.57310,3224
1.58243,3568
1.59177,6372
1.60112,11286
1.61045,14864
1.61978,18326
1.62913,24909
1.63847,35685
1.64782,43827
1.65715,45544
1.66648,40567
1.67583,34350
1.68517,29460
1.69450,23599
1.70385,16894
1.71318,14024
1.72252,14167
1.73187,16837
1.74120,17757
1.75053,19201
1.75988,20349
1.76922,20632
1.77855,20507
1.78790,22548
1.79723,21322
1.80657,21961
1.81592,22319
1.82525,22429
1.83460,22448
1.84393,22029
1.85327,22320
1.86262,21585
1.87195,27103
1.88128,41189
1.89063,68858
1.89997,94149
1.90930,115210
1.91865,130923
1.92798,159624
1.93732,186970
1.94667,207323
1.95600,206002
1.96533,183662
1.97468,155089
1.98402,123980
1.99337,103880
2.00270,94505
2.01203,94534
2.02138,118721
2.03072,155737
2.04005,140960
2.04940,106760
2.05873,84393
2.06807,68103
2.07742,65168
2.08675,62570
2.09608,52614
2.10543,44496
2.11477,44096
2.12410,50231
2.13345,54944
2.14278,64390
2.15212,73045
2.16147,74756
2.17080,66716
2.18015,78652
2.18948,178986
2.19882,269663
2.20817,200459
2.21750,116292
2.22683,93273
2.23618,121818
2.24552,185756
2.25485,292278
2.26420,950641
2.27353,1867427
2.28287,1855285
2.29222,1300947
2.30155,948832
2.31088,2009568
2.32023,4909266
2.32957,5317101
2.33890,3140056
2.34825,1405588
2.35758,617636
2.36693,312586
2.37627,200278
2.38560,154586
2.39495,118354
2.40428,98531
2.41362,90209
2.42297,84672
2.43230,73754
2.44163,63099
2.45098,57513
2.46032,55274
2.46965,55824
2.47900,52554
2.48833,48977
2.49767,46532
2.50702,43649
2.51635,41672
2.52568,42480
2.53503,44384
2.54437,47645
2.55372,53650
2.56305,61041
2.57238,94998
2.58173,133715
2.59107,143381
2.60040,133711
2.60975,129279
2.61908,163450
2.62842,181862
2.63777,155669
2.64710,129841
2.65643,125628
2.66578,100964
2.67512,73947
2.68445,55801
2.69380,47461
2.70313,42722
2.71248,70349
2.72182,170168
2.73115,257719
2.74050,219791
2.74983,147853
2.75917,116369
2.76852,107826
2.77785,116270
2.78718,141519
2.79653,146233
2.80587,124828
2.81520,106816
2.82455,90852
2.83388,94148
2.84322,198365
2.85257,670289
2.86190,1309003
2.87123,1276271
2.88058,744042
2.88992,347993
2.89927,170708
2.90860,99593
2.91793,75313
2.92728,64827
2.93662,54364
2.94595,50719
2.95530,45310
2.96463,43836
2.97397,42610
2.98332,47109
2.99265,62065
3.00198,79050
3.01133,84241
3.02067,96332
3.03000,288546
3.03935,511229
3.04868,450694
3.05802,304602
3.06737,210985
3.07670,155649
3.08605,114236
3.09538,80853
3.10472,59052
3.11407,47161
3.12340,43440
3.13273,44891
3.14208,53032
3.15142,86315
3.16075,153965
3.17010,191409
3.17943,142089
3.18877,88129
3.19812,57181
3.20745,49404
3.21678,42418
3.22613,39200
3.23547,35662
3.24480,35856
3.25415,39113
3.26348,38841
3.27283,37404
3.28217,34473
3.29150,34548
3.30085,37290
3.31018,40430
3.31952,36583
3.32887,36755
3.33820,33827
3.34753,32315
3.35688,33373
3.36622,34301
3.37555,32320
3.38490,31940
3.39423,31804
3.40357,36490
3.41292,49206
3.42225,62081
3.43158,61699
3.44093,51623
3.45027,45149
3.45962,42389
3.46895,38632
3.47828,35630
3.48763,36964
3.49697,38424
3.50630,36710
3.51565,34286
3.52498,31491
3.53432,34582
3.54367,54229
3.55300,125358
3.56233,248651
3.57168,316239
3.58102,256571
3.59035,156568
3.59970,114960
3.60903,96029
3.61837,76273
3.62772,62888
3.63705,56879
3.64640,49514
3.65573,45280
3.66507,46698
3.67442,49524
3.68375,46419
3.69308,41789
3.70243,38358
3.71177,41412
3.72110,48742
3.73045,50276
3.73978,45293
3.74912,38533
3.75847,34287
3.76780,31754
3.77713,31856
3.78648,30912
3.79582,37048
3.80517,49837
3.81450,73262
3.82383,84497
3.83318,70604
3.84252,53449
3.85185,44694
3.86120,37309
3.87053,35386
3.87987,37529
3.88922,45285
3.89855,54197
3.90788,53717
3.91723,46511
3.92657,46704
3.93590,49612
3.94525,58625
3.95458,58873
3.96392,51200
3.97327,41948
3.98260,36439
3.99195,35195
4.00128,32275
4.01062,31615
4.01997,31450
4.02930,34592
4.03863,35260
4.04798,36682
4.05732,38266
4.06665,41110
4.07600,49700
4.08533,63752
4.09467,67605
4.10402,62053
4.11335,47650
4.12268,40359
4.13203,34954
4.14137,34787
4.15070,35664
4.16005,34163
4.16938,33038
4.17873,31781
4.18807,31868
4.19740,33750
4.20675,34952
4.21608,36747
4.22542,36229
4.23477,32246
4.24410,32902
4.25343,33467
4.26278,34352
4.27212,33370
4.28145,34811
4.29080,32220
4.30013,31022
4.30947,31858
4.31882,36382
4.32815,41374
4.33750,40524
4.34683,38624
4.35617,35513
4.36552,33349
4.37485,33318
4.38418,32155
4.39353,32235
4.40287,30166
4.41220,27695
4.42155,28501
4.43088,28668
4.44022,28970
4.44957,28707
4.45890,31978
4.46823,39667
4.47758,50962
4.48692,56380
4.49625,48436
4.50560,37288
4.51493,33014
4.52428,30089
4.53362,29897
4.54295,29918
4.55230,29515
4.56163,29577
4.57097,29957
4.58032,29507
4.58965,29655
4.59898,30585
4.60833,31163
4.61767,31577
4.62700,30184
4.63635,32032
4.64568,33405
4.65502,35322
4.66437,34206
4.67370,34256
4.68303,33366
4.69238,36965
4.70172,39519
4.71107,41052
4.72040,42555
4.72973,41740
4.73908,36064
4.74842,32630
4.75775,32061
4.76710,31544
4.77643,32419
4.78577,35364
4.79512,32525
4.80445,34737
4.81378,41691
4.82313,44058
4.83247,39403
4.84180,34428
4.85115,31083
4.86048,30065
4.86982,32396
4.87917,34228
4.88850,34133
4.89785,31247
4.90718,29359
4.91652,30106
4.92587,32482
4.93520,37409
4.94453,39802
4.95388,36338
4.96322,30019
4.97255,27827
4.98190,26710
4.99123,27216
5.00057,29039
5.00992,29225
5.01925,34680
5.02858,38231
5.03793,38914
5.04727,31632
5.05660,30394
5.06595,30551
5.07528,32413
5.08463,36108
5.09397,36468
5.10330,32772
5.11265,29476
5.12198,29051
5.13132,28543
5.14067,30697
5.15000,29987
5.15933,29352
5.16868,28805
5.17802,33277
5.18735,34012
5.19670,31388
5.20603,29790
5.21537,26722
5.22472,28445
5.23405,31630
5.24338,34161
5.25273,34677
5.26207,39684
5.27142,72614
5.28075,143100
5.29008,190455
5.29943,165377
5.30877,99727
5.31810,54822
5.32745,40138
5.33678,35868
5.34612,31679
5.35547,28690
5.36480,28346
5.37413,29812
5.38348,31849
5.39282,34414
5.40215,35297
5.41150,32745
5.42083,28890
5.43018,26765
5.43952,26742
5.44885,26647
5.45820,27369
5.46753,25982
5.47687,28859
5.48622,29608
5.49555,30855
5.50488,32350
5.51423,34427
5.52357,40614
5.53290,45792
5.54225,40673
5.55158,33926
5.56092,32297
5.57027,32150
5.57960,31152
5.58893,27891
5.59828,27487
5.60762,26789
5.61697,26380
5.62630,26719
5.63563,26881
5.64498,25654
5.65432,26822
5.66365,26518
5.67300,29231
5.68233,30156
5.69167,30987
5.70102,32664
5.71035,33997
5.71968,34699
5.72903,32000
5.73837,34261
5.74770,40503
5.75705,42519
5.76638,40381
5.77572,36771
5.78507,31677
5.79440,29425
5.80375,27677
5.81308,27622
5.82242,28951
5.83177,30644
5.84110,28077
5.85043,28075
5.85978,23678
5.86912,22648
5.87845,23433
5.88780,22561
5.89713,23189
5.90647,28584
5.91582,41759
5.92515,58482
5.93448,55815
5.94383,49011
5.95317,46557
5.96250,41205
5.97185,33865
5.98118,30307
5.99053,24963
5.99987,20633
6.00920,17959
6.01855,15952
6.02788,15156
6.03722,15256
6.04657,16538
6.05590,19194
6.06523,20436
6.07458,19010
6.08392,15918
6.09325,13262
6.10260,13040
6.11193,15114
6.12127,20770
6.13062,30484
6.13995,33388
6.14930,27213
6.15863,19094
6.16797,15633
6.17732,15734
6.18665,14517
6.19598,13344
6.20533,13839
6.21467,14216
6.22400,15502
6.23335,18661
6.24268,17768
6.25202,17205
6.26137,22896
6.27070,30090
6.28003,27037
6.28938,20597
6.29872,15968
6.30805,13181
6.31740,12936
6.32673,12845
6.33608,12461
6.34542,12259
6.35475,12440
6.36410,14533
6.37343,20606
6.38277,30258
6.39212,50062
6.40145,98282
6.41078,151760
6.42013,134059
6.42947,74048
6.43880,30818
6.44815,18884
6.45748,18724
6.46682,18267
6.47617,16414
6.48550,16345
6.49483,16465
6.50418,16283
6.51352,18173
6.52287,18899
6.53220,16849
6.54153,14132
6.55088,13675
6.56022,12881
6.56955,12812
6.57890,12872
6.58823,13500
6.59757,14257
6.60692,15097
6.61625,16414
6.62558,17585
6.63493,16808
6.64427,15861
6.65360,15707
6.66295,17213
6.67228,17647
6.68162,17230
6.69097,18253
6.70030,19036
6.70965,18088
6.71898,16590
6.72832,15250
6.73767,14241
6.74700,14912
6.75633,12647
6.76568,12892
6.77502,13663
6.78435,15381
6.79370,17983
6.80303,18744
6.81237,17025
6.82172,14913
6.83105,14250
6.84038,11706
6.84973,12758
6.85907,14036
6.86840,12189
6.87775,13618
6.88708,12976
6.89643,17466
6.90577,21583
6.91510,23407
6.92445,18993
6.93378,16555
6.94312,15617
6.95247,14529
6.96180,13644
6.97113,13931
6.98048,14359
6.98982,13004
6.99915,14268
7.00850,15047
7.01783,16442
7.02717,15589
7.03652,12831
7.04585,12867
7.05520,12164
7.06453,12789
7.07387,12292
7.08322,12866
7.09255,13809
7.10188,15861
7.11123,16036
7.12057,15504
7.12990,14642
7.13925,13706
7.14858,14110
7.15792,13090
7.16727,12643
7.17660,13248
7.18593,12655
7.19528,13901
7.20462,15684
7.21395,18090
7.22330,33678
7.23263,67471
7.24198,95949
7.25132,79366
7.26065,46737
7.27000,32316
7.27933,28792
7.28867,23988
7.29802,20421
7.30735,16730
7.31668,15058
7.32603,13860
7.33537,14088
7.34470,12777
7.35405,13028
7.36338,13285
7.37272,15888
7.38207,27802
7.39140,69051
7.40073,148764
7.41008,199184
7.41942,175003
7.42877,106893
7.43810,55908
7.44743,28377
7.45678,18474
7.46612,16639
7.47545,17661
7.48480,17459
7.49413,16638
7.50347,15702
7.51282,13559
7.52215,13870
7.53148,12566
7.54083,12938
7.55017,13624
7.55950,14992
7.56885,16076
7.57818,15714
7.58752,15789
7.59687,14828
7.60620,17293
7.61555,16247
7.62488,16777
7.63422,17238
7.64357,16631
7.65290,15707
7.66223,14597
7.67158,14483
7.68092,15404
7.69025,18436
7.69960,23619
7.70893,23598
7.71827,21756
7.72762,18157
7.73695,17586
7.74628,17091
7.75563,16483
7.76497,16237
7.77432,19505
7.78365,19543
7.79298,19580
7.80233,15931
7.81167,14465
7.82100,14809
7.83035,13989
7.83968,16001
7.84902,24579
7.85837,42457
7.86770,59076
7.87703,58971
7.88638,43481
7.89572,36838
7.90505,53331
7.91440,88819
7.92373,98931
7.93307,72217
7.94242,41505
7.95175,32128
7.96110,28609
7.97043,24370
7.97977,22290
7.98912,24226
7.99845,21774
8.00778,20167
8.01713,21511
8.02647,25850
8.03580,34130
8.04515,35928
8.05448,32963
8.06382,24454
8.07317,19592
8.08250,18802
8.09183,22288
8.10118,24160
8.11052,21710
8.11985,17905
8.12920,15673
8.13853,14734
8.14788,14981
8.15722,15980
8.16655,15871
8.17590,15360
8.18523,14884
8.19457,15534
8.20392,15358
8.21325,15275
8.22258,14873
8.23193,15120
8.24127,17408
8.25060,16815
8.25995,16603
8.26928,15481
8.27862,15147
8.28797,14793
8.29730,14123
8.30663,13835
8.31598,14442
8.32532,13937
8.33467,14661
8.34400,14262
8.35333,14642
8.36268,14862
8.37202,15330
8.38135,14610
8.39070,16119
8.40003,16712
8.40937,18314
8.41872,18279
8.42805,18629
8.43738,18886
8.44673,17275
8.45607,15403
8.46540,17638
8.47475,16642
8.48408,18043
8.49342,18192
8.50277,17364
8.51210,16768
8.52145,15946
8.53078,16801
8.54012,17132
8.54947,17572
8.55880,17898
8.56813,18984
8.57748,17311
8.58682,19758
8.59615,19823
8.60550,22070
8.61483,19196
8.62417,18082
8.63352,17509
8.64285,17681
8.65218,21113
8.66153,20415
8.67087,19444
8.68022,18271
8.68955,17860
8.69888,19026
8.70823,18855
8.71757,18758
8.72690,18241
8.73625,18820
8.74558,21448
8.75492,22295
8.76427,24179
8.77360,22975
8.78293,27384
8.79228,52216
8.80162,94792
8.81095,127395
8.82030,97205
8.82963,52102
8.83897,27590
8.84832,20309
8.85765,19017
8.86700,18509
8.87633,19941
8.88567,17229
8.89502,19226
8.90435,19777
8.91368,19436
8.92303,20933
8.93237,21187
8.94170,20659
8.95105,18406
8.96038,17623
8.96972,18033
8.97907,16106
8.98840,16395
8.99773,18193
9.00708,17508
9.01642,16843
9.02575,17885
9.03510,17040
9.04443,19021
9.05378,20200
9.06312,20615
9.07245,20743
9.08180,24294
9.09113,24670
9.10047,21544
9.10982,20892
9.11915,21954
9.12848,29320
9.13783,33729
9.14717,31833
9.15650,22384
9.16585,17928
9.17518,18581
9.18452,17266
9.19387,18598
9.20320,19711
9.21253,24400
9.22188,35243
9.23122,44450
9.24057,40564
9.24990,30179
9.25923,22454
9.26858,20049
9.27792,18788
9.28725,18406
9.29660,19649
9.30593,19943
9.31527,23813
9.32462,27872
9.33395,30323
9.34328,27945
9.35263,34036
9.36197,58497
9.37130,88178
9.38065,93595
9.38998,80720
9.39933,63037
9.40867,50698
9.41800,43683
9.42735,42800
9.43668,33322
9.44602,25408
9.45537,21034
9.46470,19207
9.47403,18519
9.48338,18919
9.49272,20421
9.50205,19079
9.51140,18289
9.52073,19252
9.53007,23884
9.53942,28094
9.54875,32023
9.55808,33758
9.56743,34669
9.57677,28694
9.58612,22794
9.59545,23944
9.60478,21305
9.61413,22199
9.62347,20427
9.63280,19065
9.64215,18387
9.65148,18989
9.66082,19202
9.67017,19205
9.67950,22329
9.68883,22713
9.69818,20445
9.70752,21585
9.71685,29371
9.72620,62127
9.73553,134690
9.74487,230540
9.75422,269150
9.76355,215143
9.77290,147245
9.78223,104593
9.79157,78875
9.80092,61878
9.81025,53020
9.81958,49725
9.82893,54309
9.83827,54762
9.84760,51912
9.85695,47084
9.86628,41156
9.87562,42779
9.88497,53312
9.89430,58752
9.90363,55519
9.91298,50487
9.92232,44359
9.93165,38435
9.94100,30557
9.95033,29505
9.95968,24918
9.96902,32236
9.97835,46430
9.98770,61878
9.99703,60046
10.00637,47325
10.01572,36603
10.02505,29906
10.03438,26420
10.04373,25619
10.05307,32790
10.06240,45485
10.07175,55375
10.08108,49407
10.09042,37858
10.09977,40390
10.10910,103038
10.11843,285047
10.12778,446218
10.13712,406383
10.14647,456411
10.15580,936422
10.16513,1294506
10.17448,915085
10.18382,320991
10.19315,79361
10.20250,37059
10.21183,30604
10.22117,27035
10.23052,28043
10.23985,34777
10.24918,35129
10.25853,28492
10.26787,24766
10.27720,24244
10.28655,25545
10.29588,26391
10.30522,28339
10.31457,25569
10.32390,22170
10.33325,19381
10.34258,20600
10.35192,20877
10.36127,21764
10.37060,22370
10.37993,19514
10.38928,18990
10.39862,18443
10.40795,21254
10.41730,23078
10.42663,27772
10.43597,31675
10.44532,45146
10.45465,66323
10.46398,72826
10.47333,53081
10.48267,32475
10.49202,22177
10.50135,19856
10.51068,18510
10.52003,19794
10.52937,21276
10.53870,20975
10.54805,22151
10.55738,22327
10.56672,22795
10.57607,24712
10.58540,22960
10.59473,20223
10.60408,19442
10.61342,21052
10.62275,26627
10.63210,32405
10.64143,31117
10.65077,26429
10.66012,24411
10.66945,27483
10.67880,28973
10.68813,29203
10.69747,28573
10.70682,39158
10.71615,51155
10.72548,46360
10.73483,32342
10.74417,28844
10.75350,45278
10.76285,63784
10.77218,65017
10.78152,72042
10.79087,125724
10.80020,197491
10.80953,194100
10.81888,118044
10.82822,52789
10.83755,31467
10.84690,25040
10.85623,26469
10.86558,28217
10.87492,33900
10.88425,32168
10.89360,30454
10.90293,29889
10.91227,26681
10.92162,26448
10.93095,26705
10.94028,23974
10.94963,26699
10.95897,25771
10.96830,24484
10.97765,23575
10.98698,19351
10.99632,18055
11.00567,18039
11.01500,17224
11.02433,17899
11.03368,18072
11.04302,18412
11.05237,17765
11.06170,16647
11.07103,17891
11.08038,17118
11.08972,18610
11.09905,18305
11.10840,18681
11.11773,19607
11.12707,18993
11.13642,18493
11.14575,20342
11.15508,19655
11.16443,20244
11.17377,20496
11.18310,17196
11.19245,16622
11.20178,17130
11.21113,19069
11.22047,20027
11.22980,20617
11.23915,20307
11.24848,20495
11.25782,22644
11.26717,22720
11.27650,22975
11.28583,20232
11.29518,19431
11.30452,18505
11.31385,18453
11.32320,22322
11.33253,29060
11.34187,42975
11.35122,50161
11.36055,44843
11.36988,32826
11.37923,24756
11.38857,28123
11.39792,35085
11.40725,40599
11.41658,37538
11.42593,29821
11.43527,22575
11.44460,20659
11.45395,25097
11.46328,33488
11.47262,33631
11.48197,27506
11.49130,20439
11.50063,18339
11.50998,18529
11.51932,18533
11.52865,16145
11.53800,17440
11.54733,18861
11.55667,24754
11.56602,36094
11.57535,47357
11.58470,47947
11.59403,42655
11.60337,35246
11.61272,30991
11.62205,28122
11.63138,24714
11.64073,21851
11.65007,20797
11.65940,23582
11.66875,25089
11.67808,21834
11.68742,20652
11.69677,22290
11.70610,22371
11.71543,23746
11.72478,24751
11.73412,25679
11.74345,24100
11.75280,23102
11.76213,23516
11.77148,24372
11.78082,26526
11.79015,28734
11.79950,25441
11.80883,23353
11.81817,25911
11.82752,24606
11.83685,21920
11.84618,20119
11.85553,19771
11.86487,20903
11.87420,21995
11.88355,21191
11.89288,20445
11.90222,20476
11.91157,19080
11.92090,18831
11.93023,22760
11.93958,31030
11.94892,33433
11.95827,29802
11.96760,23238
11.97693,19677
11.98628,21609
11.99562,23008
12.00495,27752
12.01430,31682
12.02363,32037
12.03297,28301
12.04232,23259
12.05165,21839
12.06098,21504
12.07033,20596
12.07967,18531
12.08900,20482
12.09835,20371
12.10768,20720
12.11703,18903
12.12637,18526
12.13570,19114
12.14505,22282
12.15438,27056
12.16372,39156
12.17307,52899
12.18240,48901
12.19173,35608
12.20108,25238
12.21042,24769
12.21975,29130
12.22910,34739
12.23843,31221
12.24777,23919
12.25712,24261
12.26645,40051
12.27578,65055
12.28513,70340
12.29447,54764
12.30382,38493
12.31315,30307
12.32248,28553
12.33183,29195
12.34117,28593
12.35050,26822
12.35985,23752
12.36918,24116
12.37852,23101
12.38787,22375
12.39720,20529
12.40653,20967
12.41588,19825
12.42522,20217
12.43455,19322
12.44390,19742
12.45323,23397
12.46257,23134
12.47192,25161
12.48125,25713
12.49060,23301
12.49993,24222
12.50927,25104
12.51862,23625
12.52795,24222
12.53728,23528
12.54663,28340
12.55597,30161
12.56530,30003
12.57465,28283
12.58398,23371
12.59332,20645
12.60267,19820
12.61200,20245
12.62133,26234
12.63068,31278
12.64002,34377
12.64935,34860
12.65870,30941
12.66803,26056
12.67738,19277
12.68672,18191
12.69605,16946
12.70540,18813
12.71473,20122
12.72407,20199
12.73342,19182
12.74275,19906
12.75208,20541
12.76143,20989
12.77077,18288
12.78010,19343
12.78945,20083
12.79878,21896
12.80812,20911
12.81747,19839
12.82680,19905
12.83615,21077
12.84548,19933
12.85482,18562
12.86417,19476
12.87350,17147
12.88283,18500
12.89218,19950
12.90152,18162
12.91085,16979
12.92020,17680
12.92953,17056
12.93887,19223
12.94822,19848
12.95755,19412
12.96688,18535
12.97623,17500
12.98557,15179
12.99490,16492
13.00425,17246
13.01358,20114
13.02293,24415
13.03227,25832
13.04160,24654
13.05095,21215
13.06028,18509
13.06962,19989
13.07897,20462
13.08830,19000
13.09763,18708
13.10698,19212
13.11632,17835
13.12565,20301
13.13500,22197
13.14433,21641
13.15367,22299
13.16302,22881
13.17235,23218
13.18168,29092
13.19103,57335
13.20037,121891
13.20972,174058
13.21905,143701
13.22838,78955
13.23773,52274
13.24707,47266
13.25640,39260
13.26575,32791
13.27508,30579
13.28442,30178
13.29377,28226
13.30310,27615
13.31243,30543
13.32178,29951
13.33112,27505
13.34045,25260
13.34980,23408
13.35913,22973
13.36847,20408
13.37782,21553
13.38715,24593
13.39650,29847
13.40583,26018
13.41517,23027
13.42452,20282
13.43385,23190
13.44318,23946
13.45253,23940
13.46187,27485
13.47120,28730
13.48055,27243
13.48988,23173
13.49922,21682
13.50857,30808
13.51790,43881
13.52723,52132
13.53658,41883
13.54592,28846
13.55525,22712
13.56460,23353
13.57393,21870
13.58328,19933
13.59262,20549
13.60195,19138
13.61130,19786
13.62063,21130
13.62997,22097
13.63932,30021
13.64865,38603
13.65798,40341
13.66733,30657
13.67667,26544
13.68600,22384
13.69535,20719
13.70468,18036
13.71402,18140
13.72337,16656
13.73270,17510
13.74203,17146
13.75138,18761
13.76072,17909
13.77007,19041
13.77940,18714
13.78873,21495
13.79808,24441
13.80742,24755
13.81675,22194
13.82610,20039
13.83543,19059
13.84477,19644
13.85412,20010
13.86345,22237
13.87278,23720
13.88213,31843
13.89147,54157
13.90080,89523
13.91015,135065
13.91948,140420
13.92883,88490
13.93817,44881
13.94750,30298
13.95685,27575
13.96618,26065
13.97552,24772
13.98487,21796
13.99420,23324
14.00353,23063
14.01288,21875
14.02222,21635
14.03155,39468
14.04090,199101
14.05023,1088238
14.05957,3145365
14.06892,3970732
14.07825,2568057
14.08758,791825
14.09693,151755
14.10627,51018
14.11562,36260
14.12495,31734
14.13428,30108
14.14363,32072
14.15297,31505
14.16230,36416
14.17165,31464
14.18098,29998
14.19032,36111
14.19967,36332
14.20900,32142
14.21833,25922
14.22768,22238
14.23702,20186
14.24635,22126
14.25570,22684
14.26503,23168
14.27437,22192
14.28372,21271
14.29305,21973
14.30240,22148
14.31173,29157
14.32107,37152
14.33042,38266
14.33975,32358
14.34908,26245
14.35843,22713
14.36777,20326
14.37710,21680
14.38645,21207
14.39578,22067
14.40512,20701
14.41447,19914
14.42380,19299
14.43313,19342
14.44248,24629
14.45182,31933
14.46115,42263
14.47050,44779
14.47983,37025
14.48918,28394
14.49852,23924
14.50785,22926
14.51720,22665
14.52653,23286
14.53587,22737
14.54522,21861
14.55455,23306
14.56388,23005
14.57323,23330
14.58257,20959
14.59190,21278
14.60125,21083
14.61058,20500
14.61992,20000
14.62927,21591
14.63860,25917
14.64795,30455
14.65728,32979
14.66662,32705
14.67597,27181
14.68530,24805
14.69463,23720
14.70398,22196
14.71332,22322
14.72265,21845
14.73200,21754
14.74133,22391
14.75067,22841
14.76002,22073
14.76935,20947
14.77868,21464
14.78803,22324
14.79737,24322
14.80670,21322
14.81605,23280
14.82538,22572
14.83473,20002
14.84407,22622
14.85340,23750
14.86275,29432
14.87208,31217
14.88142,26341
14.89077,22417
14.90010,21066
14.90943,21204
14.91878,23245
14.92812,21912
14.93745,20686
14.94680,19391
14.95613,19877
14.96547,24968
14.97482,22377
14.98415,24182
14.99348,24829
15.00283,30400
15.01217,31503
15.02152,26701
15.03085,26273
15.04018,31038
15.04953,30633
15.05887,30921
15.06820,29521
15.07755,27237
15.08688,22376
15.09622,21347
15.10557,23557
15.11490,27468
15.12423,33631
15.13358,35317
15.14292,27855
15.15225,23421
15.16160,21342
15.17093,20988
15.18027,22106
15.18962,28358
15.19895,38262
15.20830,51417
15.21763,56024
15.22697,46041
15.23632,34586
15.24565,30012
15.25498,25263
15.26433,25838
15.27367,25761
15.28300,23541
15.29235,22772
15.30168,26092
15.31102,26397
15.32037,31914
15.32970,34702
15.33903,31459
15.34838,28939
15.35772,31014
15.36705,33677
15.37640,32889
15.38573,27632
15.39508,25532
15.40442,24211
15.41375,26786
15.42310,26174
15.43243,26413
15.44177,23561
15.45112,22773
15.46045,23839
15.46978,25521
15.47913,26175
15.48847,28211
15.49780,32658
15.50715,44449
15.51648,48701
15.52582,43396
15.53517,30821
15.54450,25992
15.55385,24475
15.56318,23529
15.57252,24092
15.58187,22753
15.59120,25077
15.60053,25096
15.60988,25067
15.61922,26986
15.62855,31035
15.63790,34158
15.64723,34634
15.65657,36045
15.66592,38520
15.67525,52059
15.68458,67579
15.69393,68972
15.70327,58020
15.71260,45261
15.72195,37144
15.73128,33758
15.74063,36095
15.74997,41428
15.75930,41084
15.76865,37175
15.77798,33263
15.78732,31227
15.79667,29200
15.80600,44050
15.81533,78717
15.82468,146656
15.83402,206015
15.84335,201027
15.85270,138069
15.86203,84615
15.87137,60796
15.88072,58507
15.89005,61096
15.89938,60201
15.90873,52968
15.91807,42719
15.92742,37788
15.93675,33145
15.94608,31722
15.95543,33143
15.96477,33488
15.97410,39122
15.98345,43856
15.99278,45502
16.00212,41945
16.01147,35425
16.02080,32518
16.03013,31230
16.03948,32457
16.04882,35272
16.05815,35551
16.06750,35482
16.07683,34286
16.08617,29904
16.09552,30963
16.10485,31574
16.11420,33624
16.12353,33964
16.13287,32573
16.14222,31375
16.15155,32231
16.16088,31327
16.17023,27470
16.17957,25924
16.18890,29541
16.19825,30419
16.20758,32210
16.21692,32594
16.22627,31673
16.23560,37194
16.24493,37763
16.25428,36655
16.26362,41133
16.27297,64027
16.28230,138346
16.29163,230407
16.30098,249586
16.31032,156811
16.31965,75175
16.32900,41184
16.33833,33009
16.34767,28031
16.35702,25131
16.36635,25651
16.37568,26591
16.38503,27486
16.39437,30499
16.40370,31254
16.41305,33069
16.42238,32411
16.43172,30129
16.44107,31142
16.45040,34079
16.45975,33521
16.46908,33011
16.47842,31968
16.48777,31866
16.49710,31078
16.50643,30840
16.51578,30647
16.52512,31324
16.53445,28725
16.54380,26582
16.55313,25888
16.56247,25929
16.57182,26083
16.58115,28844
16.59048,27853
16.59983,27981
16.60917,29683
16.61850,32442
16.62785,35657
16.63718,36218
16.64653,33381
16.65587,30356
16.66520,30300
16.67455,30971
16.68388,36979
16.69322,38863
16.70257,37765
16.71190,32742
16.72123,31265
16.73058,37617
16.73992,55047
16.74925,64686
16.75860,54505
16.76793,39726
16.77727,30975
16.78662,29271
16.79595,26953
16.80528,30064
16.81463,30208
16.82397,36629
16.83332,39188
16.84265,36038
16.85198,29328
16.86133,28589
16.87067,29090
16.88000,28351
16.88935,28780
16.89868,35329
16.90802,43565
16.91737,46804
16.92670,43138
16.93603,41436
16.94538,40009
16.95472,39873
16.96405,40712
16.97340,36331
16.98273,31292
16.99207,26788
17.00142,28169
17.01075,33901
17.02010,42763
17.02943,56194
17.03877,49585
17.04812,40335
17.05745,35036
17.06678,35447
17.07613,32747
17.08547,30988
17.09480,32782
17.10415,33772
17.11348,32205
17.12282,37974
17.13217,37960
17.14150,36047
17.15083,31419
17.16018,27296
17.16952,28292
17.17885,29249
17.18820,26919
17.19753,27827
17.20688,28717
17.21622,27257
17.22555,27885
17.23490,27775
17.24423,27901
17.25357,29641
17.26292,32357
17.27225,33559
17.28158,32210
17.29093,31312
17.30027,31603
17.30960,34226
17.31895,40377
17.32828,37667
17.33762,34144
17.34697,31315
17.35630,31983
17.36565,42887
17.37498,72318
17.38432,93633
17.39367,75717
17.40300,56489
17.41233,47600
17.42168,44549
17.43102,39627
17.44035,38445
17.44970,36760
17.45903,33259
17.46837,33776
17.47772,57283
17.48705,221647
17.49638,868382
17.50573,1743057
17.51507,1657701
17.52440,783615
17.53375,221062
17.54308,71665
17.55243,45948
17.56177,41724
17.57110,39467
17.58045,43215
17.58978,42169
17.59912,38721
17.60847,34954
17.61780,31445
17.62713,32100
17.63648,33746
17.64582,35740
17.65515,40478
17.66450,41855
17.67383,43956
17.68317,47224
17.69252,50715
17.70185,48212
17.71118,43824
17.72053,38178
17.72987,35988
17.73922,39434
17.74855,40944
17.75788,43823
17.76723,42964
17.77657,38545
17.78590,31139
17.79525,28144
17.80458,28839
17.81392,33516
17.82327,34985
17.83260,35919
17.84193,37513
17.85128,43042
17.86062,45991
17.86995,43112
17.87930,40367
17.88863,37772
17.89797,33485
17.90732,30912
17.91665,27210
17.92600,28098
17.93533,30168
17.94467,37618
17.95402,46727
17.96335,46836
17.97268,42377
17.98203,34314
17.99137,29570
18.00070,30171
18.01005,28995
18.01938,28765
18.02872,31906
18.03807,39961
18.04740,48973
18.05673,52769
18.06608,44433
18.07542,34605
18.08477,32467
18.09410,35505
18.10343,38975
18.11278,40127
18.12212,35439
18.13145,35264
18.14080,34162
18.15013,36817
18.15947,35813
18.16882,35456
18.17815,31599
18.18748,32490
18.19683,31190
18.20617,29624
18.21550,30146
18.22485,32297
18.23418,30001
18.24352,29416
18.25287,28408
18.26220,29617
18.27155,34274
18.28088,36376
18.29022,36759
18.29957,37750
18.30890,35970
18.31823,35664
18.32758,37269
18.33692,40634
18.34625,46001
18.35560,46370
18.36493,36727
18.37427,32307
18.38362,29964
18.39295,30338
18.40228,28753
18.41163,31590
18.42097,31943
18.43030,36237
18.43965,39970
18.44898,39089
18.45833,34873
18.46767,31464
18.47700,30724
18.48635,41534
18.49568,56750
18.50502,69635
18.51437,64215
18.52370,53091
18.53303,43346
18.54238,41643
18.55172,41065
18.56105,36337
18.57040,33571
18.57973,29593
18.58907,33314
18.59842,35308
18.60775,38237
18.61708,39535
18.62643,38198
18.63577,35533
18.64512,33113
18.65445,32871
18.66378,31882
18.67313,31568
18.68247,31064
18.69180,33659
18.70115,38127
18.71048,44057
18.71982,43273
18.72917,41561
18.73850,41734
18.74783,35797
18.75718,31320
18.76652,31352
18.77585,28419
18.78520,29517
18.79453,30007
18.80387,32196
18.81322,32265
18.82255,32369
18.83190,31912
18.84123,30382
18.85057,29465
18.85992,25267
18.86925,26448
18.87858,26688
18.88793,31529
18.89727,36979
18.90660,42821
18.91595,44107
18.92528,38911
18.93462,37367
18.94397,41095
18.95330,43576
18.96263,45078
18.97198,39625
18.98132,37968
18.99067,33769
19.00000,32261
19.00933,32245
19.01868,33264
19.02802,36946
19.03735,50211
19.04670,62687
19.05603,67402
19.06537,80849
19.07472,109538
19.08405,130966
19.09338,105582
19.10273,70064
19.11207,43024
19.12140,33090
19.13075,30054
19.14008,30642
19.14942,28015
19.15877,28677
19.16810,30463
19.17745,32195
19.18678,33300
19.19612,34819
19.20547,35953
19.21480,39946
19.22413,37715
19.23348,33377
19.24282,30562
19.25215,27251
19.26150,29116
19.27083,30440
19.28017,33245
19.28952,32491
19.29885,36122
19.30818,39987
19.31753,39198
19.32687,36546
19.33620,32813
19.34555,29516
19.35488,26893
19.36423,27640
19.37357,25567
19.38290,28456
19.39225,29504
19.40158,34157
19.41092,30334
19.42027,29064
19.42960,25493
19.43893,27437
19.44828,25657
19.45762,25499
19.46695,27666
19.47630,27221
19.48563,29143
19.49497,30530
19.50432,27109
19.51365,26488
19.52298,25273
19.53233,27670
19.54167,26167
19.55102,27323
19.56035,27015
19.56968,29868
19.57903,30364
19.58837,31150
19.59770,28654
19.60705,28077
19.61638,30032
19.62572,31963
19.63507,32675
19.64440,31675
19.65373,27290
19.66308,28082
19.67242,27205
19.68175,25395
19.69110,27258
19.70043,27830
19.70978,31604
19.71912,41852
19.72845,45919
19.73780,41515
19.74713,32941
19.75647,30318
19.76582,30450
19.77515,31349
19.78448,31803
19.79383,31189
19.80317,31826
19.81250,31163
19.82185,29381
19.83118,27875
19.84052,27338
19.84987,28443
19.85920,33162
19.86853,39116
19.87788,43157
19.88722,36653
19.89657,29769
19.90590,28660
19.91523,28791
19.92458,29149
19.93392,27664
19.94325,28709
19.95260,28856
19.96193,30624
19.97127,31255
19.98062,27683
19.98995,26327
19.99928,26449
20.00863,28335
20.01797,29241
20.02730,31282
20.03665,34874
20.04598,30386
20.05532,29009
20.06467,28724
20.07400,29300
20.08335,26918
20.09268,26775
20.10202,26308
20.11137,22882
20.12070,24020
20.13003,26091
20.13938,30324
20.14872,33897
20.15805,32916
20.16740,29327
20.17673,27322
20.18607,25733
20.19542,23458
20.20475,25023
20.21408,25514
20.22343,26132
20.23277,24542
20.24210,23848
20.25145,24266
20.26078,24926
20.27013,24680
20.27947,24174
20.28880,24488
20.29815,24961
20.30748,24702
20.31682,23529
20.32617,22387
20.33550,22917
20.34483,23671
20.35418,25237
20.36352,25454
20.37285,24330
20.38220,24546
20.39153,23032
20.40087,23084
20.41022,24264
20.41955,24530
20.42888,24103
20.43823,24941
20.44757,25672
20.45692,28783
20.46625,31111
20.47558,29315
20.48493,26757
20.49427,24502
20.50360,24565
20.51295,26049
20.52228,24695
20.53162,25603
20.54097,27577
20.55030,41945
20.55963,89003
20.56898,176536
20.57832,203074
20.58765,125915
20.59700,62134
20.60633,37718
20.61567,32110
20.62502,31190
20.63435,30544
20.64370,30664
20.65303,32393
20.66237,32469
20.67172,35918
20.68105,33993
20.69038,34059
20.69973,33294
20.70907,30427
20.71840,31084
20.72775,29597
20.73708,28217
20.74642,28801
20.75577,28303
20.76510,27678
20.77443,25799
20.78378,29950
20.79312,31242
20.80247,30872
20.81180,29749
20.82113,26320
20.83048,26300
20.83982,23679
20.84915,24005
20.85850,25652
20.86783,26921
20.87717,25150
20.88652,26297
20.89585,27128
20.90518,29502
20.91453,27516
20.92387,25324
20.93320,26029
20.94255,25426
20.95188,24687
20.96122,25067
20.97057,24343
20.97990,24404
20.98925,26355
20.99858,24583
21.00792,25782
21.01727,25373
21.02660,24481
21.03593,24172
21.04528,24674
21.05462,26138
21.06395,26159
21.07330,24008
21.08263,25503
21.09197,26063
21.10132,25607
21.11065,28631
21.11998,26466
21.12933,25030
21.13867,23506
21.14800,26172
21.15735,25495
21.16668,26338
21.17603,29351
21.18537,33793
21.19470,34986
21.20405,34168
21.21338,32320
21.22272,33512
21.23207,29811
21.24140,28408
21.25073,27603
21.26008,30958
21.26942,35092
21.27875,39499
21.28810,35616
21.29743,33395
21.30677,30733
21.31612,28189
21.32545,26502
21.33478,26019
21.34413,26467
21.35347,27022
21.36282,26827
21.37215,25527
21.38148,24027
21.39083,25464
21.40017,29117
21.40950,29218
21.41885,27850
21.42818,27559
21.43752,26816
21.44687,25655
21.45620,24782
21.46553,27749
21.47488,28672
21.48422,28480
21.49355,28521
21.50290,26108
21.51223,25763
21.52158,24606
21.53092,27085
21.54025,24462
21.54960,25493
21.55893,27039
21.56827,34222
21.57762,37853
21.58695,34698
21.59628,32550
21.60563,28089
21.61497,27721
21.62430,25300
21.63365,26222
21.64298,24226
21.65232,23146
21.66167,25675
21.67100,26328
21.68033,26208
21.68968,26381
21.69902,25387
21.70837,26460
21.71770,28608
21.72703,27061
21.73638,28016
21.74572,27208
21.75505,27433
21.76440,25086
21.77373,23683
21.78307,24478
21.79242,26583
21.80175,27737
21.81108,26866
21.82043,29159
21.82977,29657
21.83910,26996
21.84845,28651
21.85778,26181
21.86712,27404
21.87647,34260
21.88580,35965
21.89515,36158
21.90448,36459
21.91382,33164
21.92317,30132
21.93250,30391
21.94183,29774
21.95118,28581
21.96052,32990
21.96985,39315
21.97920,49718
21.98853,51764
21.99787,44003
22.00722,34419
22.01655,31712
22.02588,32124
22.03523,31492
22.04457,29805
22.05390,32145
22.06325,33081
22.07258,34106
22.08193,33224
22.09127,31865
22.10060,30126
22.10995,29829
22.11928,27164
22.12862,27384
22.13797,30432
22.14730,32338
22.15663,35876
22.16598,36163
22.17532,32869
22.18465,29741
22.19400,28357
22.20333,27238
22.21267,25239
22.22202,28391
22.23135,27239
22.24068,28522
22.25003,28331
22.25937,27179
22.26872,26140
22.27805,28894
22.28738,31329
22.29673,28789
22.30607,28348
22.31540,27473
22.32475,26433
22.33408,27463
22.34342,26688
22.35277,27162
22.36210,26399
22.37143,25519
22.38078,25527
22.39012,24814
22.39945,24470
22.40880,24443
22.41813,24959
22.42748,24115
22.43682,24407
22.44615,24490
22.45550,26747
22.46483,25559
22.47417,25666
22.48352,24092
22.49285,25945
22.50218,24590
22.51153,26111
22.52087,24351
22.53020,24113
22.53955,24511
22.54888,24626
22.55822,24307
22.56757,27507
22.57690,28443
22.58623,27839
22.59558,30256
22.60492,29852
22.61427,26251
22.62360,27461
22.63293,26389
22.64228,26580
22.65162,25408
22.66095,22789
22.67030,25899
22.67963,26344
22.68897,26870
22.69832,27494
22.70765,26615
22.71698,25216
22.72633,26565
22.73567,26258
22.74500,28246
22.75435,30523
22.76368,29131
22.77302,27973
22.78237,26277
22.79170,26731
22.80105,25070
22.81038,25909
22.81972,26133
22.82907,27924
22.83840,27747
22.84773,26939
22.85708,26967
22.86642,27924
22.87575,26141
22.88510,25172
22.89443,25244
22.90377,24987
22.91312,23634
22.92245,25997
22.93178,25557
22.94113,26452
22.95047,26262
22.95980,27409
22.96915,24557
22.97848,23153
22.98783,23561
22.99717,24223
23.00650,24891
23.01585,24214
23.02518,25390
23.03452,22503
23.04387,23129
23.05320,24512
23.06253,25508
23.07188,25248
23.08122,24810
23.09055,24229
23.09990,22913
23.10923,23276
23.11857,24495
23.12792,24220
23.13725,23486
23.14660,23312
23.15593,24619
23.16527,23976
23.17462,24271
23.18395,25013
23.19328,23207
23.20263,24842
23.21197,23113
23.22130,23301
23.23065,23551
23.23998,24494
23.24932,25637
23.25867,23755
23.26800,22809
23.27733,22999
23.28668,23053
23.29602,23687
23.30535,26543
23.31470,30512
23.32403,37798
23.33338,41865
23.34272,37921
23.35205,30749
23.36140,26010
23.37073,26441
23.38007,28474
23.38942,27767
23.39875,27515
23.40808,27385
23.41743,25992
23.42677,26070
23.43610,27518
23.44545,28764
23.45478,30264
23.46412,29182
23.47347,29000
23.48280,27309
23.49213,25909
23.50148,24223
23.51082,24852
23.52017,23524
23.52950,24173
23.53883,24447
23.54818,25662
23.55752,25267
23.56685,25388
23.57620,26027
23.58553,26494
23.59487,24495
23.60422,25948
23.61355,26258
23.62288,23833
23.63223,25180
23.64157,23949
23.65090,24287
23.66025,24414
23.66958,23611
23.67892,26260
23.68827,25359
23.69760,24337
23.70695,24550
23.71628,24872
23.72562,28571
23.73497,31280
23.74430,30667
23.75363,27498
23.76298,28670
23.77232,24123
23.78165,26802
23.79100,26415
23.80033,25903
23.80967,25410
23.81902,25207
23.82835,24870
23.83768,25374
23.84703,25059
23.85637,23785
23.86570,26436
23.87505,26541
23.88438,27328
23.89373,26774
23.90307,25507
23.91240,26244
23.92175,24204
23.93108,25524
23.94042,24472
23.94977,26090
23.95910,25658
23.96843,26747
23.97778,24611
23.98712,25311
23.99645,25962
24.00580,24687
24.01513,25544
24.02447,23734
24.03382,24112
24.04315,24502
24.05248,23482
24.06183,25292
24.07117,25106
24.08052,25127
24.08985,23101
24.09918,25213
24.10853,24962
24.11787,24731
24.12720,24041
24.13655,25011
24.14588,25069
24.15522,25961
24.16457,24814
24.17390,26829
24.18323,26279
24.19258,23803
24.20192,24267
24.21125,24088
24.22060,25403
24.22993,24504
24.23928,26408
24.24862,23999
24.25795,24978
24.26730,24901
24.27663,23809
24.28597,24951
24.29532,25023
24.30465,26612
24.31398,26682
24.32333,30763
24.33267,34206
24.34200,29350
24.35135,30015
24.36068,25691
24.37002,26600
24.37937,26676
24.38870,28461
24.39803,25594
24.40738,27441
24.41672,25765
24.42607,26002
24.43540,26319
24.44473,26314
24.45408,25894
24.46342,26019
24.47275,26776
24.48210,26992
24.49143,26521
24.50077,26630
24.51012,24099
24.51945,26592
24.52878,26886
24.53813,26840
24.54747,26811
24.55680,26815
24.56615,24955
24.57548,26140
24.58482,25381
24.59417,27393
24.60350,26163
24.61285,28464
24.62218,27102
24.63152,26833
24.64087,26472
24.65020,26373
24.65953,27188
24.66888,26770
24.67822,26405
24.68755,25699
24.69690,24580
24.70623,26219
24.71557,26200
24.72492,26836
24.73425,24264
24.74358,25062
24.75293,25155
24.76227,25142
24.77160,25503
24.78095,26587
24.79028,26909
24.79963,26942
24.80897,26226
24.81830,25951
24.82765,26318
24.83698,27513
24.84632,27574
24.85567,26530
24.86500,26589
24.87433,27781
24.88368,28080
24.89302,27834
24.90235,28634
24.91170,27620
24.92103,28528
24.93037,26387
24.93972,27892
24.94905,28881
24.95840,28766
24.96773,28792
24.97707,26294
24.98642,26811
24.99575,26343
25.00508,28643
25.01443,26296
25.02377,26352
25.03310,28144
25.04245,25907
25.05178,26289
25.06112,26120
25.07047,27163
25.07980,27520
25.08913,25811
25.09848,28125
25.10782,26147
25.11715,26161
25.12650,27678
25.13583,25959
25.14518,27898
25.15452,26690
25.16385,27598
25.17320,28532
25.18253,27258
25.19187,27984
25.20122,27990
25.21055,26134
25.21988,29583
25.22923,28432
25.23857,29165
25.24790,26997
25.25725,27856
25.26658,25631
25.27592,26910
25.28527,29364
25.29460,27324
25.30393,29116
25.31328,27951
25.32262,27468
25.33197,28732
25.34130,28985
25.35063,26829
25.35998,27990
25.36932,29963
25.37865,31836
25.38800,31119
25.39733,31385
25.40667,29634
25.41602,29519
25.42535,31559
25.43468,30897
25.44403,31018
25.45337,31081
25.46270,31009
25.47205,31402
25.48138,31596
25.49072,34572
25.50007,35037
25.50940,34817
25.51875,34076
25.52808,32332
25.53742,31347
25.54677,30985
25.55610,29432
25.56543,30499
25.57478,30638
25.58412,30356
25.59345,31233
25.60280,29912
25.61213,29531
25.62147,29529
25.63082,29541
25.64015,30491
25.64948,32175
25.65883,34085
25.66817,33501
25.67750,32139
25.68685,30510
25.69618,30444
25.70553,31735
25.71487,28513
25.72420,30434
25.73355,30799
25.74288,30845
25.75222,32077
25.76157,29954
25.77090,30917
25.78023,30964
25.78958,30493
25.79892,31057
25.80825,33385
25.81760,33148
25.82693,33096
25.83627,32875
25.84562,31788
25.85495,31021
25.86430,32268
25.87363,30214
25.88297,31020
25.89232,30233
25.90165,30330
25.91098,30182
25.92033,28472
25.92967,29144
25.93900,32578
25.94835,32128
25.95768,31051
25.96702,32229
25.97637,31250
25.98570,31482
25.99503,30492
26.00438,31471
26.01372,30815
26.02305,31675
26.03240,31116
26.04173,32206
26.05108,31916
26.06042,30968
26.06975,32260
26.07910,30362
26.08843,31219
26.09777,31306
26.10712,32017
26.11645,31967
26.12578,33275
26.13513,34662
26.14447,35444
26.15380,34257
26.16315,32213
26.17248,33280
26.18182,34563
26.19117,31643
26.20050,34066
26.20983,32532
26.21918,33333
26.22852,31378
26.23787,33901
26.24720,33250
26.25653,34836
26.26588,34227
26.27522,33784
26.28455,33996
26.29390,34161
26.30323,34474
26.31257,34546
26.32192,34331
26.33125,33015
26.34058,33685
26.34993,35054
26.35927,34212
26.36860,32510
26.37795,32452
26.38728,32541
26.39662,32986
26.40597,34883
26.41530,33351
26.42465,34235
26.43398,32430
26.44332,34915
26.45267,34336
26.46200,34370
26.47133,34952
26.48068,34868
26.49002,36241
26.49935,35706
26.50870,35367
26.51803,36459
26.52737,34721
26.53672,36770
26.54605,34005
26.55538,36462
26.56473,35058
26.57407,36005
26.58342,35241
26.59275,35662
26.60208,37129
26.61143,35615
26.62077,36750
26.63010,34468
26.63945,37423
26.64878,36290
26.65812,37955
26.66747,37256
26.67680,34908
26.68613,34901
26.69548,34298
26.70482,34941
26.71415,34886
26.72350,34296
26.73283,34453
26.74217,35615
26.75152,36813
26.76085,37449
26.77020,37685
26.77953,36607
26.78887,39049
26.79822,38121
26.80755,37276
26.81688,35379
26.82623,36619
26.83557,37458
26.84490,36875
26.85425,37968
26.86358,37254
26.87292,38667
26.88227,37697
26.89160,35120
26.90093,37191
26.91028,37593
26.91962,35913
26.92895,38166
26.93830,35307
26.94763,39271
26.95698,37333
26.96632,38648
26.97565,38933
26.98500,41704
26.99433,39959
27.00367,40507
27.01302,41504
27.02235,40419
27.03168,40794
27.04103,40577
27.05037,39974
27.05970,39999
27.06905,39116
27.07838,37957
27.08772,38641
27.09707,41074
27.10640,41215
27.11573,40410
27.12508,39079
27.13442,38883
27.14377,38815
27.15310,39000
27.16243,38545
27.17178,40485
27.18112,38201
27.19045,41321
27.19980,39182
27.20913,41237
27.21847,40802
27.22782,40298
27.23715,40184
27.24648,41698
27.25583,41847
27.26517,42486
27.27450,42580
27.28385,41854
27.29318,39752
27.30252,42724
27.31187,41264
27.32120,39404
27.33055,40644
27.33988,39192
27.34922,40939
27.35857,41024
27.36790,41384
27.37723,41006
27.38658,41882
27.39592,40089
27.40525,44282
27.41460,42553
27.42393,43507
27.43327,44171
27.44262,44623
27.45195,44130
27.46128,40934
27.47063,43388
27.47997,42894
27.48930,43976
27.49865,44454
27.50798,47640
27.51733,45198
27.52667,45149
27.53600,43077
27.54535,43150
27.55468,45323
27.56402,44530
27.57337,43054
27.58270,43448
27.59203,43833
27.60138,43630
27.61072,44508
27.62005,45813
27.62940,45202
27.63873,43784
27.64807,44363
27.65742,45467
27.66675,47819
27.67610,43912
27.68543,43883
27.69477,46577
27.70412,44853
27.71345,46246
27.72278,46072
27.73213,45690
27.74147,46399
27.75080,46919
27.76015,48839
27.76948,49150
27.77882,49170
27.78817,48366
27.79750,48976
27.80683,48719
27.81618,49129
27.82552,49473
27.83485,49104
27.84420,48267
27.85353,50379
27.86288,48882
27.87222,49021
27.88155,48778
27.89090,48489
27.90023,47261
27.90957,50332
27.91892,48798
27.92825,48354
27.93758,50785
27.94693,50019
27.95627,48976
27.96560,51550
27.97495,47108
27.98428,51628
27.99362,50822
28.00297,51324
28.01230,52539
28.02163,50508
28.03098,50326
28.04032,51750
28.04967,50899
28.05900,51145
28.06833,52320
28.07768,51213
28.08702,52168
28.09635,54722
28.10570,55983
28.11503,54865
28.12437,55502
28.13372,54672
28.14305,55866
28.15238,53345
28.16173,52850
28.17107,53985
28.18040,54801
28.18975,55168
28.19908,55135
28.20842,53668
28.21777,54205
28.22710,53423
28.23645,56386
28.24578,56515
28.25512,56844
28.26447,53135
28.27380,55739
28.28313,57847
28.29248,57048
28.30182,55661
28.31115,55890
28.32050,58833
28.32983,57817
28.33917,57403
28.34852,58177
28.35785,58525
28.36718,55686
28.37653,56019
28.38587,58229
28.39522,58278
28.40455,60076
28.41388,60150
28.42323,60240
28.43257,58723
28.44190,59830
28.45125,60768
28.46058,57642
28.46992,60492
28.47927,61028
28.48860,60876
28.49793,62412
28.50728,60961
28.51662,62444
28.52595,61054
28.53530,60840
28.54463,59245
28.55397,60365
28.56332,64132
28.57265,61616
28.58200,62529
28.59133,62296
28.60067,63281
28.61002,64849
28.61935,63536
28.62868,63307
28.63803,66953
28.64737,63535
28.65670,63742
28.66605,65358
28.67538,67151
28.68472,67366
28.69407,67049
28.70340,67637
28.71273,65112
28.72208,65506
28.73142,66113
28.74075,67307
28.75010,65166
28.75943,69112
28.76878,65886
28.77812,67462
28.78745,68065
28.79680,71538
28.80613,65850
28.81547,66416
28.82482,69004
28.83415,68150
28.84348,70955
28.85283,69547
28.86217,69203
28.87150,72126
28.88085,70869
28.89018,73732
28.89952,70109
28.90887,72133
28.91820,70969
28.92753,70654
28.93688,70623
28.94622,69914
28.95557,71123
28.96490,69384
28.97423,70923
28.98358,72649
28.99292,72089
29.00225,73964
29.01160,75042
29.02093,72038
29.03027,72588
29.03962,71163
29.04895,76924
29.05828,77625
29.06763,77326
29.07697,76291
29.08630,75683
29.09565,75116
29.10498,75548
29.11432,75613
29.12367,77100
29.13300,76357
29.14235,75051
29.15168,76817
29.16102,77467
29.17037,76116
29.17970,77649
29.18903,78115
29.19838,78700
29.20772,79698
29.21705,73214
29.22640,77435
29.23573,76182
29.24507,77736
29.25442,78394
29.26375,77684
29.27308,78647
29.28243,77409
29.29177,79680
29.30112,78443
29.31045,78505
29.31978,78872
29.32913,80686
29.33847,79090
29.34780,82125
29.35715,80398
29.36648,78401
29.37582,82305
29.38517,77035
29.39450,80388
29.40383,78681
29.41318,77803
29.42252,81601
29.43185,81321
29.44120,81689
29.45053,79502
29.45987,84304
29.46922,84396
29.47855,85499
29.48790,84543
29.49723,83351
29.50657,83884
29.51592,85809
29.52525,81687
29.53458,80817
29.54393,82070
29.55327,83278
29.56260,83599
29.57195,83309
29.58128,84311
29.59062,81956
29.59997,82644
29.60930,86733
29.61863,83610
29.62798,81236
29.63732,83745
29.64665,83432
29.65600,84772
29.66533,84486
29.67468,85278
29.68402,84471
29.69335,82262
29.70270,83412
29.71203,81458
29.72137,82199
29.73072,86104
29.74005,84063
29.74938,82734
29.75873,82600
29.76807,85765
29.77740,85331
29.78675,85155
29.79608,84895
29.80542,83374
29.81477,86724
29.82410,86242
29.83343,84412
29.84278,86161
29.85212,87389
29.86147,81890
29.87080,84528
29.88013,86185
29.88948,86354
29.89882,84345
29.90815,83870
29.91750,87716
29.92683,86025
29.93617,85597
29.94552,88458
29.95485,84188
29.96418,87408
29.97353,83419
29.98287,86818
29.99220,84123
30.00155,87616
30.01088,85385
30.02023,89040
30.02957,84727
30.03890,85066
30.04825,84788
30.05758,89897
30.06692,88818
30.07627,87471
30.08560,86575
30.09493,85479
30.10428,88503
30.11362,86786
30.12295,86602
30.13230,87461
30.14163,88424
30.15097,87904
30.16032,90205
30.16965,90184
30.17898,87815
30.18833,87152
30.19767,88213
30.20702,85970
30.21635,87209
30.22568,88443
30.23503,87763
30.24437,88025
30.25370,86753
30.26305,89162
30.27238,87964
30.28172,89981
30.29107,86678
30.30040,88207
30.30973,83963
30.31908,87787
30.32842,87403
30.33775,87734
30.34710,87597
30.35643,90395
30.36577,85833
30.37512,89804
30.38445,91339
30.39380,90306
30.40313,88685
30.41247,90597
30.42182,88839
30.43115,89949
30.44048,90409
30.44983,89197
30.45917,88342
30.46850,90833
30.47785,88369
30.48718,87911
30.49652,91197
30.50587,89847
30.51520,91268
30.52453,91776
30.53388,89092
30.54322,91927
30.55255,91381
30.56190,93273
30.57123,90874
30.58058,92738
30.58992,95227
30.59925,96787
30.60860,96404
30.61793,96550
30.62727,100015
30.63662,98955
30.64595,102221
30.65528,102304
30.66463,106128
30.67397,101948
30.68330,100830
30.69265,104162
30.70198,102136
30.71132,100791
30.72067,101983
30.73000,99325
30.73933,96297
30.74868,96098
30.75802,98324
30.76737,96976
30.77670,97334
30.78603,95963
30.79538,99051
30.80472,98051
30.81405,96159
30.82340,98848
30.83273,98598
30.84207,99739
30.85142,100247
30.86075,103127
30.87008,102316
30.87943,102721
30.88877,103350
30.89810,103806
30.90745,106003
30.91678,108977
30.92612,109068
30.93547,109052
30.94480,107036
30.95415,108567
30.96348,108293
30.97282,107421
30.98217,105584
30.99150,106534
31.00083,109797
31.01018,106773
31.01952,105197
31.02885,106938
31.03820,102495
31.04753,103529
31.05687,105139
31.06622,103339
31.07555,103549
31.08488,101887
31.09423,99410
31.10357,99599
31.11292,101354
31.12225,101037
31.13158,100723
31.14093,101288
31.15027,98976
31.15960,97857
31.16895,96746
31.17828,98929
31.18762,102247
31.19697,97879
31.20630,97141
31.21563,97860
31.22498,97911
31.23432,100367
31.24365,100561
31.25300,99892
31.26233,103199
31.27167,100115
31.28102,103999
31.29035,102954
31.29970,103632
31.30903,106308
31.31837,103638
31.32772,104212
31.33705,106874
31.34638,105419
31.35573,105468
31.36507,106302
