D:\数据\20220412\TEST4-ZRHX-1.D Tue Apr 12 20:18:54 2022
Start of data points
0.09768,18842
0.10702,19595
0.11637,19015
0.12570,18764
0.13503,20155
0.14438,18304
0.15372,18818
0.16305,18762
0.17240,18810
0.18173,19348
0.19108,18822
0.20042,18558
0.20975,17562
0.21910,19039
0.22843,17107
0.23777,19714
0.24712,17725
0.25645,18344
0.26578,17680
0.27513,17189
0.28447,17107
0.29380,17365
0.30315,18731
0.31248,16933
0.32182,17687
0.33117,18141
0.34050,17956
0.34983,18094
0.35918,17792
0.36852,17321
0.37787,18942
0.38720,18152
0.39653,17362
0.40588,17723
0.41522,15128
0.42455,12367
0.43390,10385
0.44323,6487
0.45257,4488
0.46192,4986
0.47125,5489
0.48058,5020
0.48993,4079
0.49927,4332
0.50860,3949
0.51795,4154
0.52728,3892
0.53662,3742
0.54597,4149
0.55530,3963
0.56465,3039
0.57398,4223
0.58332,3297
0.59267,3879
0.60200,4028
0.61133,3879
0.62068,3650
0.63002,3042
0.63935,3653
0.64870,3782
0.65803,4207
0.66737,3742
0.67672,3366
0.68605,3987
0.69538,4171
0.70473,3276
0.71407,3454
0.72340,3713
0.73275,3959
0.74208,3527
0.75143,3266
0.76077,3385
0.77010,3438
0.77945,3536
0.78878,2914
0.79812,3626
0.80747,3756
0.81680,3400
0.82613,3966
0.83548,3127
0.84482,2835
0.85415,3588
0.86350,3621
0.87283,3606
0.88217,3650
0.89152,3482
0.90085,3958
0.91018,3378
0.91953,3599
0.92887,3727
0.93822,3598
0.94755,3507
0.95688,3516
0.96623,3338
0.97557,3329
0.98490,2968
0.99425,3388
1.00358,3179
1.01292,3388
1.02227,3320
1.03160,3408
1.04093,3082
1.05028,3631
1.05962,3354
1.06895,3598
1.07830,3607
1.08763,3177
1.09698,3301
1.10632,3523
1.11565,3286
1.12500,3586
1.13433,3242
1.14367,2970
1.15302,3656
1.16235,3416
1.17168,3199
1.18103,3273
1.19037,3544
1.19970,3279
1.20905,3285
1.21838,3351
1.22772,3247
1.23707,3360
1.24640,3430
1.25573,3457
1.26508,3391
1.27442,3223
1.28377,3440
1.29310,3463
1.30243,3396
1.31178,3157
1.32112,3234
1.33045,3330
1.33980,3558
1.34913,3657
1.35847,3131
1.36782,3484
1.37715,3109
1.38648,3285
1.39583,3521
1.40517,3639
1.41450,3564
1.42385,3216
1.43318,3708
1.44252,3394
1.45187,3170
1.46120,3720
1.47055,3265
1.47988,3137
1.48922,3211
1.49857,3283
1.50790,2899
1.51723,3036
1.52658,3426
1.53592,3090
1.54525,3445
1.55460,3473
1.56393,3404
1.57327,3519
1.58262,4567
1.59195,8410
1.60128,13979
1.61063,16954
1.61997,21994
1.62930,33172
1.63865,41708
1.64798,45850
1.65733,41283
1.66667,33934
1.67600,29366
1.68535,24369
1.69468,19744
1.70402,15330
1.71337,12951
1.72270,15307
1.73203,16567
1.74138,17448
1.75072,19554
1.76005,19526
1.76940,19793
1.77873,20992
1.78807,21077
1.79742,21749
1.80675,21955
1.81610,22342
1.82543,22258
1.83477,21590
1.84412,22099
1.85345,20857
1.86278,20936
1.87213,21717
1.88147,25938
1.89080,38020
1.90015,60903
1.90948,87792
1.91882,107870
1.92817,122884
1.93750,133699
1.94683,146432
1.95618,155038
1.96552,147446
1.97485,129887
1.98420,107018
1.99353,86285
2.00288,70501
2.01222,63227
2.02155,56865
2.03090,61914
2.04023,69724
2.04957,67003
2.05892,57151
2.06825,51024
2.07758,44315
2.08693,40516
2.09627,40293
2.10560,37870
2.11495,37712
2.12428,37338
2.13362,55068
2.14297,110886
2.15230,213151
2.16163,248660
2.17098,196452
2.18032,138061
2.18967,109925
2.19900,180107
2.20833,292403
2.21768,245524
2.22702,145573
2.23635,103926
2.24570,151738
2.25503,478986
2.26437,2101955
2.27372,3933061
2.28305,3935409
2.29238,2825519
2.30173,1718478
2.31107,1154379
2.32040,2762203
2.32975,8173997
2.33908,1.012599E+07
2.34842,6711172
2.35777,3127183
2.36710,1328819
2.37645,607601
2.38578,324425
2.39512,205253
2.40447,140230
2.41380,110180
2.42313,102858
2.43248,95216
2.44182,85996
2.45115,72463
2.46050,62600
2.46983,55833
2.47917,54912
2.48852,54872
2.49785,49069
2.50718,45801
2.51653,46454
2.52587,43961
2.53520,42851
2.54455,42812
2.55388,45248
2.56323,61934
2.57257,159794
2.58190,231869
2.59125,200928
2.60058,147711
2.60992,115627
2.61927,105223
2.62860,136696
2.63793,164183
2.64728,147694
2.65662,124531
2.66595,113691
2.67530,84585
2.68463,65727
2.69397,51425
2.70332,43795
2.71265,43346
2.72198,67413
2.73133,155291
2.74067,242061
2.75002,211487
2.75935,154584
2.76868,129583
2.77803,134189
2.78737,161244
2.79670,189789
2.80605,167102
2.81538,128248
2.82472,100494
2.83407,86128
2.84340,86499
2.85273,191607
2.86208,596315
2.87142,1120720
2.88075,1091702
2.89010,632469
2.89943,292747
2.90878,144733
2.91812,84919
2.92745,64944
2.93680,54999
2.94613,49445
2.95547,45307
2.96482,43651
2.97415,41544
2.98348,39610
2.99283,41812
3.00217,41257
3.01150,44284
3.02085,50240
3.03018,119845
3.03952,294499
3.04887,325174
3.05820,236974
3.06753,154424
3.07688,110663
3.08622,88332
3.09557,70020
3.10490,54288
3.11423,43920
3.12358,39108
3.13292,38707
3.14225,38241
3.15160,46655
3.16093,74905
3.17027,136105
3.17962,152076
3.18895,109161
3.19828,70264
3.20763,50242
3.21697,42178
3.22630,37532
3.23565,35283
3.24498,32955
3.25432,32191
3.26367,32993
3.27300,34274
3.28235,31474
3.29168,31100
3.30102,31778
3.31037,32192
3.31970,32914
3.32903,31810
3.33838,33529
3.34772,32537
3.35705,31078
3.36640,29973
3.37573,29851
3.38507,30369
3.39442,30631
3.40375,29853
3.41308,33390
3.42243,39822
3.43177,42868
3.44110,39957
3.45045,37794
3.45978,37218
3.46913,35150
3.47847,34520
3.48780,32796
3.49715,32211
3.50648,30452
3.51582,31508
3.52517,29536
3.53450,29241
3.54383,31742
3.55318,43820
3.56252,88597
3.57185,167314
3.58120,202790
3.59053,163344
3.59987,107629
3.60922,89353
3.61855,77566
3.62790,61760
3.63723,51966
3.64657,46749
3.65592,39926
3.66525,36758
3.67458,35899
3.68393,37093
3.69327,34830
3.70260,33102
3.71195,32207
3.72128,33927
3.73062,38773
3.73997,41934
3.74930,36747
3.75863,33693
3.76798,31116
3.77732,30148
3.78665,29587
3.79600,30683
3.80533,30519
3.81468,37506
3.82402,46195
3.83335,47959
3.84270,41475
3.85203,36932
3.86137,36413
3.87072,34541
3.88005,32972
3.88938,34136
3.89873,40275
3.90807,45240
3.91740,45311
3.92675,42168
3.93608,44667
3.94542,56847
3.95477,55669
3.96410,49118
3.97343,40675
3.98278,37912
3.99212,32893
4.00147,32877
4.01080,30870
4.02013,30142
4.02948,36405
4.03882,62138
4.04815,116686
4.05750,159755
4.06683,137367
4.07617,90106
4.08552,67264
4.09485,65142
4.10418,60135
4.11353,51576
4.12287,41430
4.13220,37464
4.14155,33346
4.15088,33318
4.16022,30387
4.16957,31689
4.17890,30354
4.18825,28889
4.19758,27866
4.20692,30367
4.21627,32779
4.22560,32341
4.23493,32103
4.24428,31297
4.25362,29666
4.26295,29622
4.27230,29629
4.28163,30057
4.29097,29357
4.30032,29510
4.30965,30443
4.31898,33045
4.32833,38747
4.33767,42006
4.34700,40251
4.35635,35732
4.36568,30780
4.37503,30245
4.38437,29491
4.39370,30659
4.40305,28956
4.41238,28098
4.42172,27021
4.43107,25204
4.44040,26742
4.44973,27542
4.45908,27797
4.46842,30569
4.47775,35175
4.48710,40087
4.49643,37304
4.50577,34585
4.51512,30345
4.52445,28172
4.53380,26669
4.54313,29717
4.55247,27688
4.56182,26061
4.57115,26896
4.58048,28715
4.58983,25941
4.59917,28008
4.60850,27473
4.61785,28868
4.62718,27300
4.63652,28302
4.64587,28197
4.65520,32229
4.66453,31620
4.67388,31344
4.68322,29765
4.69255,32970
4.70190,38595
4.71123,40439
4.72058,40530
4.72992,35907
4.73925,36052
4.74860,31406
4.75793,29703
4.76727,28092
4.77662,27486
4.78595,28524
4.79528,29030
4.80463,27140
4.81397,30043
4.82330,32597
4.83265,35482
4.84198,33195
4.85132,30286
4.86067,26730
4.87000,28886
4.87933,31244
4.88868,33118
4.89802,31587
4.90737,31898
4.91670,30612
4.92603,31212
4.93538,31618
4.94472,33662
4.95405,31114
4.96340,29869
4.97273,27846
4.98207,27298
4.99142,26363
5.00075,26236
5.01008,27292
5.01943,27814
5.02877,29758
5.03810,31888
5.04745,29449
5.05678,27111
5.06612,27243
5.07547,28385
5.08480,30027
5.09415,29498
5.10348,31323
5.11282,28593
5.12217,26956
5.13150,26307
5.14083,28126
5.15018,26899
5.15952,27656
5.16885,26656
5.17820,28959
5.18753,29019
5.19687,29676
5.20622,29244
5.21555,26629
5.22488,26154
5.23423,25909
5.24357,26702
5.25292,28836
5.26225,29226
5.27158,35289
5.28093,59076
5.29027,106051
5.29960,120939
5.30895,95471
5.31828,62712
5.32762,47115
5.33697,41134
5.34630,33932
5.35563,28491
5.36498,27858
5.37432,27080
5.38365,29455
5.39300,31593
5.40233,34104
5.41167,32611
5.42102,31737
5.43035,29273
5.43970,27512
5.44903,26239
5.45837,26553
5.46772,24768
5.47705,24378
5.48638,27170
5.49573,26734
5.50507,27114
5.51440,26673
5.52375,29329
5.53308,29689
5.54242,29166
5.55177,27349
5.56110,27547
5.57043,25016
5.57978,27174
5.58912,26132
5.59845,25513
5.60780,24616
5.61713,25317
5.62648,24641
5.63582,23686
5.64515,25188
5.65450,24829
5.66383,26484
5.67317,25533
5.68252,28307
5.69185,26801
5.70118,30041
5.71053,32231
5.71987,33566
5.72920,34063
5.73855,31877
5.74788,29290
5.75722,32164
5.76657,33108
5.77590,33882
5.78523,30255
5.79458,26248
5.80392,27898
5.81327,26495
5.82260,26415
5.83193,29720
5.84128,29261
5.85062,27927
5.85995,27719
5.86930,26716
5.87863,28531
5.88797,29341
5.89732,29025
5.90665,30542
5.91598,41161
5.92533,64681
5.93467,75237
5.94400,60426
5.95335,46382
5.96268,38759
5.97202,32810
5.98137,29067
5.99070,27268
6.00005,27095
6.00938,26477
6.01872,25470
6.02807,22695
6.03740,20901
6.04673,18449
6.05608,16985
6.06542,16081
6.07475,15354
6.08410,15087
6.09343,14639
6.10277,15676
6.11212,15252
6.12145,17676
6.13078,24803
6.14013,31091
6.14947,28781
6.15882,20016
6.16815,15671
6.17748,13770
6.18683,12673
6.19617,12964
6.20550,12805
6.21485,13090
6.22418,14359
6.23352,15780
6.24287,15650
6.25220,14497
6.26153,14844
6.27088,19166
6.28022,21107
6.28955,17514
6.29890,14195
6.30823,12535
6.31757,10882
6.32692,10186
6.33625,11663
6.34560,9876
6.35493,9591
6.36427,9525
6.37362,10682
6.38295,15847
6.39228,25411
6.40163,53528
6.41097,103004
6.42030,119864
6.42965,78109
6.43898,32408
6.44832,15736
6.45767,13224
6.46700,14060
6.47633,13044
6.48568,13426
6.49502,12293
6.50435,11938
6.51370,12766
6.52303,13233
6.53238,12473
6.54172,12554
6.55105,12668
6.56040,11680
6.56973,10199
6.57907,10205
6.58842,10950
6.59775,12634
6.60708,12760
6.61643,12849
6.62577,13172
6.63510,13325
6.64445,13185
6.65378,12587
6.66312,13067
6.67247,13253
6.68180,13161
6.69113,13505
6.70048,13421
6.70982,14569
6.71917,12938
6.72850,11848
6.73783,11680
6.74718,12270
6.75652,11524
6.76585,10483
6.77520,10185
6.78453,12156
6.79387,12738
6.80322,14799
6.81255,15310
6.82188,14215
6.83123,11666
6.84057,11619
6.84990,10398
6.85925,11031
6.86858,10447
6.87793,10421
6.88727,10503
6.89660,10169
6.90595,11869
6.91528,12938
6.92462,10378
6.93397,11666
6.94330,11618
6.95263,10403
6.96198,11422
6.97132,11393
6.98065,11333
6.99000,10672
6.99933,10804
7.00867,10662
7.01802,12121
7.02735,12292
7.03668,10253
7.04603,9303
7.05537,9926
7.06472,9776
7.07405,9652
7.08338,10549
7.09273,9979
7.10207,10148
7.11140,11453
7.12075,11657
7.13008,13450
7.13942,12010
7.14877,10683
7.15810,11040
7.16743,10813
7.17678,11016
7.18612,9903
7.19545,10583
7.20480,10894
7.21413,11301
7.22347,16384
7.23282,28921
7.24215,47419
7.25150,49464
7.26083,32529
7.27017,22909
7.27952,19544
7.28885,17531
7.29818,16123
7.30753,15071
7.31687,12291
7.32620,10080
7.33555,10787
7.34488,9938
7.35422,10292
7.36357,10134
7.37290,11053
7.38223,15048
7.39158,28646
7.40092,60440
7.41025,93109
7.41960,96527
7.42893,69626
7.43828,39483
7.44762,20238
7.45695,14999
7.46630,13428
7.47563,13352
7.48497,14593
7.49432,12812
7.50365,13873
7.51298,11150
7.52233,12184
7.53167,11777
7.54100,10853
7.55035,11787
7.55968,12934
7.56902,13112
7.57837,14067
7.58770,12141
7.59703,12370
7.60638,11906
7.61572,12684
7.62507,12834
7.63440,13084
7.64373,13016
7.65308,11731
7.66242,12090
7.67175,12036
7.68110,20638
7.69043,68285
7.69977,195408
7.70912,305804
7.71845,245030
7.72778,110979
7.73713,34965
7.74647,17620
7.75580,14865
7.76515,14084
7.77448,14999
7.78383,15643
7.79317,15480
7.80250,14970
7.81185,11633
7.82118,12219
7.83052,13002
7.83987,12907
7.84920,14603
7.85853,23548
7.86788,37215
7.87722,42697
7.88655,35078
7.89590,24383
7.90523,26924
7.91457,42979
7.92392,54834
7.93325,46386
7.94258,32963
7.95193,27349
7.96127,24623
7.97062,21470
7.97995,21095
7.98928,22142
7.99863,18140
8.00797,15597
8.01730,14243
8.02665,15502
8.03598,19972
8.04532,25008
8.05467,24006
8.06400,18990
8.07333,14481
8.08268,15366
8.09202,17093
8.10135,17963
8.11070,18055
8.12003,17929
8.12937,16499
8.13872,16129
8.14805,15767
8.15740,17705
8.16673,16338
8.17607,15733
8.18542,15019
8.19475,15786
8.20408,14881
8.21343,16250
8.22277,15279
8.23210,16489
8.24145,15648
8.25078,17419
8.26012,15864
8.26947,14730
8.27880,13708
8.28813,13688
8.29748,12946
8.30682,12808
8.31615,11690
8.32550,11471
8.33483,13095
8.34418,12354
8.35352,11912
8.36285,11599
8.37220,12246
8.38153,12665
8.39087,12462
8.40022,12533
8.40955,15064
8.41888,16651
8.42823,16863
8.43757,15597
8.44690,14770
8.45625,14936
8.46558,15868
8.47492,17354
8.48427,16357
8.49360,15029
8.50295,15004
8.51228,15858
8.52162,13076
8.53097,15284
8.54030,14885
8.54963,15731
8.55898,16065
8.56832,16257
8.57765,13489
8.58700,14242
8.59633,15387
8.60567,15423
8.61502,14652
8.62435,14652
8.63368,13983
8.64303,14264
8.65237,13993
8.66170,13837
8.67105,14818
8.68038,15094
8.68973,15182
8.69907,16221
8.70840,16560
8.71775,15777
8.72708,16197
8.73642,16784
8.74577,20632
8.75510,24800
8.76443,22528
8.77378,20214
8.78312,17615
8.79245,25921
8.80180,44785
8.81113,64157
8.82047,58180
8.82982,36825
8.83915,22223
8.84848,15584
8.85783,16068
8.86717,16697
8.87652,16819
8.88585,17177
8.89518,17443
8.90453,17383
8.91387,16785
8.92320,17813
8.93255,18265
8.94188,17754
8.95122,17854
8.96057,16201
8.96990,15339
8.97923,15269
8.98858,14751
8.99792,14073
9.00725,14493
9.01660,14761
9.02593,12884
9.03527,15818
9.04462,16123
9.05395,16065
9.06330,18788
9.07263,20543
9.08197,23457
9.09132,24649
9.10065,23344
9.10998,18337
9.11933,18339
9.12867,21239
9.13800,24338
9.14735,22332
9.15668,19366
9.16602,16597
9.17537,14598
9.18470,16241
9.19403,15774
9.20338,18116
9.21272,21654
9.22205,29628
9.23140,41930
9.24073,44980
9.25008,31462
9.25942,21855
9.26875,15635
9.27810,14889
9.28743,15606
9.29677,15174
9.30612,16269
9.31545,21535
9.32478,29762
9.33413,34278
9.34347,29599
9.35280,26184
9.36215,40964
9.37148,66456
9.38082,72857
9.39017,59846
9.39950,43410
9.40885,32343
9.41818,30005
9.42752,26427
9.43687,23149
9.44620,18359
9.45553,16215
9.46488,15242
9.47422,15087
9.48355,16331
9.49290,18243
9.50223,19230
9.51157,16298
9.52092,15581
9.53025,17150
9.53958,19671
9.54893,24752
9.55827,33913
9.56760,37564
9.57695,29931
9.58628,23943
9.59563,22060
9.60497,25219
9.61430,23016
9.62365,17841
9.63298,15656
9.64232,16222
9.65167,16179
9.66100,16054
9.67033,16195
9.67968,15991
9.68902,15159
9.69835,14211
9.70770,15359
9.71703,29219
9.72637,102688
9.73572,344835
9.74505,676817
9.75438,744676
9.76373,528450
9.77307,303704
9.78242,179087
9.79175,124298
9.80108,91346
9.81043,79510
9.81977,73546
9.82910,72189
9.83845,78533
9.84778,79896
9.85712,69557
9.86647,52161
9.87580,47926
9.88513,53082
9.89448,55015
9.90382,58793
9.91315,62293
9.92250,57916
9.93183,51051
9.94117,39616
9.95052,33090
9.95985,37396
9.96920,84586
9.97853,212169
9.98787,348468
9.99722,320172
10.00655,170570
10.01588,65469
10.02523,37357
10.03457,28376
10.04390,25560
10.05325,29577
10.06258,33698
10.07192,37802
10.08127,37835
10.09060,30779
10.09993,35298
10.10928,98646
10.11862,273795
10.12795,441465
10.13730,416359
10.14663,502828
10.15598,1219750
10.16532,1830714
10.17465,1411271
10.18400,556089
10.19333,127748
10.20267,41589
10.21202,30087
10.22135,28584
10.23068,28183
10.24003,28810
10.24937,29221
10.25870,26173
10.26805,23971
10.27738,23404
10.28672,23156
10.29607,22784
10.30540,21918
10.31475,22554
10.32408,20882
10.33342,21642
10.34277,20396
10.35210,20917
10.36143,18585
10.37078,18350
10.38012,18673
10.38945,18456
10.39880,19541
10.40813,20617
10.41747,24591
10.42682,27683
10.43615,29791
10.44548,31896
10.45483,38257
10.46417,42140
10.47350,35350
10.48285,24242
10.49218,20489
10.50153,17111
10.51087,17457
10.52020,16499
10.52955,17782
10.53888,18426
10.54822,19375
10.55757,19951
10.56690,20363
10.57623,20138
10.58558,20070
10.59492,18883
10.60425,17897
10.61360,16964
10.62293,20037
10.63227,21710
10.64162,22489
10.65095,20181
10.66028,18981
10.66963,19415
10.67897,20710
10.68832,20992
10.69765,21491
10.70698,30326
10.71633,39738
10.72567,36584
10.73500,31223
10.74435,28602
10.75368,47218
10.76302,76180
10.77237,87994
10.78170,82645
10.79103,96966
10.80038,139974
10.80972,140234
10.81905,88468
10.82840,46154
10.83773,29680
10.84707,24895
10.85642,22352
10.86575,23971
10.87510,29146
10.88443,28624
10.89377,26046
10.90312,24291
10.91245,23466
10.92178,24085
10.93113,27814
10.94047,28199
10.94980,24202
10.95915,21871
10.96848,21147
10.97782,18699
10.98717,18458
10.99650,16508
11.00583,16099
11.01518,16338
11.02452,16466
11.03385,16614
11.04320,17984
11.05253,16884
11.06188,15909
11.07122,15641
11.08055,16040
11.08990,17385
11.09923,17313
11.10857,18223
11.11792,16474
11.12725,18332
11.13658,16704
11.14593,16380
11.15527,17959
11.16460,17075
11.17395,16619
11.18328,15701
11.19262,16580
11.20197,17275
11.21130,18117
11.22065,20046
11.22998,18459
11.23932,16937
11.24867,18254
11.25800,17589
11.26733,19504
11.27668,17525
11.28602,18396
11.29535,17250
11.30470,17866
11.31403,16850
11.32337,18396
11.33272,23014
11.34205,27574
11.35138,32261
11.36073,30365
11.37007,22597
11.37940,18384
11.38875,20678
11.39808,25468
11.40743,28499
11.41677,29122
11.42610,24425
11.43545,18446
11.44478,17326
11.45412,20166
11.46347,26480
11.47280,28543
11.48213,24901
11.49148,18213
11.50082,16547
11.51015,16448
11.51950,15773
11.52883,14578
11.53817,17007
11.54752,17528
11.55685,19915
11.56618,28098
11.57553,37209
11.58487,36528
11.59422,31443
11.60355,26536
11.61288,24244
11.62223,19383
11.63157,18612
11.64090,18682
11.65025,19290
11.65958,21463
11.66892,23599
11.67827,23294
11.68760,21647
11.69693,20013
11.70628,22106
11.71562,20433
11.72495,22471
11.73430,20524
11.74363,20743
11.75297,20911
11.76232,20429
11.77165,20709
11.78100,22886
11.79033,21992
11.79967,20967
11.80902,19333
11.81835,19851
11.82768,20597
11.83703,18074
11.84637,18771
11.85570,17776
11.86505,16265
11.87438,18757
11.88372,19449
11.89307,18534
11.90240,17684
11.91173,16243
11.92108,17672
11.93042,18119
11.93977,24167
11.94910,25652
11.95843,22999
11.96778,20459
11.97712,18959
11.98645,19297
11.99580,20569
12.00513,24786
12.01447,28959
12.02382,27279
12.03315,22438
12.04248,19739
12.05183,18506
12.06117,17449
12.07050,16175
12.07985,15238
12.08918,16394
12.09852,17177
12.10787,16927
12.11720,15890
12.12655,16034
12.13588,17404
12.14522,19061
12.15457,27625
12.16390,50577
12.17323,78176
12.18258,77059
12.19192,47476
12.20125,26840
12.21060,21654
12.21993,25908
12.22927,28359
12.23862,26996
12.24795,21497
12.25728,20527
12.26663,28219
12.27597,34780
12.28530,38448
12.29465,32632
12.30398,22663
12.31333,21133
12.32267,19528
12.33200,21576
12.34135,22374
12.35068,21000
12.36002,18489
12.36937,17975
12.37870,18597
12.38803,19695
12.39738,18331
12.40672,18137
12.41605,17788
12.42540,18555
12.43473,17172
12.44407,18254
12.45342,19808
12.46275,21021
12.47208,22743
12.48143,22616
12.49077,21510
12.50012,22084
12.50945,22287
12.51878,23875
12.52813,22538
12.53747,21834
12.54680,21031
12.55615,27862
12.56548,28709
12.57482,25865
12.58417,22722
12.59350,20125
12.60283,20189
12.61218,20672
12.62152,22597
12.63085,26885
12.64020,28797
12.64953,28405
12.65887,27994
12.66822,23322
12.67755,19466
12.68690,17445
12.69623,17709
12.70557,18535
12.71492,19254
12.72425,18961
12.73358,19258
12.74293,19841
12.75227,21130
12.76160,20378
12.77095,17530
12.78028,17473
12.78962,16605
12.79897,16786
12.80830,17844
12.81763,18573
12.82698,20455
12.83632,18864
12.84567,17758
12.85500,17910
12.86433,17225
12.87368,16818
12.88302,18046
12.89235,17585
12.90170,19684
12.91103,18198
12.92037,16783
12.92972,16400
12.93905,17961
12.94838,18153
12.95773,18451
12.96707,16884
12.97640,16738
12.98575,15223
12.99508,14856
13.00442,15827
13.01377,17695
13.02310,21913
13.03245,24039
13.04178,22525
13.05112,17447
13.06047,17125
13.06980,18570
13.07913,19288
13.08848,19073
13.09782,18523
13.10715,18011
13.11650,18351
13.12583,19455
13.13517,22019
13.14452,20821
13.15385,18890
13.16318,20297
13.17253,19309
13.18187,24477
13.19120,37582
13.20055,75248
13.20988,104197
13.21923,84285
13.22857,53522
13.23790,47574
13.24725,48073
13.25658,37839
13.26592,27523
13.27527,22878
13.28460,22265
13.29393,21091
13.30328,20623
13.31262,24540
13.32195,26045
13.33130,23455
13.34063,21439
13.34997,20219
13.35932,18920
13.36865,18980
13.37798,19820
13.38733,23718
13.39667,26088
13.40602,26891
13.41535,21487
13.42468,21080
13.43403,22919
13.44337,21598
13.45270,20632
13.46205,21043
13.47138,20204
13.48072,21710
13.49007,19088
13.49940,20225
13.50873,29497
13.51808,45776
13.52742,55887
13.53675,42632
13.54610,27078
13.55543,21610
13.56478,17828
13.57412,17885
13.58345,17553
13.59280,19339
13.60213,17928
13.61147,18044
13.62082,18553
13.63015,18627
13.63948,18775
13.64883,22080
13.65817,24306
13.66750,22255
13.67685,19352
13.68618,16550
13.69552,15982
13.70487,16434
13.71420,15983
13.72353,15836
13.73288,15640
13.74222,16828
13.75157,16786
13.76090,17152
13.77023,16752
13.77958,16681
13.78892,18224
13.79825,21251
13.80760,23162
13.81693,21929
13.82627,19514
13.83562,19234
13.84495,18156
13.85428,17834
13.86363,19469
13.87297,22449
13.88230,28494
13.89165,42220
13.90098,75624
13.91032,126506
13.91967,139617
13.92900,88101
13.93835,41994
13.94768,28881
13.95702,24728
13.96637,22842
13.97570,21020
13.98503,20271
13.99438,20797
14.00372,21072
14.01305,19585
14.02240,20910
14.03173,42094
14.04107,241447
14.05042,1347656
14.05975,3769826
14.06908,5133225
14.07843,3320757
14.08777,1048006
14.09710,194056
14.10645,54998
14.11578,39642
14.12513,33435
14.13447,29774
14.14380,31354
14.15315,33671
14.16248,34568
14.17182,31083
14.18117,30898
14.19050,33183
14.19983,33713
14.20918,29696
14.21852,24599
14.22785,21278
14.23720,20028
14.24653,19937
14.25587,22971
14.26522,22749
14.27455,22447
14.28388,21686
14.29323,21618
14.30257,22853
14.31192,29536
14.32125,39198
14.33058,38893
14.33993,33120
14.34927,27141
14.35860,20943
14.36795,21097
14.37728,20853
14.38662,21108
14.39597,22276
14.40530,21839
14.41463,19774
14.42398,18445
14.43332,20056
14.44265,23780
14.45200,31482
14.46133,42139
14.47067,46195
14.48002,37436
14.48935,29315
14.49870,24339
14.50803,21119
14.51737,18533
14.52672,21488
14.53605,21401
14.54538,21728
14.55473,22232
14.56407,23658
14.57340,22958
14.58275,21131
14.59208,21045
14.60142,19958
14.61077,20352
14.62010,20644
14.62943,21431
14.63878,22269
14.64812,25754
14.65747,26665
14.66680,25917
14.67613,25720
14.68548,23624
14.69482,22964
14.70415,21253
14.71350,20497
14.72283,21137
14.73217,21306
14.74152,22597
14.75085,22575
14.76018,21290
14.76953,21298
14.77887,22071
14.78820,22213
14.79755,23066
14.80688,23002
14.81622,22755
14.82557,24020
14.83490,23335
14.84425,28516
14.85358,38406
14.86292,41980
14.87227,37414
14.88160,28570
14.89093,22782
14.90028,23275
14.90962,20943
14.91895,22396
14.92830,22178
14.93763,21554
14.94697,20795
14.95632,20827
14.96565,24449
14.97498,24704
14.98433,23162
14.99367,28548
15.00300,34852
15.01235,36452
15.02168,31024
15.03103,32425
15.04037,35596
15.04970,40160
15.05905,34632
15.06838,30652
15.07772,25750
15.08707,22175
15.09640,22337
15.10573,24767
15.11508,31695
15.12442,42671
15.13375,42123
15.14310,33520
15.15243,25760
15.16177,21975
15.17112,21609
15.18045,24385
15.18978,30320
15.19913,44860
15.20847,62645
15.21782,64524
15.22715,52376
15.23648,36680
15.24583,30030
15.25517,25326
15.26450,27396
15.27385,27742
15.28318,26713
15.29252,24400
15.30187,24360
15.31120,27904
15.32053,37113
15.32988,41865
15.33922,39535
15.34855,31822
15.35790,33995
15.36723,37575
15.37658,37272
15.38592,27856
15.39525,23634
15.40460,23959
15.41393,27731
15.42327,27847
15.43262,25182
15.44195,22665
15.45128,21827
15.46063,22698
15.46997,24742
15.47930,24691
15.48865,26949
15.49798,33634
15.50732,42876
15.51667,50955
15.52600,45335
15.53533,35124
15.54468,25310
15.55402,23632
15.56337,24484
15.57270,25022
15.58203,24427
15.59138,23688
15.60072,24786
15.61005,25823
15.61940,28617
15.62873,33840
15.63807,37733
15.64742,38941
15.65675,37918
15.66608,33381
15.67543,29339
15.68477,32086
15.69410,36878
15.70345,41482
15.71278,42187
15.72212,34744
15.73147,35439
15.74080,36785
15.75015,38807
15.75948,38355
15.76882,36650
15.77817,34149
15.78750,32163
15.79683,31886
15.80618,35570
15.81552,62242
15.82485,157234
15.83420,337570
15.84353,392189
15.85287,248224
15.86222,110040
15.87155,62102
15.88088,53708
15.89023,54999
15.89957,57737
15.90890,51101
15.91825,41872
15.92758,36096
15.93693,30967
15.94627,33889
15.95560,32902
15.96495,33460
15.97428,40340
15.98362,45781
15.99297,48876
16.00230,43420
16.01163,35150
16.02098,31785
16.03032,34810
16.03965,35330
16.04900,39235
16.05833,40985
16.06767,40332
16.07702,38079
16.08635,35314
16.09568,33205
16.10503,31720
16.11437,37745
16.12372,40079
16.13305,35418
16.14238,33002
16.15173,36577
16.16107,33546
16.17040,29759
16.17975,28025
16.18908,28135
16.19842,31155
16.20777,32800
16.21710,34499
16.22643,37602
16.23578,38493
16.24512,41097
16.25445,36923
16.26380,37986
16.27313,46591
16.28248,78893
16.29182,123118
16.30115,136138
16.31050,96726
16.31983,59059
16.32917,41285
16.33852,34947
16.34785,28120
16.35718,26494
16.36653,23542
16.37587,27324
16.38520,27935
16.39455,33104
16.40388,37240
16.41322,40975
16.42257,38454
16.43190,35862
16.44123,34692
16.45058,38478
16.45992,36950
16.46927,34296
16.47860,30878
16.48793,30524
16.49728,31270
16.50662,34254
16.51595,33476
16.52530,32385
16.53463,30449
16.54397,28184
16.55332,28006
16.56265,27988
16.57198,31412
16.58133,30259
16.59067,30475
16.60000,30365
16.60935,34344
16.61868,38239
16.62802,42045
16.63737,40082
16.64670,35091
16.65605,33520
16.66538,33016
16.67472,33923
16.68407,40305
16.69340,46201
16.70273,46761
16.71208,36721
16.72142,32803
16.73075,43964
16.74010,64535
16.74943,78936
16.75877,65625
16.76812,41858
16.77745,31809
16.78678,30004
16.79613,28913
16.80547,31215
16.81480,35080
16.82415,44635
16.83348,45471
16.84283,39225
16.85217,33653
16.86150,30468
16.87085,28862
16.88018,30828
16.88952,34083
16.89887,42803
16.90820,55162
16.91753,58397
16.92688,52418
16.93622,47484
16.94555,46673
16.95490,45195
16.96423,44887
16.97357,37776
16.98292,32179
16.99225,31939
17.00160,31563
17.01093,38510
17.02027,57012
17.02962,70661
17.03895,65086
17.04828,47248
17.05763,41997
17.06697,36542
17.07630,36472
17.08565,33606
17.09498,33509
17.10432,32394
17.11367,34307
17.12300,37150
17.13233,45357
17.14168,40934
17.15102,35408
17.16035,30458
17.16970,30319
17.17903,27860
17.18838,27563
17.19772,28612
17.20705,29045
17.21640,28911
17.22573,28143
17.23507,27735
17.24442,29157
17.25375,29853
17.26308,29877
17.27243,33091
17.28177,32479
17.29110,30314
17.30045,32312
17.30978,35103
17.31912,38895
17.32847,39953
17.33780,35942
17.34713,34031
17.35648,36872
17.36582,52347
17.37517,87569
17.38450,116693
17.39383,98306
17.40318,58823
17.41252,44200
17.42185,42825
17.43120,40118
17.44053,40309
17.44987,40042
17.45922,36032
17.46855,34206
17.47788,63460
17.48723,252481
17.49657,1010389
17.50590,2098574
17.51525,2042666
17.52458,1025416
17.53392,276947
17.54327,80767
17.55260,47778
17.56195,46701
17.57128,44253
17.58062,46319
17.58997,44679
17.59930,39784
17.60863,36094
17.61798,35716
17.62732,38166
17.63665,35609
17.64600,39586
17.65533,42381
17.66467,45639
17.67402,44344
17.68335,45437
17.69268,49689
17.70203,47727
17.71137,44965
17.72070,38157
17.73005,37710
17.73938,37556
17.74873,42245
17.75807,45214
17.76740,47413
17.77675,41541
17.78608,34130
17.79542,31505
17.80477,29969
17.81410,34094
17.82343,36790
17.83278,36399
17.84212,38061
17.85145,45785
17.86080,49068
17.87013,45784
17.87947,44383
17.88882,41673
17.89815,37652
17.90748,33054
17.91683,29643
17.92617,30586
17.93552,31458
17.94485,33184
17.95418,36615
17.96353,37324
17.97287,36977
17.98220,31797
17.99155,29740
18.00088,30584
18.01022,29483
18.01957,27334
18.02890,29554
18.03823,33574
18.04758,36627
18.05692,36324
18.06625,32228
18.07560,29705
18.08493,29914
18.09428,32225
18.10362,34702
18.11295,36048
18.12230,35712
18.13163,35418
18.14097,36533
18.15032,38351
18.15965,39199
18.16898,35617
18.17833,32682
18.18767,29064
18.19700,28605
18.20635,30424
18.21568,31250
18.22502,32578
18.23437,30440
18.24370,29550
18.25303,30520
18.26238,31617
18.27172,37559
18.28107,38089
18.29040,42276
18.29973,42684
18.30908,42284
18.31842,42472
18.32775,48332
18.33710,55279
18.34643,56728
18.35577,53356
18.36512,43671
18.37445,34327
18.38378,31296
18.39313,30590
18.40247,32642
18.41180,33380
18.42115,34153
18.43048,39682
18.43982,43806
18.44917,43390
18.45850,35586
18.46785,35344
18.47718,35610
18.48652,43185
18.49587,57034
18.50520,71736
18.51453,70605
18.52388,59815
18.53322,46632
18.54255,42545
18.55190,42492
18.56123,36587
18.57057,30832
18.57992,29827
18.58925,31734
18.59858,38066
18.60793,41649
18.61727,43210
18.62660,42462
18.63595,43047
18.64528,37552
18.65463,34061
18.66397,33595
18.67330,30781
18.68265,32047
18.69198,33333
18.70132,38198
18.71067,40613
18.72000,43658
18.72933,39833
18.73868,39750
18.74802,36363
18.75735,33997
18.76670,28298
18.77603,28989
18.78537,31800
18.79472,31962
18.80405,35034
18.81340,33808
18.82273,31767
18.83207,31525
18.84142,32075
18.85075,30060
18.86008,29741
18.86943,28374
18.87877,29332
18.88810,34823
18.89745,40894
18.90678,49953
18.91612,47860
18.92547,43941
18.93480,41634
18.94413,46231
18.95348,47075
18.96282,50070
18.97215,45897
18.98150,40916
18.99083,38265
19.00018,35676
19.00952,35037
19.01885,36005
19.02820,42660
19.03753,55492
19.04687,67385
19.05622,76290
19.06555,92891
19.07488,140679
19.08423,172204
19.09357,139265
19.10290,82734
19.11225,48786
19.12158,38983
19.13092,35305
19.14027,33357
19.14960,32329
19.15893,31443
19.16828,33279
19.17762,35295
19.18697,38649
19.19630,42664
19.20563,48234
19.21498,48952
19.22432,42306
19.23365,38834
19.24300,31398
19.25233,31561
19.26167,32096
19.27102,33531
19.28035,35800
19.28968,36319
19.29903,38377
19.30837,41713
19.31770,42113
19.32705,37658
19.33638,32116
19.34572,31336
19.35507,29505
19.36440,29773
19.37375,29851
19.38308,30423
19.39242,34787
19.40177,38532
19.41110,37916
19.42043,32102
19.42978,30313
19.43912,29449
19.44845,28149
19.45780,28986
19.46713,29310
19.47647,30458
19.48582,32045
19.49515,31937
19.50448,29658
19.51383,28253
19.52317,30435
19.53250,28685
19.54185,30595
19.55118,28773
19.56053,29742
19.56987,30178
19.57920,33789
19.58855,31804
19.59788,31175
19.60722,29387
19.61657,32184
19.62590,34789
19.63523,35530
19.64458,34718
19.65392,30675
19.66325,31109
19.67260,31136
19.68193,29888
19.69127,29799
19.70062,32673
19.70995,39895
19.71930,50086
19.72863,52005
19.73797,45906
19.74732,36572
19.75665,33383
19.76598,34579
19.77533,36400
19.78467,40152
19.79400,37353
19.80335,35968
19.81268,35149
19.82202,33092
19.83137,31076
19.84070,31966
19.85003,32368
19.85938,38700
19.86872,47719
19.87805,50348
19.88740,42669
19.89673,33932
19.90608,33899
19.91542,37038
19.92475,34610
19.93410,35157
19.94343,31197
19.95277,33051
19.96212,32675
19.97145,32164
19.98078,28291
19.99013,28771
19.99947,27172
20.00880,29116
20.01815,33407
20.02748,35928
20.03682,40457
20.04617,39347
20.05550,32843
20.06483,32144
20.07418,34946
20.08352,31843
20.09287,30610
20.10220,28044
20.11153,27893
20.12088,27228
20.13022,32623
20.13955,44276
20.14890,51752
20.15823,51420
20.16757,39037
20.17692,32264
20.18625,27666
20.19558,27750
20.20493,28483
20.21427,28609
20.22360,27718
20.23295,26131
20.24228,26501
20.25162,25674
20.26097,25094
20.27030,25570
20.27965,28082
20.28898,30360
20.29832,28163
20.30767,25900
20.31700,26032
20.32633,25922
20.33568,27494
20.34502,28576
20.35435,30155
20.36370,30938
20.37303,31124
20.38237,28092
20.39172,28360
20.40105,27059
20.41038,26594
20.41973,27043
20.42907,26712
20.43842,28242
20.44775,30196
20.45708,34982
20.46643,43174
20.47577,41344
20.48510,36186
20.49445,30086
20.50378,29567
20.51312,29049
20.52247,26243
20.53180,28045
20.54113,32349
20.55048,53376
20.55982,135114
20.56915,289607
20.57850,334718
20.58783,193332
20.59717,80878
20.60652,44458
20.61585,37268
20.62520,37195
20.63453,36021
20.64387,37271
20.65322,42410
20.66255,46353
20.67188,47555
20.68123,41584
20.69057,38151
20.69990,37509
20.70925,36643
20.71858,34346
20.72792,32999
20.73727,31942
20.74660,31902
20.75593,28781
20.76528,27107
20.77462,28158
20.78395,29585
20.79330,31968
20.80263,34481
20.81198,31558
20.82132,29850
20.83065,27934
20.84000,27678
20.84933,27566
20.85867,26867
20.86802,26636
20.87735,28210
20.88668,27848
20.89603,28013
20.90537,29271
20.91470,28303
20.92405,25818
20.93338,25492
20.94272,26256
20.95207,27892
20.96140,25483
20.97073,24880
20.98008,25728
20.98942,24552
20.99877,27644
21.00810,27152
21.01743,27723
21.02678,24958
21.03612,27571
21.04545,26820
21.05480,25978
21.06413,26097
21.07347,26701
21.08282,26042
21.09215,29360
21.10148,30186
21.11083,30147
21.12017,33461
21.12950,35101
21.13885,34871
21.14818,32233
21.15752,28842
21.16687,29532
21.17620,32527
21.18555,38856
21.19488,40284
21.20422,40358
21.21357,36180
21.22290,36117
21.23223,34345
21.24158,32327
21.25092,34797
21.26025,43551
21.26960,58993
21.27893,69002
21.28827,65849
21.29762,51943
21.30695,39559
21.31628,33339
21.32563,30439
21.33497,28100
21.34430,28571
21.35365,28238
21.36298,29021
21.37233,29426
21.38167,27469
21.39100,31726
21.40035,40639
21.40968,49337
21.41902,49236
21.42837,40392
21.43770,34463
21.44703,30865
21.45638,30367
21.46572,34469
21.47505,36591
21.48440,36963
21.49373,34056
21.50307,29985
21.51242,28326
21.52175,27274
21.53110,25791
21.54043,25782
21.54977,26264
21.55912,27820
21.56845,32423
21.57778,39159
21.58713,39690
21.59647,35291
21.60580,30358
21.61515,29122
21.62448,27228
21.63382,26586
21.64317,25646
21.65250,25305
21.66183,25170
21.67118,26651
21.68052,27351
21.68985,25111
21.69920,27141
21.70853,27701
21.71788,28866
21.72722,27614
21.73655,28887
21.74590,26048
21.75523,26003
21.76457,24530
21.77392,24943
21.78325,24764
21.79258,25326
21.80193,26275
21.81127,29312
21.82060,29839
21.82995,30124
21.83928,28375
21.84862,27824
21.85797,27917
21.86730,29906
21.87663,32842
21.88598,36300
21.89532,36998
21.90467,32386
21.91400,33117
21.92333,31377
21.93268,31758
21.94202,28497
21.95135,28184
21.96070,33528
21.97003,47938
21.97937,65508
21.98872,77362
21.99805,61189
22.00738,40538
22.01673,30921
22.02607,31185
22.03540,29386
22.04475,29828
22.05408,32262
22.06342,33126
22.07277,36513
22.08210,37433
22.09145,35952
22.10078,34878
22.11012,34189
22.11947,33919
22.12880,30553
22.13813,29497
22.14748,33472
22.15682,34534
22.16615,35748
22.17550,33358
22.18483,28761
22.19417,27678
22.20352,26831
22.21285,26960
22.22218,27026
22.23153,25908
22.24087,27213
22.25022,27544
22.25955,26564
22.26888,28068
22.27823,29013
22.28757,30304
22.29690,28254
22.30625,29716
22.31558,27451
22.32492,27940
22.33427,26565
22.34360,27492
22.35293,26304
22.36228,27245
22.37162,26886
22.38095,27711
22.39030,30669
22.39963,28786
22.40897,26582
22.41832,25893
22.42765,26656
22.43700,28063
22.44633,27958
22.45567,29592
22.46502,29616
22.47435,27844
22.48368,28354
22.49303,24750
22.50237,25216
22.51170,25774
22.52105,25636
22.53038,24788
22.53972,25741
22.54907,25196
22.55840,28677
22.56773,30381
22.57708,31237
22.58642,32810
22.59575,32263
22.60510,31004
22.61443,29372
22.62378,28298
22.63312,28592
22.64245,27055
22.65180,26880
22.66113,26412
22.67047,27054
22.67982,29270
22.68915,34082
22.69848,29348
22.70783,27173
22.71717,27911
22.72650,27801
22.73585,29263
22.74518,31369
22.75452,29531
22.76387,29942
22.77320,29215
22.78253,27649
22.79188,26372
22.80122,24722
22.81057,25227
22.81990,25159
22.82923,27972
22.83858,29065
22.84792,29368
22.85725,30484
22.86660,28085
22.87593,27627
22.88527,27268
22.89462,25469
22.90395,25104
22.91328,25569
22.92263,23957
22.93197,27621
22.94130,31577
22.95065,38359
22.95998,36751
22.96932,32246
22.97867,27298
22.98800,27102
22.99735,25962
23.00668,24098
23.01602,24942
23.02537,24447
23.03470,22649
23.04403,24719
23.05338,25676
23.06272,25335
23.07205,25008
23.08140,24173
23.09073,24144
23.10007,24516
23.10942,24591
23.11875,27272
23.12808,25042
23.13743,24793
23.14677,24402
23.15612,26862
23.16545,28668
23.17478,27816
23.18413,27241
23.19347,24741
23.20280,25247
23.21215,24896
23.22148,24914
23.23082,28094
23.24017,28948
23.24950,28614
23.25883,25437
23.26818,25644
23.27752,25324
23.28685,24617
23.29620,25399
23.30553,30286
23.31487,46265
23.32422,68488
23.33355,77913
23.34290,61424
23.35223,38606
23.36157,30744
23.37092,26687
23.38025,28412
23.38958,28621
23.39893,29833
23.40827,31818
23.41760,31389
23.42695,29338
23.43628,29166
23.44562,30256
23.45497,29954
23.46430,30702
23.47363,29590
23.48298,30361
23.49232,27178
23.50165,26741
23.51100,25562
23.52033,27158
23.52968,26215
23.53902,27329
23.54835,26214
23.55770,28586
23.56703,28761
23.57637,25846
23.58572,27377
23.59505,25120
23.60438,24954
23.61373,26612
23.62307,24771
23.63240,24534
23.64175,25276
23.65108,25043
23.66042,25713
23.66977,27433
23.67910,27200
23.68843,25885
23.69778,25312
23.70712,24535
23.71647,24102
23.72580,25152
23.73513,24578
23.74448,27203
23.75382,24220
23.76315,25599
23.77250,25733
23.78183,27467
23.79117,24341
23.80052,24773
23.80985,25754
23.81918,22456
23.82853,23363
23.83787,24036
23.84720,24665
23.85655,25189
23.86588,26454
23.87523,27131
23.88457,26964
23.89390,26173
23.90325,25620
23.91258,24862
23.92192,24395
23.93127,25174
23.94060,25747
23.94993,24665
23.95928,25489
23.96862,26006
23.97795,24457
23.98730,24314
23.99663,25511
24.00597,26331
24.01532,25091
24.02465,23584
24.03398,23074
24.04333,23167
24.05267,22687
24.06202,23540
24.07135,25278
24.08068,26739
24.09003,26420
24.09937,25715
24.10870,25890
24.11805,24628
24.12738,26279
24.13672,26325
24.14607,27662
24.15540,30591
24.16473,32968
24.17408,36976
24.18342,35635
24.19275,28848
24.20210,26226
24.21143,25591
24.22077,25486
24.23012,25507
24.23945,26590
24.24880,24694
24.25813,26425
24.26747,26170
24.27682,23960
24.28615,24514
24.29548,24392
24.30483,24824
24.31417,25013
24.32350,24424
24.33285,26372
24.34218,25652
24.35152,23744
24.36087,25451
24.37020,24985
24.37953,26410
24.38888,25514
24.39822,27216
24.40755,25258
24.41690,24086
24.42623,24352
24.43558,24623
24.44492,23950
24.45425,25008
24.46360,25598
24.47293,25976
24.48227,26462
24.49162,26317
24.50095,26135
24.51028,27536
24.51963,28189
24.52897,26278
24.53830,25918
24.54765,25929
24.55698,25740
24.56632,24983
24.57567,26485
24.58500,26202
24.59433,28607
24.60368,29667
24.61302,29091
24.62237,28236
24.63170,25970
24.64103,27395
24.65038,25171
24.65972,26698
24.66905,25308
24.67840,26755
24.68773,24917
24.69707,25553
24.70642,25920
24.71575,26366
24.72508,25642
24.73443,24798
24.74377,26364
24.75310,26320
24.76245,25409
24.77178,25031
24.78112,23977
24.79047,26161
24.79980,26870
24.80915,25130
24.81848,26662
24.82782,25189
24.83717,26405
24.84650,24676
24.85583,25266
24.86518,23966
24.87452,24117
24.88385,25972
24.89320,25530
24.90253,26621
24.91187,25885
24.92122,26425
24.93055,26363
24.93988,27291
24.94923,27732
24.95857,27957
24.96792,26634
24.97725,26578
24.98658,27943
24.99593,27197
25.00527,26277
25.01460,25629
25.02395,26309
25.03328,25576
25.04262,27581
25.05197,26470
25.06130,26042
25.07063,26015
25.07998,27409
25.08932,26541
25.09865,27807
25.10800,28362
25.11733,28445
25.12667,27274
25.13602,27001
25.14535,27536
25.15470,27896
25.16403,27804
25.17337,28212
25.18272,29150
25.19205,26883
25.20138,25776
25.21073,26945
25.22007,27807
25.22940,26825
25.23875,29185
25.24808,27834
25.25742,27114
25.26677,27483
25.27610,26104
25.28543,25417
25.29478,26718
25.30412,25818
25.31345,27139
25.32280,28444
25.33213,28399
25.34148,31209
25.35082,33033
25.36015,34541
25.36950,35094
25.37883,32428
25.38817,32805
25.39752,30480
25.40685,31257
25.41618,31860
25.42553,31360
25.43487,31762
25.44420,29907
25.45355,29081
25.46288,29824
25.47222,30609
25.48157,32715
25.49090,34947
25.50023,33530
25.50958,33062
25.51892,32957
25.52827,30987
25.53760,30154
25.54693,27889
25.55628,30346
25.56562,30319
25.57495,28921
25.58430,30016
25.59363,28864
25.60297,27569
25.61232,29030
25.62165,28416
25.63098,31331
25.64033,30517
25.64967,31281
25.65900,32293
25.66835,29578
25.67768,29424
25.68703,29283
25.69637,29609
25.70570,30233
25.71505,30125
25.72438,30616
25.73372,29073
25.74307,29642
25.75240,31056
25.76173,29960
25.77108,29851
25.78042,29411
25.78975,30788
25.79910,29185
25.80843,31724
25.81777,33111
25.82712,35527
25.83645,34710
25.84578,31913
25.85513,32716
25.86447,29070
25.87382,29924
25.88315,29025
25.89248,29527
25.90183,31758
25.91117,28909
25.92050,32528
25.92985,33164
25.93918,31072
25.94852,32283
25.95787,30297
25.96720,29588
25.97653,31324
25.98588,29961
25.99522,29483
26.00455,31148
26.01390,29168
26.02323,30127
26.03257,29680
26.04192,29267
26.05125,30300
26.06060,30107
26.06993,33088
26.07927,32014
26.08862,30838
26.09795,29384
26.10728,28454
26.11663,29032
26.12597,32301
26.13530,31513
26.14465,31286
26.15398,31490
26.16332,30951
26.17267,30102
26.18200,29588
26.19133,28725
26.20068,30053
26.21002,29528
26.21935,30872
26.22870,30423
26.23803,30913
26.24738,30606
26.25672,28978
26.26605,29615
26.27540,28995
26.28473,29735
26.29407,32718
26.30342,33586
26.31275,30415
26.32208,31426
26.33143,30835
26.34077,32697
26.35010,31968
26.35945,30758
26.36878,31458
26.37812,30646
26.38747,31630
26.39680,31825
26.40613,31295
26.41548,31709
26.42482,31858
26.43417,32729
26.44350,31451
26.45283,32313
26.46218,32071
26.47152,30997
26.48085,32879
26.49020,33539
26.49953,33270
26.50887,31073
26.51822,32128
26.52755,32525
26.53688,32318
26.54623,31569
26.55557,29554
26.56490,33256
26.57425,31242
26.58358,33762
26.59293,32444
26.60227,31931
26.61160,34654
26.62095,33406
26.63028,35147
26.63962,37458
26.64897,36955
26.65830,35782
26.66763,35516
26.67698,37535
26.68632,35354
26.69565,34757
26.70500,32678
26.71433,32647
26.72367,31953
26.73302,34549
26.74235,33657
26.75168,32309
26.76103,33210
26.77037,32177
26.77972,33134
26.78905,31324
26.79838,33187
26.80773,30374
26.81707,33108
26.82640,31213
26.83575,30884
26.84508,32354
26.85442,33746
26.86377,33650
26.87310,34437
26.88243,33482
26.89178,34840
26.90112,33412
26.91045,34246
26.91980,33932
26.92913,33906
26.93847,32663
26.94782,33509
26.95715,32091
26.96650,33539
26.97583,34191
26.98517,33718
26.99452,34893
27.00385,32993
27.01318,33796
27.02253,33612
27.03187,35122
27.04120,34720
27.05055,33961
27.05988,33912
27.06922,33399
27.07857,34869
27.08790,33354
27.09723,33124
27.10658,33001
27.11592,34822
27.12525,34036
27.13460,33630
27.14393,34947
27.15328,34561
27.16262,33792
27.17195,34833
27.18130,33750
27.19063,34309
27.19997,33738
27.20932,34288
27.21865,34649
27.22798,32618
27.23733,34985
27.24667,34905
27.25600,35702
27.26535,37020
27.27468,34512
27.28402,35015
27.29337,35758
27.30270,35591
27.31205,34373
27.32138,34715
27.33072,35162
27.34007,35226
27.34940,32724
27.35873,35159
27.36808,34280
27.37742,35194
27.38675,35021
27.39610,33623
27.40543,36298
27.41477,37220
27.42412,38308
27.43345,38221
27.44278,40262
27.45213,37112
27.46147,36390
27.47080,38620
27.48015,37308
27.48948,36815
27.49883,39360
27.50817,38273
27.51750,39053
27.52685,37433
27.53618,36514
27.54552,37363
27.55487,35864
27.56420,38162
27.57353,36585
27.58288,35970
27.59222,38174
27.60155,36720
27.61090,35319
27.62023,39197
27.62957,35461
27.63892,36508
27.64825,37655
27.65758,38443
27.66693,37780
27.67627,37825
27.68562,36705
27.69495,39704
27.70428,40055
27.71363,39902
27.72297,40122
27.73230,39557
27.74165,41422
27.75098,41357
27.76032,40269
27.76967,39898
27.77900,41024
27.78833,41136
27.79768,38664
27.80702,38752
27.81635,40471
27.82570,41794
27.83503,42477
27.84437,40384
27.85372,40174
27.86305,39457
27.87240,39763
27.88173,40274
27.89107,41003
27.90042,44244
27.90975,42803
27.91908,41832
27.92843,41347
27.93777,39878
27.94710,39862
27.95645,41156
27.96578,41518
27.97512,41321
27.98447,39318
27.99380,41836
28.00313,41803
28.01248,40078
28.02182,42414
28.03115,41371
28.04050,42454
28.04983,39517
28.05918,39980
28.06852,40198
28.07785,42842
28.08720,42786
28.09653,42498
28.10587,44189
28.11522,44618
28.12455,43781
28.13388,44686
28.14323,43714
28.15257,43143
28.16190,43674
28.17125,43479
28.18058,44006
28.18992,42972
28.19927,44767
28.20860,43795
28.21793,44313
28.22728,43575
28.23662,43570
28.24597,44620
28.25530,45061
28.26463,42445
28.27398,43922
28.28332,43956
28.29265,42571
28.30200,42178
28.31133,43564
28.32067,44855
28.33002,43378
28.33935,44665
28.34868,44029
28.35803,44552
28.36737,44915
28.37670,44778
28.38605,44159
28.39538,44386
28.40473,44711
28.41407,45059
28.42340,45561
28.43275,46616
28.44208,44930
28.45142,47225
28.46077,46553
28.47010,46808
28.47943,46572
28.48878,46041
28.49812,48959
28.50745,47291
28.51680,47070
28.52613,46402
28.53547,45853
28.54482,47715
28.55415,47193
28.56348,49902
28.57283,48352
28.58217,46379
28.59152,48695
28.60085,48656
28.61018,49223
28.61953,49495
28.62887,49358
28.63820,51414
28.64755,49372
28.65688,52358
28.66622,54012
28.67557,57346
28.68490,57656
28.69423,55932
28.70358,55513
28.71292,52836
28.72225,53763
28.73160,50769
28.74093,51312
28.75027,51732
28.75962,50767
28.76895,53220
28.77830,51922
28.78763,53224
28.79697,52314
28.80632,53442
28.81565,53895
28.82498,53413
28.83433,55238
28.84367,52878
28.85300,54665
28.86235,54932
28.87168,51610
28.88102,55089
28.89037,54995
28.89970,55317
28.90903,54128
28.91838,53687
28.92772,54471
28.93705,55365
28.94640,55242
28.95573,55051
28.96508,56483
28.97442,54376
28.98375,56705
28.99310,55464
29.00243,57498
29.01177,57669
29.02112,54702
29.03045,58745
29.03978,55567
29.04913,58291
29.05847,56976
29.06780,56836
29.07715,57183
29.08648,57973
29.09582,57066
29.10517,56469
29.11450,57870
29.12385,58139
29.13318,56952
29.14252,55749
29.15187,57757
29.16120,57995
29.17053,57434
29.17988,60450
29.18922,58556
29.19855,60231
29.20790,61480
29.21723,59568
29.22657,61231
29.23592,59817
29.24525,60494
29.25458,61841
29.26393,60873
29.27327,58515
29.28260,60585
29.29195,61196
29.30128,62620
29.31063,59944
29.31997,60255
29.32930,61237
29.33865,61291
29.34798,60228
29.35732,61856
29.36667,62578
29.37600,60317
29.38533,60690
29.39468,62589
29.40402,61961
29.41335,62896
29.42270,62565
29.43203,62581
29.44137,62332
29.45072,65273
29.46005,68944
29.46938,67357
29.47873,68049
29.48807,64437
29.49742,64271
29.50675,62978
29.51608,64606
29.52543,63076
29.53477,64714
29.54410,61540
29.55345,63941
29.56278,64019
29.57212,62445
29.58147,65601
29.59080,65953
29.60013,64070
29.60948,62925
29.61882,66279
29.62815,65693
29.63750,62515
29.64683,62642
29.65617,62085
29.66552,62793
29.67485,63047
29.68420,62308
29.69353,66724
29.70287,64064
29.71222,60294
29.72155,60567
29.73088,63572
29.74023,62692
29.74957,63805
29.75890,65435
29.76825,62447
29.77758,63904
29.78692,65041
29.79627,64477
29.80560,60536
29.81493,61811
29.82428,65944
29.83362,65026
29.84295,64040
29.85230,63098
29.86163,63315
29.87098,65994
29.88032,65619
29.88965,66002
29.89900,64067
29.90833,64003
29.91767,64695
29.92702,64162
29.93635,63053
29.94568,61663
29.95503,65724
29.96437,64843
29.97370,65298
29.98305,64654
29.99238,64374
30.00172,64490
30.01107,65155
30.02040,64404
30.02975,64434
30.03908,66449
30.04842,68109
30.05777,65664
30.06710,66791
30.07643,66425
30.08578,65550
30.09512,67707
30.10445,68784
30.11380,66601
30.12313,65908
30.13247,64782
30.14182,68585
30.15115,66139
30.16048,68123
30.16983,67814
30.17917,65487
30.18850,68211
30.19785,65419
30.20718,64285
30.21653,65953
30.22587,67026
30.23520,65394
30.24455,67169
30.25388,65069
30.26322,65326
30.27257,65143
30.28190,67983
30.29123,66344
30.30058,68273
30.30992,68135
30.31925,68433
30.32860,66614
30.33793,66835
30.34727,67320
30.35662,67207
30.36595,69057
30.37528,70386
30.38463,70985
30.39397,68175
30.40332,67739
30.41265,67189
30.42198,68688
30.43133,65148
30.44067,64747
30.45000,69334
30.45935,67739
30.46868,66886
30.47802,65322
30.48737,66916
30.49670,66237
30.50603,67871
30.51538,66621
30.52472,66676
30.53405,67666
30.54340,65199
30.55273,68278
30.56207,66766
30.57142,69236
30.58075,70555
30.59010,71984
30.59943,69697
30.60877,74159
30.61812,73497
30.62745,74544
30.63678,76845
30.64613,81687
30.65547,79791
30.66480,83176
30.67415,81299
30.68348,83445
30.69282,85451
30.70217,84804
30.71150,83005
30.72083,81070
30.73018,82079
30.73952,76603
30.74887,78874
30.75820,77403
30.76753,78235
30.77688,77701
30.78622,73382
30.79555,74453
30.80490,74131
30.81423,71850
30.82357,75141
30.83292,73276
30.84225,74334
30.85158,74835
30.86093,75323
30.87027,79270
30.87960,77053
30.88895,77598
30.89828,78241
30.90762,77266
30.91697,81490
30.92630,80632
30.93565,83272
30.94498,81437
30.95432,81211
30.96367,82240
30.97300,81893
30.98233,83581
30.99168,80491
31.00102,81710
31.01035,81292
31.01970,79893
31.02903,79079
31.03837,79720
31.04772,80094
31.05705,77482
31.06638,81603
31.07573,77742
31.08507,79446
31.09440,78412
31.10375,78659
31.11308,77619
31.12243,78939
31.13177,79641
31.14110,77084
31.15045,80314
31.15978,80221
31.16912,82155
31.17847,79406
31.18780,78328
31.19713,81444
31.20648,78565
31.21582,81600
31.22515,80712
31.23450,81834
31.24383,82334
31.25317,81579
31.26252,81770
31.27185,81466
31.28118,80527
31.29053,82913
31.29987,83502
31.30922,81015
31.31855,84129
31.32788,82112
31.33723,82701
31.34657,80174
31.35590,79642
31.36525,83533
