D:\数据\20220412\TEST2-ZRHX-2.D Tue Apr 12 14:50:10 2022
Start of data points
0.09763,19335
0.10697,19408
0.11630,19520
0.12565,20007
0.13498,20512
0.14432,19708
0.15367,20688
0.16300,20482
0.17233,20191
0.18168,19472
0.19102,18901
0.20035,19377
0.20970,20285
0.21903,19472
0.22838,18675
0.23772,18289
0.24705,18977
0.25640,18934
0.26573,17835
0.27507,18846
0.28442,18656
0.29375,19170
0.30308,18464
0.31243,18367
0.32177,19053
0.33110,17692
0.34045,19449
0.34978,19327
0.35912,18647
0.36847,19298
0.37780,19017
0.38713,19627
0.39648,19171
0.40582,17774
0.41517,18451
0.42450,18183
0.43383,18692
0.44318,15983
0.45252,14069
0.46185,10742
0.47120,7728
0.48053,5825
0.48987,5131
0.49922,4999
0.50855,5696
0.51788,5270
0.52723,4817
0.53657,5173
0.54590,4934
0.55525,5158
0.56458,4917
0.57392,5194
0.58327,4099
0.59260,4473
0.60195,4187
0.61128,4535
0.62062,4632
0.62997,5071
0.63930,4218
0.64863,5033
0.65798,4299
0.66732,4755
0.67665,4137
0.68600,4245
0.69533,4644
0.70467,3960
0.71402,4258
0.72335,3619
0.73268,3955
0.74203,3990
0.75137,4471
0.76070,4089
0.77005,3568
0.77938,3825
0.78873,3714
0.79807,3627
0.80740,4468
0.81675,4130
0.82608,4221
0.83542,3804
0.84477,4167
0.85410,4065
0.86343,3793
0.87278,4478
0.88212,4569
0.89145,4441
0.90080,3994
0.91013,3449
0.91947,3223
0.92882,3977
0.93815,3872
0.94750,3603
0.95683,4160
0.96617,3201
0.97552,3817
0.98485,3758
0.99418,3448
1.00353,3696
1.01287,3924
1.02220,3840
1.03155,4111
1.04088,3939
1.05022,3902
1.05957,3976
1.06890,3453
1.07823,3487
1.08758,3524
1.09692,3520
1.10625,3541
1.11560,3516
1.12493,3725
1.13428,3289
1.14362,3410
1.15295,3616
1.16230,3075
1.17163,3495
1.18097,3878
1.19032,3478
1.19965,3705
1.20898,3522
1.21833,3625
1.22767,3880
1.23700,3986
1.24635,3954
1.25568,3604
1.26502,3773
1.27437,3402
1.28370,3348
1.29303,3261
1.30238,4119
1.31172,2826
1.32107,3826
1.33040,4088
1.33973,3760
1.34908,3028
1.35842,3156
1.36775,3698
1.37710,3412
1.38643,3260
1.39577,3306
1.40512,3766
1.41445,4128
1.42378,3864
1.43313,3238
1.44247,3355
1.45180,3692
1.46115,3850
1.47048,3626
1.47982,3804
1.48917,4385
1.49850,3816
1.50785,3350
1.51718,3681
1.52652,3317
1.53587,3546
1.54520,3935
1.55453,3919
1.56388,4012
1.57322,3698
1.58255,4029
1.59190,5122
1.60123,10160
1.61057,13482
1.61992,16693
1.62925,22786
1.63858,32669
1.64793,41012
1.65727,46194
1.66662,43127
1.67595,34770
1.68528,29827
1.69463,22629
1.70397,17452
1.71330,14787
1.72265,14969
1.73198,16437
1.74132,18303
1.75067,20030
1.76000,19831
1.76933,21557
1.77868,22369
1.78802,23384
1.79735,22796
1.80670,23428
1.81603,22818
1.82537,23403
1.83472,22815
1.84405,21852
1.85340,22944
1.86273,23420
1.87207,30180
1.88142,44733
1.89075,71677
1.90008,102101
1.90943,121228
1.91877,136894
1.92810,173270
1.93745,216487
1.94678,245542
1.95612,249805
1.96547,231373
1.97480,188064
1.98413,148305
1.99348,123841
2.00282,104642
2.01215,95035
2.02150,101563
2.03083,111310
2.04018,101501
2.04952,84198
2.05885,74534
2.06820,63257
2.07753,55262
2.08687,53529
2.09622,50608
2.10555,47384
2.11488,48638
2.12423,58052
2.13357,66840
2.14290,77997
2.15225,82839
2.16158,81921
2.17092,70795
2.18027,78356
2.18960,174000
2.19893,273826
2.20828,214668
2.21762,126282
2.22697,98173
2.23630,128191
2.24563,205946
2.25498,366828
2.26432,1160563
2.27365,2035342
2.28300,1898704
2.29233,1287845
2.30167,1019099
2.31102,3027778
2.32035,7967871
2.32968,8926558
2.33903,5472610
2.34837,2467017
2.35770,1059256
2.36705,496297
2.37638,285963
2.38572,200119
2.39507,145209
2.40440,111529
2.41375,103654
2.42308,95846
2.43242,87447
2.44177,76502
2.45110,66289
2.46043,61411
2.46978,60851
2.47912,57183
2.48845,53649
2.49780,49731
2.50713,47979
2.51647,48546
2.52582,45692
2.53515,46658
2.54448,46159
2.55383,53647
2.56317,75353
2.57252,116458
2.58185,149394
2.59118,155094
2.60053,141031
2.60987,139387
2.61920,172339
2.62855,196898
2.63788,166952
2.64722,147289
2.65657,137797
2.66590,106727
2.67523,77421
2.68458,59404
2.69392,49287
2.70325,48431
2.71260,78196
2.72193,180667
2.73127,263814
2.74062,222440
2.74995,153084
2.75930,123373
2.76863,114568
2.77797,129765
2.78732,156589
2.79665,149963
2.80598,123699
2.81533,98533
2.82467,85132
2.83400,94108
2.84335,215661
2.85268,714943
2.86202,1345497
2.87137,1257751
2.88070,725090
2.89003,337946
2.89938,170698
2.90872,101661
2.91805,78519
2.92740,66448
2.93673,57609
2.94608,51636
2.95542,47939
2.96475,44996
2.97410,44674
2.98343,52624
2.99277,73449
3.00212,100319
3.01145,107918
3.02078,138536
3.03013,419731
3.03947,612946
3.04880,503290
3.05815,322479
3.06748,220776
3.07682,167874
3.08617,115250
3.09550,82129
3.10483,61546
3.11418,51514
3.12352,46605
3.13287,47971
3.14220,53916
3.15153,88612
3.16088,161482
3.17022,187370
3.17955,142604
3.18890,84288
3.19823,56521
3.20757,48790
3.21692,44282
3.22625,42135
3.23558,37626
3.24493,37477
3.25427,38370
3.26360,39719
3.27295,38347
3.28228,34585
3.29163,37343
3.30097,37990
3.31030,40158
3.31965,37476
3.32898,36876
3.33832,36697
3.34767,35836
3.35700,35082
3.36633,34535
3.37568,35424
3.38502,33467
3.39435,33041
3.40370,40752
3.41303,51468
3.42237,63133
3.43172,62519
3.44105,53669
3.45038,45705
3.45973,43463
3.46907,38876
3.47842,38338
3.48775,38214
3.49708,38473
3.50643,36371
3.51577,34418
3.52510,33812
3.53445,36458
3.54378,56358
3.55312,125084
3.56247,250265
3.57180,315755
3.58113,250637
3.59048,156885
3.59982,114113
3.60915,97470
3.61850,82621
3.62783,66400
3.63717,57907
3.64652,49740
3.65585,45415
3.66520,43745
3.67453,45209
3.68387,43120
3.69322,40505
3.70255,38112
3.71188,42034
3.72123,50248
3.73057,54551
3.73990,47107
3.74925,39779
3.75858,35820
3.76792,31754
3.77727,32722
3.78660,32030
3.79593,34641
3.80528,38017
3.81462,45496
3.82395,45910
3.83330,43795
3.84263,41698
3.85198,42385
3.86132,38145
3.87065,35560
3.88000,37731
3.88933,45802
3.89867,56888
3.90802,57952
3.91735,50226
3.92668,49861
3.93603,54089
3.94537,59384
3.95470,60934
3.96405,54884
3.97338,46403
3.98272,40294
3.99207,36070
4.00140,33229
4.01073,33707
4.02008,33560
4.02942,34277
4.03877,39090
4.04810,44681
4.05743,44384
4.06678,44631
4.07612,51780
4.08545,64590
4.09480,66565
4.10413,59169
4.11347,50341
4.12282,40211
4.13215,36808
4.14148,35235
4.15083,34836
4.16017,33743
4.16950,32902
4.17885,32266
4.18818,31265
4.19752,33023
4.20687,33498
4.21620,35135
4.22555,33593
4.23488,33724
4.24422,34007
4.25357,35527
4.26290,34886
4.27223,36247
4.28158,37002
4.29092,32495
4.30025,32365
4.30960,34534
4.31893,39510
4.32827,44418
4.33762,44534
4.34695,37894
4.35628,35065
4.36563,33732
4.37497,32288
4.38432,34089
4.39365,32701
4.40298,29964
4.41233,30904
4.42167,30183
4.43100,30333
4.44035,28799
4.44968,31605
4.45902,34777
4.46837,41318
4.47770,52280
4.48703,56728
4.49638,47497
4.50572,36699
4.51505,32811
4.52440,30735
4.53373,31571
4.54307,31516
4.55242,30649
4.56175,29361
4.57110,30609
4.58043,29817
4.58977,30472
4.59912,31767
4.60845,33295
4.61778,30859
4.62713,31214
4.63647,34196
4.64580,36272
4.65515,36885
4.66448,34429
4.67382,34126
4.68317,36812
4.69250,40610
4.70183,45686
4.71118,45545
4.72052,43986
4.72985,42658
4.73920,36869
4.74853,33600
4.75788,32026
4.76722,33341
4.77655,32753
4.78590,33729
4.79523,33162
4.80457,34467
4.81392,38366
4.82325,40231
4.83258,37863
4.84193,34275
4.85127,32359
4.86060,30691
4.86995,35833
4.87928,36105
4.88862,33340
4.89797,32460
4.90730,30493
4.91665,30949
4.92598,35194
4.93532,36602
4.94467,40023
4.95400,37159
4.96333,30658
4.97268,29278
4.98202,27231
4.99135,29101
5.00070,29483
5.01003,30667
5.01937,35484
5.02872,40057
5.03805,38694
5.04738,34052
5.05673,29475
5.06607,30200
5.07540,30118
5.08475,34286
5.09408,33384
5.10343,32092
5.11277,29828
5.12210,29384
5.13145,29046
5.14078,31844
5.15012,29616
5.15947,28698
5.16880,29955
5.17813,35752
5.18748,37224
5.19682,33068
5.20615,32224
5.21550,28665
5.22483,29734
5.23417,33208
5.24352,36085
5.25285,35306
5.26218,37906
5.27153,69495
5.28087,139226
5.29022,189081
5.29955,158826
5.30888,96280
5.31823,58102
5.32757,42886
5.33690,35526
5.34625,33683
5.35558,31677
5.36492,30187
5.37427,31914
5.38360,33948
5.39293,38051
5.40228,37966
5.41162,32310
5.42095,31369
5.43030,28989
5.43963,28529
5.44897,28969
5.45832,27991
5.46765,28866
5.47700,29275
5.48633,31056
5.49567,30834
5.50502,31624
5.51435,36376
5.52368,43002
5.53303,46079
5.54237,42119
5.55170,36852
5.56105,33816
5.57038,33927
5.57972,32210
5.58907,32713
5.59840,30659
5.60773,27777
5.61708,28845
5.62642,27021
5.63575,26924
5.64510,28165
5.65443,28666
5.66378,29265
5.67312,31553
5.68245,31078
5.69180,31285
5.70113,32505
5.71047,33207
5.71982,33718
5.72915,31893
5.73848,36296
5.74783,44743
5.75717,45484
5.76650,44410
5.77585,36342
5.78518,32712
5.79452,28528
5.80387,29185
5.81320,28935
5.82253,30764
5.83188,31862
5.84122,31272
5.85057,29405
5.85990,27728
5.86923,23348
5.87858,23697
5.88792,23822
5.89725,24119
5.90660,29458
5.91593,47823
5.92527,67654
5.93462,66940
5.94395,53880
5.95328,51301
5.96263,42242
5.97197,36701
5.98130,30906
5.99065,27660
5.99998,24755
6.00933,19743
6.01867,17557
6.02800,16729
6.03735,15310
6.04668,16732
6.05602,17224
6.06537,19681
6.07470,19718
6.08403,16776
6.09338,15224
6.10272,14937
6.11205,16570
6.12140,23183
6.13073,29602
6.14007,32442
6.14942,27340
6.15875,19484
6.16808,16736
6.17743,18895
6.18677,16474
6.19612,17476
6.20545,14702
6.21478,16538
6.22413,17473
6.23347,19510
6.24280,18011
6.25215,19063
6.26148,24509
6.27082,31594
6.28017,30897
6.28950,22346
6.29883,16603
6.30818,14765
6.31752,13332
6.32685,13048
6.33620,13589
6.34553,14129
6.35487,13230
6.36422,15859
6.37355,21857
6.38290,42042
6.39223,117013
6.40157,298421
6.41092,477647
6.42025,401987
6.42958,192585
6.43893,63698
6.44827,26209
6.45760,20638
6.46695,20142
6.47628,18848
6.48562,16552
6.49497,17399
6.50430,17763
6.51363,18204
6.52298,17802
6.53232,17503
6.54165,15877
6.55100,14592
6.56033,13198
6.56968,15045
6.57902,14895
6.58835,16919
6.59770,16780
6.60703,17155
6.61637,16953
6.62572,18867
6.63505,18717
6.64438,16273
6.65373,17887
6.66307,18414
6.67240,18696
6.68175,19862
6.69108,19662
6.70042,18470
6.70977,18393
6.71910,17359
6.72845,15318
6.73778,15482
6.74712,14802
6.75647,14668
6.76580,13812
6.77513,15129
6.78448,15340
6.79382,18776
6.80315,20016
6.81250,19769
6.82183,16341
6.83117,16047
6.84052,13331
6.84985,14164
6.85918,14248
6.86853,13744
6.87787,15395
6.88720,14056
6.89655,18138
6.90588,22889
6.91523,22656
6.92457,20903
6.93390,17528
6.94325,16932
6.95258,17266
6.96192,16779
6.97127,15422
6.98060,14525
6.98993,15831
6.99928,14925
7.00862,17332
7.01795,18009
7.02730,17221
7.03663,14615
7.04597,14113
7.05532,12460
7.06465,13421
7.07398,13360
7.08333,14608
7.09267,15046
7.10202,15284
7.11135,16757
7.12068,15897
7.13003,15776
7.13937,15472
7.14870,15232
7.15805,14742
7.16738,13431
7.17672,13172
7.18607,14053
7.19540,14419
7.20473,14885
7.21408,18012
7.22342,33998
7.23275,65938
7.24210,88788
7.25143,74175
7.26077,49464
7.27012,33823
7.27945,27726
7.28880,26048
7.29813,23114
7.30747,19353
7.31682,16273
7.32615,14463
7.33548,14402
7.34483,14560
7.35417,13948
7.36350,15441
7.37285,15709
7.38218,29377
7.39152,67512
7.40087,137434
7.41020,188429
7.41953,168800
7.42888,104795
7.43822,53329
7.44755,31079
7.45690,22300
7.46623,19641
7.47558,19994
7.48492,19117
7.49425,18677
7.50360,15688
7.51293,16714
7.52227,14583
7.53162,13814
7.54095,14440
7.55028,16717
7.55963,18864
7.56897,18604
7.57830,19056
7.58765,15855
7.59698,16720
7.60632,16938
7.61567,16231
7.62500,16503
7.63435,17771
7.64368,17713
7.65302,16178
7.66237,15776
7.67170,16160
7.68103,15206
7.69038,19773
7.69972,24140
7.70905,26067
7.71840,22334
7.72773,19038
7.73707,18184
7.74642,17601
7.75575,16945
7.76508,17358
7.77443,17400
7.78377,19999
7.79310,20545
7.80245,18855
7.81178,15585
7.82113,15438
7.83047,17189
7.83980,18141
7.84915,25654
7.85848,44669
7.86782,62337
7.87717,62765
7.88650,45545
7.89583,36273
7.90518,52007
7.91452,85273
7.92385,95394
7.93320,72617
7.94253,45227
7.95187,33826
7.96122,28929
7.97055,26629
7.97988,23888
7.98923,23530
7.99857,22396
8.00792,20393
8.01725,20585
8.02658,25920
8.03593,29594
8.04527,37612
8.05460,32126
8.06395,25295
8.07328,21644
8.08262,21597
8.09197,24697
8.10130,25884
8.11063,25058
8.11998,21267
8.12932,19206
8.13865,17571
8.14800,17368
8.15733,16913
8.16667,18523
8.17602,16788
8.18535,17947
8.19470,17324
8.20403,18569
8.21337,17359
8.22272,17403
8.23205,17652
8.24138,17713
8.25073,18274
8.26007,17551
8.26940,16262
8.27875,16198
8.28808,15885
8.29742,17476
8.30677,14486
8.31610,16127
8.32543,16051
8.33478,14992
8.34412,15570
8.35347,16603
8.36280,14468
8.37213,15729
8.38148,16550
8.39082,16835
8.40015,18995
8.40950,19655
8.41883,19157
8.42817,18483
8.43752,18064
8.44685,17737
8.45618,17932
8.46553,18072
8.47487,17993
8.48420,17756
8.49355,18383
8.50288,18334
8.51222,17996
8.52157,17324
8.53090,17275
8.54025,18209
8.54958,18746
8.55892,19415
8.56827,19324
8.57760,18449
8.58693,20815
8.59628,21226
8.60562,22832
8.61495,21623
8.62430,18288
8.63363,18059
8.64297,18849
8.65232,20244
8.66165,22437
8.67098,21530
8.68033,19230
8.68967,20732
8.69900,20469
8.70835,20297
8.71768,19970
8.72703,19453
8.73637,19642
8.74570,25784
8.75505,30107
8.76438,28049
8.77372,24460
8.78307,29464
8.79240,52207
8.80173,95501
8.81108,124319
8.82042,97634
8.82975,53419
8.83910,28709
8.84843,19957
8.85777,19991
8.86712,20861
8.87645,21654
8.88578,20975
8.89513,22372
8.90447,21043
8.91382,20656
8.92315,21474
8.93248,23567
8.94183,23817
8.95117,19458
8.96050,18947
8.96985,18229
8.97918,18466
8.98852,16959
8.99787,19004
9.00720,18317
9.01653,17870
9.02588,17912
9.03522,19380
9.04455,19875
9.05390,20631
9.06323,23885
9.07257,24359
9.08192,28197
9.09125,28188
9.10060,26225
9.10993,21799
9.11927,24593
9.12862,27869
9.13795,33123
9.14728,30904
9.15663,24941
9.16597,19347
9.17530,19603
9.18465,20168
9.19398,20953
9.20332,22884
9.21267,26313
9.22200,38622
9.23133,53800
9.24068,50939
9.25002,34462
9.25935,25046
9.26870,21514
9.27803,19677
9.28738,19514
9.29672,19301
9.30605,21461
9.31540,27455
9.32473,36792
9.33407,42012
9.34342,36588
9.35275,40635
9.36208,72901
9.37143,109902
9.38077,114841
9.39010,92366
9.39945,69247
9.40878,53091
9.41812,48262
9.42747,43550
9.43680,37206
9.44615,25983
9.45548,22769
9.46482,19997
9.47417,21158
9.48350,22162
9.49283,24424
9.50218,23596
9.51152,20205
9.52085,20489
9.53020,24548
9.53953,27782
9.54887,35048
9.55822,46249
9.56755,45918
9.57688,35736
9.58623,29408
9.59557,28302
9.60490,28873
9.61425,26566
9.62358,22432
9.63293,21543
9.64227,20852
9.65160,19667
9.66095,21605
9.67028,21052
9.67962,23892
9.68897,23804
9.69830,22015
9.70763,22183
9.71698,33627
9.72632,68381
9.73565,144462
9.74500,241266
9.75433,277120
9.76367,220565
9.77302,148749
9.78235,106713
9.79168,79803
9.80103,63448
9.81037,53444
9.81972,52945
9.82905,58783
9.83838,68319
9.84773,69057
9.85707,59567
9.86640,45344
9.87575,48794
9.88508,59666
9.89442,64127
9.90377,58128
9.91310,53040
9.92243,46397
9.93178,39052
9.94112,34785
9.95045,29404
9.95980,29085
9.96913,36843
9.97847,59914
9.98782,78558
9.99715,73466
10.00650,52229
10.01583,36876
10.02517,30376
10.03452,27803
10.04385,28051
10.05318,35025
10.06253,48299
10.07187,57031
10.08120,51133
10.09055,40663
10.09988,45765
10.10922,130761
10.11857,366102
10.12790,581136
10.13723,537749
10.14658,705011
10.15592,1634063
10.16527,2400693
10.17460,1690000
10.18393,594867
10.19328,134603
10.20262,46030
10.21195,34257
10.22130,31413
10.23063,33842
10.23997,38550
10.24932,36118
10.25865,32646
10.26798,26320
10.27733,26726
10.28667,29052
10.29600,30485
10.30535,31518
10.31468,26800
10.32402,24015
10.33337,21580
10.34270,22529
10.35205,23083
10.36138,23803
10.37072,22486
10.38007,22161
10.38940,20352
10.39873,18858
10.40808,22141
10.41742,24664
10.42675,28961
10.43610,33104
10.44543,46029
10.45477,71364
10.46412,77911
10.47345,57031
10.48278,36217
10.49213,25232
10.50147,20158
10.51080,20922
10.52015,20238
10.52948,20953
10.53883,21554
10.54817,20620
10.55750,23863
10.56685,24768
10.57618,27383
10.58552,24426
10.59487,24200
10.60420,20174
10.61353,20733
10.62288,27429
10.63222,36270
10.64155,34480
10.65090,28023
10.66023,26382
10.66957,27541
10.67892,29598
10.68825,30324
10.69758,30110
10.70693,41675
10.71627,51183
10.72562,48152
10.73495,35208
10.74428,34916
10.75363,49380
10.76297,73651
10.77230,74360
10.78165,79696
10.79098,128001
10.80032,203299
10.80967,202313
10.81900,122884
10.82833,55622
10.83768,33084
10.84702,27594
10.85635,27028
10.86570,28247
10.87503,31461
10.88437,31961
10.89372,30650
10.90305,29241
10.91240,27714
10.92173,29043
10.93107,30961
10.94042,27338
10.94975,26436
10.95908,28272
10.96843,27221
10.97777,23863
10.98710,20642
10.99645,19008
11.00578,19745
11.01512,20216
11.02447,19602
11.03380,18777
11.04313,19231
11.05248,18150
11.06182,19533
11.07117,17956
11.08050,17854
11.08983,18424
11.09918,17707
11.10852,19545
11.11785,18974
11.12720,18934
11.13653,20203
11.14587,18604
11.15522,18802
11.16455,19943
11.17388,20549
11.18323,19038
11.19257,17893
11.20190,18590
11.21125,19552
11.22058,23140
11.22992,22775
11.23927,20066
11.24860,21358
11.25795,24465
11.26728,25862
11.27662,24525
11.28597,21968
11.29530,22342
11.30463,20256
11.31398,20134
11.32332,22933
11.33265,31968
11.34200,46976
11.35133,58033
11.36067,49953
11.37002,37034
11.37935,26515
11.38868,28964
11.39803,37012
11.40737,44630
11.41670,39155
11.42605,26705
11.43538,22432
11.44473,21275
11.45407,27286
11.46340,37464
11.47275,42480
11.48208,30333
11.49142,22858
11.50077,21203
11.51010,21199
11.51943,19940
11.52878,19436
11.53812,17025
11.54745,20323
11.55680,27144
11.56613,42288
11.57547,55460
11.58482,53690
11.59415,47048
11.60348,43855
11.61283,41252
11.62217,35100
11.63152,29929
11.64085,26284
11.65018,24578
11.65953,27200
11.66887,26821
11.67820,24947
11.68755,23605
11.69688,23841
11.70622,25563
11.71557,26263
11.72490,27679
11.73423,26388
11.74358,25311
11.75292,24030
11.76225,25413
11.77160,26429
11.78093,30130
11.79028,31076
11.79962,28271
11.80895,25416
11.81830,26552
11.82763,25893
11.83697,24796
11.84632,22360
11.85565,20844
11.86498,21698
11.87433,23993
11.88367,24394
11.89300,21431
11.90235,21191
11.91168,19805
11.92102,20146
11.93037,24780
11.93970,32339
11.94903,34954
11.95838,29897
11.96772,23707
11.97707,22770
11.98640,22708
11.99573,25457
12.00508,34395
12.01442,38894
12.02375,35674
12.03310,27445
12.04243,26584
12.05177,23747
12.06112,22437
12.07045,21997
12.07978,21590
12.08913,22930
12.09847,22804
12.10780,22161
12.11715,19245
12.12648,19318
12.13582,19615
12.14517,23811
12.15450,28307
12.16385,46193
12.17318,66001
12.18252,61401
12.19187,40961
12.20120,28109
12.21053,29131
12.21988,36335
12.22922,42209
12.23855,37513
12.24790,26922
12.25723,26212
12.26657,35667
12.27592,51438
12.28525,56170
12.29458,44306
12.30393,34509
12.31327,28761
12.32260,28832
12.33195,31219
12.34128,31915
12.35063,28741
12.35997,24185
12.36930,26394
12.37865,25175
12.38798,23645
12.39732,23769
12.40667,21921
12.41600,21931
12.42533,21482
12.43468,21650
12.44402,21194
12.45335,23153
12.46270,24904
12.47203,27642
12.48137,27495
12.49072,26582
12.50005,26417
12.50938,27356
12.51873,27146
12.52807,25156
12.53742,26281
12.54675,28764
12.55608,33156
12.56543,34899
12.57477,32130
12.58410,26448
12.59345,24037
12.60278,21352
12.61212,23391
12.62147,26989
12.63080,34108
12.64013,40179
12.64948,38520
12.65882,34482
12.66815,30934
12.67750,23877
12.68683,20093
12.69617,20667
12.70552,21806
12.71485,23562
12.72420,22182
12.73353,23123
12.74287,23257
12.75222,24443
12.76155,23637
12.77088,21211
12.78023,19388
12.78957,21807
12.79890,21253
12.80825,21877
12.81758,21306
12.82692,21841
12.83627,23343
12.84560,22365
12.85493,22800
12.86428,21482
12.87362,18849
12.88297,21190
12.89230,22014
12.90163,20315
12.91098,18773
12.92032,19277
12.92965,19382
12.93900,20597
12.94833,22275
12.95767,19900
12.96702,19491
12.97635,19402
12.98568,18268
12.99503,17245
13.00437,18533
13.01370,24428
13.02305,28857
13.03238,30103
13.04172,26880
13.05107,21821
13.06040,22129
13.06975,22637
13.07908,21796
13.08842,21022
13.09777,21086
13.10710,20973
13.11643,20254
13.12578,23063
13.13512,25714
13.14445,24774
13.15380,23693
13.16313,24368
13.17247,25159
13.18182,32426
13.19115,64752
13.20048,147050
13.20983,202444
13.21917,163797
13.22850,93261
13.23785,66558
13.24718,65382
13.25653,51373
13.26587,35554
13.27520,28777
13.28455,27041
13.29388,27494
13.30322,29072
13.31257,30407
13.32190,30318
13.33123,28581
13.34058,28498
13.34992,24915
13.35925,23272
13.36860,22642
13.37793,24195
13.38727,28712
13.39662,32004
13.40595,28813
13.41528,24343
13.42463,24671
13.43397,25923
13.44332,26998
13.45265,25796
13.46198,27346
13.47133,28770
13.48067,28723
13.49000,24062
13.49935,27297
13.50868,36456
13.51802,61743
13.52737,68615
13.53670,53535
13.54603,33410
13.55538,24509
13.56472,22934
13.57405,23508
13.58340,22388
13.59273,21370
13.60208,22296
13.61142,21605
13.62075,22516
13.63010,23712
13.63943,32410
13.64877,39740
13.65812,42385
13.66745,35041
13.67678,27231
13.68613,23358
13.69547,20587
13.70480,19423
13.71415,19001
13.72348,19905
13.73282,18831
13.74217,19016
13.75150,19670
13.76083,20003
13.77018,21166
13.77952,21994
13.78887,24125
13.79820,26843
13.80753,28573
13.81688,24734
13.82622,22389
13.83555,20527
13.84490,22186
13.85423,22754
13.86357,23824
13.87292,29219
13.88225,37814
13.89158,63206
13.90093,120566
13.91027,198141
13.91960,205675
13.92895,127938
13.93828,57750
13.94762,33884
13.95697,30904
13.96630,29863
13.97565,26274
13.98498,26314
13.99432,27485
14.00367,24837
14.01300,25501
14.02233,27674
14.03168,52680
14.04102,313673
14.05035,1699493
14.05970,4597103
14.06903,6085151
14.07837,4247595
14.08772,1359768
14.09705,251644
14.10638,63750
14.11573,43280
14.12507,36497
14.13440,37013
14.14375,38610
14.15308,40680
14.16243,41199
14.17177,38696
14.18110,38516
14.19045,39720
14.19978,41336
14.20912,35876
14.21847,30388
14.22780,24952
14.23713,23772
14.24648,22340
14.25582,26112
14.26515,26989
14.27450,26659
14.28383,23690
14.29317,23630
14.30252,26399
14.31185,33718
14.32118,43759
14.33053,45272
14.33987,36620
14.34922,29471
14.35855,25476
14.36788,21606
14.37723,24163
14.38657,25902
14.39590,23892
14.40525,22919
14.41458,20830
14.42392,22229
14.43327,21933
14.44260,27285
14.45193,40125
14.46128,53205
14.47062,56292
14.47995,44390
14.48930,31499
14.49863,25451
14.50798,25856
14.51732,22131
14.52665,22510
14.53600,23091
14.54533,24379
14.55467,24565
14.56402,26560
14.57335,23870
14.58268,23256
14.59203,23294
14.60137,21740
14.61070,21967
14.62005,21041
14.62938,21051
14.63872,24284
14.64807,25841
14.65740,29097
14.66673,29041
14.67608,26001
14.68542,24543
14.69477,23338
14.70410,20717
14.71343,21844
14.72278,23139
14.73212,24140
14.74145,26089
14.75080,24534
14.76013,22290
14.76947,23200
14.77882,21967
14.78815,23732
14.79748,23659
14.80683,26605
14.81617,24690
14.82550,24253
14.83485,23361
14.84418,21698
14.85352,26873
14.86287,34747
14.87220,36390
14.88155,31595
14.89088,24325
14.90022,21417
14.90957,24642
14.91890,23786
14.92823,21971
14.93758,22494
14.94692,22170
14.95625,23647
14.96560,28811
14.97493,28429
14.98427,26353
14.99362,28859
15.00295,33558
15.01228,34919
15.02163,29304
15.03097,28853
15.04030,32823
15.04965,34237
15.05898,35568
15.06833,35024
15.07767,28774
15.08700,24787
15.09635,22343
15.10568,27004
15.11502,31451
15.12437,38695
15.13370,38783
15.14303,31269
15.15238,26204
15.16172,24516
15.17105,22363
15.18040,25123
15.18973,31134
15.19907,44209
15.20842,62585
15.21775,64499
15.22710,54826
15.23643,40251
15.24577,30626
15.25512,27686
15.26445,26411
15.27378,28046
15.28313,25816
15.29247,25401
15.30180,25572
15.31115,27995
15.32048,32510
15.32982,34480
15.33917,32499
15.34850,30072
15.35783,33120
15.36718,38408
15.37652,39098
15.38585,29914
15.39520,27516
15.40453,26441
15.41388,27615
15.42322,30261
15.43255,26916
15.44190,26229
15.45123,24040
15.46057,23645
15.46992,23273
15.47925,25574
15.48858,26810
15.49793,36980
15.50727,54202
15.51660,61672
15.52595,51998
15.53528,35700
15.54462,28544
15.55397,25152
15.56330,24078
15.57263,23951
15.58198,23486
15.59132,24953
15.60067,26292
15.61000,24830
15.61933,28815
15.62868,32441
15.63802,36703
15.64735,35898
15.65670,39302
15.66603,42953
15.67537,50203
15.68472,63865
15.69405,68163
15.70338,64019
15.71273,46667
15.72207,36713
15.73140,36390
15.74075,40699
15.75008,45098
15.75942,45193
15.76877,42384
15.77810,35779
15.78745,33429
15.79678,31604
15.80612,43514
15.81547,72258
15.82480,135676
15.83413,204699
15.84348,199594
15.85282,138890
15.86215,88463
15.87150,65129
15.88083,61202
15.89017,62774
15.89952,63792
15.90885,53944
15.91818,45822
15.92753,39221
15.93687,35002
15.94620,33487
15.95555,32818
15.96488,37117
15.97423,41565
15.98357,52784
15.99290,49738
16.00225,45879
16.01158,37296
16.02092,31708
16.03027,33286
16.03960,33304
16.04893,36478
16.05828,36095
16.06762,34737
16.07695,33602
16.08630,31567
16.09563,31679
16.10497,33059
16.11432,37333
16.12365,34758
16.13298,34465
16.14233,32370
16.15167,34484
16.16102,31463
16.17035,27943
16.17968,28930
16.18903,29883
16.19837,32791
16.20770,35433
16.21705,35182
16.22638,34721
16.23572,37333
16.24507,36398
16.25440,35942
16.26373,38557
16.27308,55224
16.28242,109423
16.29175,186842
16.30110,208166
16.31043,139068
16.31978,66996
16.32912,41735
16.33845,31705
16.34780,28183
16.35713,26211
16.36647,24367
16.37582,27453
16.38515,27337
16.39448,29103
16.40383,33192
16.41317,33870
16.42250,32431
16.43185,30087
16.44118,34668
16.45052,36539
16.45987,36782
16.46920,32953
16.47853,31204
16.48788,32554
16.49722,31492
16.50657,31049
16.51590,31786
16.52523,30378
16.53458,30929
16.54392,28013
16.55325,25859
16.56260,27765
16.57193,27681
16.58127,28739
16.59062,28949
16.59995,28937
16.60928,29985
16.61863,34684
16.62797,35517
16.63730,33286
16.64665,33176
16.65598,31204
16.66532,30188
16.67467,31979
16.68400,35716
16.69335,40279
16.70268,39272
16.71202,32656
16.72137,31381
16.73070,43978
16.74003,69229
16.74938,80149
16.75872,63868
16.76805,41476
16.77740,31895
16.78673,27720
16.79607,28724
16.80542,27667
16.81475,33207
16.82408,35594
16.83343,37203
16.84277,33675
16.85210,30620
16.86145,27594
16.87078,27116
16.88013,27302
16.88947,29298
16.89880,36157
16.90815,46512
16.91748,48447
16.92682,42146
16.93617,41274
16.94550,42413
16.95483,44042
16.96418,41908
16.97352,37210
16.98285,30376
16.99220,27116
17.00153,27988
17.01087,35605
17.02022,48974
17.02955,62643
17.03890,55655
17.04823,44347
17.05757,36893
17.06692,35471
17.07625,32923
17.08558,31377
17.09493,31224
17.10427,31794
17.11360,32198
17.12295,33648
17.13228,38840
17.14162,36773
17.15097,30400
17.16030,29123
17.16963,28448
17.17898,27762
17.18832,27539
17.19765,28070
17.20700,26869
17.21633,27237
17.22568,26669
17.23502,27586
17.24435,26859
17.25370,28734
17.26303,33439
17.27237,32643
17.28172,31270
17.29105,31358
17.30038,30329
17.30973,34589
17.31907,37055
17.32840,36150
17.33775,34002
17.34708,31156
17.35642,32985
17.36577,50058
17.37510,90922
17.38443,122271
17.39378,100206
17.40312,65394
17.41247,48044
17.42180,47928
17.43113,44492
17.44048,44606
17.44982,39076
17.45915,38340
17.46850,36447
17.47783,64851
17.48717,295725
17.49652,1116588
17.50585,2256590
17.51518,2182666
17.52453,1061519
17.53387,286988
17.54320,81606
17.55255,48260
17.56188,40773
17.57122,42587
17.58057,42752
17.58990,41054
17.59925,36353
17.60858,33174
17.61792,32285
17.62727,32417
17.63660,34232
17.64593,37760
17.65528,45090
17.66462,45057
17.67395,47062
17.68330,47497
17.69263,54442
17.70197,51609
17.71132,46661
17.72065,39683
17.72998,36506
17.73933,38935
17.74867,43715
17.75800,45932
17.76735,44951
17.77668,37933
17.78603,32005
17.79537,29819
17.80470,29286
17.81405,31432
17.82338,32125
17.83272,35354
17.84207,37315
17.85140,43279
17.86073,46892
17.87008,44614
17.87942,40902
17.88875,39015
17.89810,35427
17.90743,31424
17.91677,27130
17.92612,27778
17.93545,29171
17.94480,33728
17.95413,40958
17.96347,43171
17.97282,38426
17.98215,31857
17.99148,29346
18.00083,29780
18.01017,28950
18.01950,29792
18.02885,30985
18.03818,37669
18.04752,42796
18.05687,44224
18.06620,39757
18.07553,32736
18.08488,31124
18.09422,36639
18.10355,38226
18.11290,38658
18.12223,36463
18.13158,34597
18.14092,36015
18.15025,37219
18.15960,35838
18.16893,32629
18.17827,31399
18.18762,29470
18.19695,29846
18.20628,29998
18.21563,30457
18.22497,29749
18.23430,28428
18.24365,29173
18.25298,29703
18.26232,30719
18.27167,34399
18.28100,36861
18.29033,37909
18.29968,38462
18.30902,36693
18.31837,36626
18.32770,36675
18.33703,42171
18.34638,49214
18.35572,47594
18.36505,40935
18.37440,33522
18.38373,30157
18.39307,29667
18.40242,31065
18.41175,31357
18.42108,34893
18.43043,39722
18.43977,42999
18.44910,42273
18.45845,35854
18.46778,30651
18.47712,32860
18.48647,41101
18.49580,58256
18.50515,65650
18.51448,62380
18.52382,51946
18.53317,43349
18.54250,43022
18.55183,41402
18.56118,38692
18.57052,32555
18.57985,30354
18.58920,33476
18.59853,37451
18.60787,42069
18.61722,40357
18.62655,37680
18.63588,37618
18.64523,33034
18.65457,30559
18.66392,30874
18.67325,31717
18.68258,31412
18.69193,34643
18.70127,39942
18.71060,43199
18.71995,41964
18.72928,39997
18.73862,40467
18.74797,39119
18.75730,34659
18.76663,31618
18.77598,29297
18.78532,30972
18.79465,32097
18.80400,31626
18.81333,33108
18.82267,32029
18.83202,31947
18.84135,31155
18.85070,28640
18.86003,29977
18.86937,28767
18.87872,29196
18.88805,31966
18.89738,38187
18.90673,46402
18.91607,48252
18.92540,41061
18.93475,40221
18.94408,45076
18.95342,50006
18.96277,47218
18.97210,43269
18.98143,38273
18.99078,35154
19.00012,33516
19.00945,32507
19.01880,33761
19.02813,38230
19.03748,51513
19.04682,71278
19.05615,76179
19.06550,76544
19.07483,96963
19.08417,116438
19.09352,103080
19.10285,63912
19.11218,45544
19.12153,34439
19.13087,30963
19.14020,29747
19.14955,29867
19.15888,27419
19.16822,29492
19.17757,31088
19.18690,34994
19.19623,39223
19.20558,39657
19.21492,40312
19.22427,36809
19.23360,34031
19.24293,29605
19.25228,31322
19.26162,29752
19.27095,31523
19.28030,33444
19.28963,33328
19.29897,38195
19.30832,42406
19.31765,44744
19.32698,41046
19.33633,33592
19.34567,30564
19.35500,28710
19.36435,29140
19.37368,29004
19.38302,31150
19.39237,34141
19.40170,35629
19.41105,34607
19.42038,30940
19.42972,27943
19.43907,27170
19.44840,25881
19.45773,27417
19.46708,28311
19.47642,33159
19.48575,33035
19.49510,33127
19.50443,28211
19.51377,28785
19.52312,28097
19.53245,30095
19.54178,28214
19.55113,28719
19.56047,29124
19.56980,32749
19.57915,35083
19.58848,34837
19.59783,33748
19.60717,30642
19.61650,32422
19.62585,33975
19.63518,37276
19.64452,32247
19.65387,28694
19.66320,28474
19.67253,30796
19.68188,27285
19.69122,26575
19.70055,27714
19.70990,34045
19.71923,44287
19.72857,49180
19.73792,46782
19.74725,35895
19.75660,33022
19.76593,31132
19.77527,32807
19.78462,33996
19.79395,31955
19.80328,46190
19.81263,29803
19.82197,29583
19.83130,27774
19.84065,26801
19.84998,28222
19.85932,34625
19.86867,43756
19.87800,45824
19.88733,39752
19.89668,32858
19.90602,29537
19.91535,30034
19.92470,27942
19.93403,28410
19.94338,27620
19.95272,29885
19.96205,30079
19.97140,28902
19.98073,25169
19.99007,24585
19.99942,26875
20.00875,28000
20.01808,27682
20.02743,31703
20.03677,32074
20.04610,31384
20.05545,30359
20.06478,28993
20.07412,29933
20.08347,30006
20.09280,29178
20.10213,26523
20.11148,26790
20.12082,24929
20.13017,28719
20.13950,31066
20.14883,34756
20.15818,34548
20.16752,32035
20.17685,26493
20.18620,25293
20.19553,27988
20.20487,25245
20.21422,27344
20.22355,25651
20.23288,24726
20.24223,23233
20.25157,23981
20.26090,22777
20.27025,25456
20.27958,26308
20.28892,26131
20.29827,25448
20.30760,22952
20.31695,21960
20.32628,23580
20.33562,23796
20.34497,25695
20.35430,26290
20.36363,25134
20.37298,25471
20.38232,24362
20.39165,25122
20.40100,23535
20.41033,23938
20.41967,24960
20.42902,24730
20.43835,25168
20.44768,25884
20.45703,29820
20.46637,31702
20.47572,33279
20.48505,28936
20.49438,27393
20.50373,25940
20.51307,23765
20.52240,25329
20.53175,26348
20.54108,28990
20.55042,42632
20.55977,90979
20.56910,177756
20.57843,211760
20.58778,134289
20.59712,63265
20.60645,38459
20.61580,32119
20.62513,31254
20.63447,30592
20.64382,30018
20.65315,31115
20.66250,32781
20.67183,34771
20.68117,34167
20.69052,34177
20.69985,32784
20.70918,32966
20.71853,29458
20.72787,31705
20.73720,29694
20.74655,28835
20.75588,28686
20.76522,25178
20.77457,27262
20.78390,28662
20.79323,32041
20.80258,31020
20.81192,28534
20.82125,27695
20.83060,26280
20.83993,26638
20.84928,26800
20.85862,25476
20.86795,25363
20.87730,25723
20.88663,25099
20.89597,25289
20.90532,27047
20.91465,26197
20.92398,26046
20.93333,23388
20.94267,23475
20.95200,24064
20.96135,24233
20.97068,22415
20.98002,23329
20.98937,24042
20.99870,24812
21.00803,26127
21.01738,23892
21.02672,23382
21.03607,22440
21.04540,25564
21.05473,24731
21.06408,23813
21.07342,25296
21.08275,25141
21.09210,27606
21.10143,26801
21.11077,27983
21.12012,29110
21.12945,25744
21.13878,24704
21.14813,25044
21.15747,26617
21.16680,27836
21.17615,28891
21.18548,33493
21.19482,35131
21.20417,34527
21.21350,32540
21.22285,30072
21.23218,29837
21.24152,28301
21.25087,28780
21.26020,30870
21.26953,35298
21.27888,35139
21.28822,34827
21.29755,31941
21.30690,28904
21.31623,27813
21.32557,26910
21.33492,27235
21.34425,27837
21.35358,25751
21.36293,25637
21.37227,27454
21.38162,26993
21.39095,27849
21.40028,28335
21.40963,29547
21.41897,28912
21.42830,30042
21.43765,28623
21.44698,25753
21.45632,25822
21.46567,26831
21.47500,29893
21.48433,28371
21.49368,26919
21.50302,27301
21.51235,25993
21.52170,27014
21.53103,27154
21.54037,26237
21.54972,25724
21.55905,30300
21.56840,35974
21.57773,35493
21.58707,37130
21.59642,33506
21.60575,28728
21.61508,27752
21.62443,27715
21.63377,26633
21.64310,25759
21.65245,25661
21.66178,28497
21.67112,28274
21.68047,27427
21.68980,28439
21.69913,26246
21.70848,29114
21.71782,30021
21.72715,27610
21.73650,28127
21.74583,27306
21.75518,27921
21.76452,24942
21.77385,25079
21.78320,26362
21.79253,26354
21.80187,28254
21.81122,30039
21.82055,29493
21.82988,30914
21.83923,30465
21.84857,27463
21.85790,26625
21.86725,28847
21.87658,31497
21.88592,35339
21.89527,35823
21.90460,35413
21.91393,34185
21.92328,32185
21.93262,28705
21.94197,27541
21.95130,26788
21.96063,31220
21.96998,37915
21.97932,40417
21.98865,42177
21.99800,33653
22.00733,29922
22.01667,28909
22.02602,29987
22.03535,30418
22.04468,29259
22.05403,29806
22.06337,31253
22.07270,30455
22.08205,30880
22.09138,29916
22.10073,31470
22.11007,29232
22.11940,29106
22.12875,28237
22.13808,28205
22.14742,31453
22.15677,33383
22.16610,36921
22.17543,34843
22.18478,29154
22.19412,27792
22.20345,26619
22.21280,27514
22.22213,28021
22.23147,28752
22.24082,27490
22.25015,27995
22.25948,27157
22.26883,26892
22.27817,29047
22.28752,29936
22.29685,29211
22.30618,28580
22.31553,25800
22.32487,25404
22.33420,26767
22.34355,25987
22.35288,26816
22.36222,26653
22.37157,27595
22.38090,26613
22.39023,24193
22.39958,23752
22.40892,24251
22.41825,23118
22.42760,24685
22.43693,25472
22.44627,24453
22.45562,24657
22.46495,25760
22.47430,26307
22.48363,23844
22.49297,23960
22.50232,24797
22.51165,25588
22.52098,24556
22.53033,24795
22.53967,25031
22.54900,23646
22.55835,25360
22.56768,26678
22.57702,26670
22.58637,28627
22.59570,26896
22.60503,26200
22.61438,25286
22.62372,27575
22.63305,26696
22.64240,26580
22.65173,25179
22.66108,24845
22.67042,25844
22.67975,25235
22.68910,26996
22.69843,26314
22.70777,25955
22.71712,25800
22.72645,26028
22.73578,27228
22.74513,29650
22.75447,30046
22.76380,28581
22.77315,25777
22.78248,24726
22.79182,24580
22.80117,25294
22.81050,26292
22.81983,25400
22.82918,26058
22.83852,25302
22.84787,26455
22.85720,25808
22.86653,26804
22.87588,25529
22.88522,26670
22.89455,25543
22.90390,25620
22.91323,25735
22.92257,25983
22.93192,26738
22.94125,25833
22.95058,25208
22.95993,24819
22.96927,26061
22.97860,24889
22.98795,23538
22.99728,23973
23.00662,23364
23.01597,24337
23.02530,23757
23.03465,23157
23.04398,23160
23.05332,22965
23.06267,24248
23.07200,23740
23.08133,23380
23.09068,24660
23.10002,24374
23.10935,23630
23.11870,23969
23.12803,24315
23.13737,24488
23.14672,22285
23.15605,22906
23.16538,23408
23.17473,24198
23.18407,25002
23.19342,24243
23.20275,22226
23.21208,22991
23.22143,24372
23.23077,22833
23.24010,24551
23.24945,23143
23.25878,22442
23.26812,22321
23.27747,23674
23.28680,23586
23.29613,22382
23.30548,25276
23.31482,28141
23.32415,34000
23.33350,35547
23.34283,33522
23.35217,29863
23.36152,26985
23.37085,26783
23.38020,27632
23.38953,26788
23.39887,26907
23.40822,26670
23.41755,26365
23.42688,25639
23.43623,25320
23.44557,27286
23.45490,26626
23.46425,27581
23.47358,28268
23.48292,26400
23.49227,24124
23.50160,25069
23.51093,25229
23.52028,25649
23.52962,24052
23.53895,23972
23.54830,25210
23.55763,24957
23.56698,24630
23.57632,24470
23.58565,23913
23.59500,25585
23.60433,24770
23.61367,24465
23.62302,23317
23.63235,25020
23.64168,23575
23.65103,24082
23.66037,25811
23.66970,24181
23.67905,25776
23.68838,26065
23.69772,24320
23.70707,26641
23.71640,26806
23.72573,28702
23.73508,29898
23.74442,31135
23.75377,27223
23.76310,25665
23.77243,26086
23.78178,25393
23.79112,25009
23.80045,23143
23.80980,24066
23.81913,25197
23.82847,24646
23.83782,24590
23.84715,22587
23.85648,22429
23.86583,25468
23.87517,25056
23.88450,24256
23.89385,24264
23.90318,25529
23.91253,23837
23.92187,25812
23.93120,25552
23.94055,25901
23.94988,24892
23.95922,26073
23.96857,25614
23.97790,26334
23.98723,25453
23.99658,25707
24.00592,25303
24.01525,25182
24.02460,25052
24.03393,23942
24.04327,24533
24.05262,22267
24.06195,23730
24.07128,24090
24.08063,24781
24.08997,23575
24.09932,23395
24.10865,24672
24.11798,22853
24.12733,23337
24.13667,25498
24.14600,25539
24.15535,25242
24.16468,24152
24.17402,24157
24.18337,25004
24.19270,25444
24.20203,25099
24.21138,23887
24.22072,26480
24.23005,23285
24.23940,25848
24.24873,25929
24.25807,26186
24.26742,25566
24.27675,24842
24.28610,25980
24.29543,26188
24.30477,25955
24.31412,25710
24.32345,27868
24.33278,28738
24.34213,30003
24.35147,26489
24.36080,25418
24.37015,23823
24.37948,25597
24.38882,26790
24.39817,25695
24.40750,24347
24.41683,25205
24.42618,24938
24.43552,24155
24.44485,23663
24.45420,24718
24.46353,25534
24.47288,25705
24.48222,26791
24.49155,26869
24.50090,27394
24.51023,26338
24.51957,26700
24.52892,27608
24.53825,25211
24.54758,26359
24.55693,25039
24.56627,24624
24.57560,26319
24.58495,26674
24.59428,26524
24.60362,28119
24.61297,28122
24.62230,27373
24.63163,26139
24.64098,25403
24.65032,26517
24.65967,27565
24.66900,27991
24.67833,27124
24.68768,26546
24.69702,25917
24.70635,26753
24.71570,27562
24.72503,25294
24.73437,26526
24.74372,27813
24.75305,26337
24.76238,26709
24.77173,26638
24.78107,26560
24.79040,26213
24.79975,26470
24.80908,28466
24.81843,26802
24.82777,27307
24.83710,26745
24.84645,26162
24.85578,27651
24.86512,25694
24.87447,26967
24.88380,27516
24.89313,30022
24.90248,25748
24.91182,26985
24.92115,27292
24.93050,27196
24.93983,26556
24.94917,27540
24.95852,27720
24.96785,26649
24.97718,27302
24.98653,28436
24.99587,26009
25.00522,27637
25.01455,26418
25.02388,28446
25.03323,28771
25.04257,28243
25.05190,27121
25.06125,26457
25.07058,28552
25.07992,25853
25.08927,28945
25.09860,27744
25.10793,26585
25.11728,27314
25.12662,26894
25.13595,28127
25.14530,26495
25.15463,28687
25.16397,28001
25.17332,27695
25.18265,29470
25.19200,27784
25.20133,29570
25.21067,29060
25.22002,26112
25.22935,28185
25.23868,26371
25.24803,28243
25.25737,27106
25.26670,27889
25.27605,29495
25.28538,29103
25.29472,27097
25.30407,26930
25.31340,29664
25.32273,28639
25.33208,28289
25.34142,30647
25.35075,29178
25.36010,32068
25.36943,31806
25.37878,35568
25.38812,33244
25.39745,33608
25.40680,34435
25.41613,32451
25.42547,31954
25.43482,30618
25.44415,32806
25.45348,31193
25.46283,32038
25.47217,33383
25.48150,32112
25.49085,34359
25.50018,33429
25.50952,32875
25.51887,34694
25.52820,34941
25.53755,31465
25.54688,31931
25.55622,32663
25.56557,31188
25.57490,30547
25.58423,29876
25.59358,32139
25.60292,31267
25.61225,30711
25.62160,31608
25.63093,31257
25.64027,33123
25.64962,33797
25.65895,33371
25.66828,33148
25.67763,32248
25.68697,33098
25.69630,32151
25.70565,33049
25.71498,31559
25.72433,31157
25.73367,31752
25.74300,33557
25.75235,32965
25.76168,34574
25.77102,35150
25.78037,33743
25.78970,34007
25.79903,35855
25.80838,34968
25.81772,35125
25.82705,36384
25.83640,35922
25.84573,35522
25.85507,34369
25.86442,33221
25.87375,34044
25.88308,32892
25.89243,33573
25.90177,33558
25.91112,32309
25.92045,33276
25.92978,31006
25.93913,33531
25.94847,34138
25.95780,34146
25.96715,33256
25.97648,35211
25.98582,34723
25.99517,34349
26.00450,34292
26.01383,33572
26.02318,35419
26.03252,33916
26.04185,35431
26.05120,34113
26.06053,34328
26.06987,33290
26.07922,33161
26.08855,33747
26.09790,35405
26.10723,36500
26.11657,35768
26.12592,38832
26.13525,42304
26.14458,39453
26.15393,38438
26.16327,37573
26.17260,37065
26.18195,38406
26.19128,36003
26.20062,37877
26.20997,39147
26.21930,37924
26.22863,39518
26.23798,35754
26.24732,35693
26.25665,37380
26.26600,36934
26.27533,38106
26.28468,36639
26.29402,36372
26.30335,38798
26.31270,35619
26.32203,38070
26.33137,36496
26.34072,38458
26.35005,36528
26.35938,39290
26.36873,36697
26.37807,36950
26.38740,36733
26.39675,37554
26.40608,37694
26.41542,36527
26.42477,37639
26.43410,37215
26.44343,39028
26.45278,38805
26.46212,40918
26.47147,38037
26.48080,37008
26.49013,39357
26.49948,36931
26.50882,39523
26.51815,38390
26.52750,39201
26.53683,38851
26.54617,38676
26.55552,38862
26.56485,38835
26.57418,39537
26.58353,39103
26.59287,40381
26.60220,40413
26.61155,39890
26.62088,39638
26.63023,40974
26.63957,41510
26.64890,41603
26.65825,43353
26.66758,44100
26.67692,40010
26.68627,41687
26.69560,40878
26.70493,42469
26.71428,39647
26.72362,41583
26.73295,40433
26.74230,40271
26.75163,40399
26.76097,40359
26.77032,41341
26.77965,41362
26.78898,42914
26.79833,42139
26.80767,41207
26.81702,40416
26.82635,42837
26.83568,45135
26.84503,44216
26.85437,45614
26.86370,45889
26.87305,45754
26.88238,45553
26.89172,45120
26.90107,44170
26.91040,43510
26.91973,45560
26.92908,44586
26.93842,43485
26.94775,43137
26.95710,44461
26.96643,44336
26.97577,46092
26.98512,46438
26.99445,46484
27.00380,47267
27.01313,45277
27.02247,46790
27.03182,44979
27.04115,46797
27.05048,44265
27.05983,44927
27.06917,45019
27.07850,44955
27.08785,43620
27.09718,45030
27.10652,43940
27.11587,45612
27.12520,46905
27.13453,45234
27.14388,44526
27.15322,44696
27.16255,47301
27.17190,47989
27.18123,46817
27.19058,47881
27.19992,48296
27.20925,49539
27.21860,50435
27.22793,47890
27.23727,48017
27.24662,47523
27.25595,50001
27.26528,49286
27.27463,53353
27.28397,51930
27.29330,49197
27.30265,51035
27.31198,48840
27.32132,48017
27.33067,50339
27.34000,50035
27.34935,48532
27.35868,48250
27.36802,49131
27.37737,49657
27.38670,48466
27.39603,48710
27.40538,51381
27.41472,51492
27.42405,51460
27.43340,51057
27.44273,51017
27.45207,54309
27.46142,53972
27.47075,51865
27.48008,55630
27.48943,54286
27.49877,56063
27.50810,54506
27.51745,53570
27.52678,53752
27.53613,51826
27.54547,51845
27.55480,55000
27.56415,54644
27.57348,55833
27.58282,54894
27.59217,53454
27.60150,53443
27.61083,55072
27.62018,55741
27.62952,54251
27.63885,55725
27.64820,55038
27.65753,54439
27.66687,57454
27.67622,54637
27.68555,54088
27.69488,55322
27.70423,55262
27.71357,57371
27.72292,57205
27.73225,56439
27.74158,56955
27.75093,57655
27.76027,60232
27.76960,61365
27.77895,60892
27.78828,62107
27.79762,60777
27.80697,61717
27.81630,60846
27.82563,59877
27.83498,61663
27.84432,59132
27.85365,60441
27.86300,60175
27.87233,60516
27.88167,63247
27.89102,61441
27.90035,61012
27.90970,60435
27.91903,62326
27.92837,59928
27.93772,61467
27.94705,62732
27.95638,59476
27.96573,61084
27.97507,61704
27.98440,64154
27.99375,61606
28.00308,62067
28.01242,63394
28.02177,62136
28.03110,63422
28.04043,64024
28.04978,65071
28.05912,62563
28.06845,61826
28.07780,64717
28.08713,65262
28.09648,64139
28.10582,67379
28.11515,66440
28.12450,64010
28.13383,66754
28.14317,66580
28.15252,67780
28.16185,65678
28.17118,67842
28.18053,67678
28.18987,70151
28.19920,70281
28.20855,68350
28.21788,71054
28.22722,66826
28.23657,67153
28.24590,67748
28.25525,68783
28.26458,67237
28.27392,69564
28.28327,69450
28.29260,64782
28.30193,70460
28.31128,70581
28.32062,69465
28.32995,70699
28.33930,71366
28.34863,72945
28.35797,70009
28.36732,70405
28.37665,71982
28.38598,69895
28.39533,70857
28.40467,71495
28.41400,73282
28.42335,72462
28.43268,76442
28.44203,74500
28.45137,76521
28.46070,73466
28.47005,75010
28.47938,75929
28.48872,77446
28.49807,73736
28.50740,73061
28.51673,74062
28.52608,76204
28.53542,75307
28.54475,75939
28.55410,76480
28.56343,77339
28.57277,75842
28.58212,74586
28.59145,76796
28.60078,76288
28.61013,78183
28.61947,77305
28.62882,76421
28.63815,80088
28.64748,78874
28.65683,79253
28.66617,84230
28.67550,90023
28.68485,90693
28.69418,91539
28.70352,85924
28.71287,86532
28.72220,84727
28.73153,86591
28.74088,86296
28.75022,86111
28.75955,85032
28.76890,83903
28.77823,86870
28.78757,88199
28.79692,85908
28.80625,88168
28.81560,89784
28.82493,89712
28.83427,89472
28.84362,88854
28.85295,87602
28.86228,86462
28.87163,88842
28.88097,88518
28.89030,88404
28.89965,88470
28.90898,89245
28.91832,86411
28.92767,90637
28.93700,88705
28.94633,88717
28.95568,91569
28.96502,90785
28.97437,89462
28.98370,90159
28.99303,91961
29.00238,91345
29.01172,92927
29.02105,92127
29.03040,93414
29.03973,95144
29.04907,95494
29.05842,97257
29.06775,98414
29.07708,94116
29.08643,96323
29.09577,95981
29.10510,94303
29.11445,94715
29.12378,94788
29.13312,93311
29.14247,95017
29.15180,95164
29.16115,94230
29.17048,96053
29.17982,94846
29.18917,99000
29.19850,100927
29.20783,96963
29.21718,98047
29.22652,93441
29.23585,97476
29.24520,98152
29.25453,101278
29.26387,96308
29.27322,98934
29.28255,99878
29.29188,102486
29.30123,99823
29.31057,100821
29.31990,99303
29.32925,101539
29.33858,101304
29.34793,99063
29.35727,100980
29.36660,101408
29.37595,101483
29.38528,99222
29.39462,101076
29.40397,99634
29.41330,102342
29.42263,100735
29.43198,103980
29.44132,104425
29.45065,107091
29.46000,106263
29.46933,108404
29.47867,112076
29.48802,107576
29.49735,111308
29.50668,104190
29.51603,106627
29.52537,104349
29.53472,104048
29.54405,101910
29.55338,106601
29.56273,105033
29.57207,103670
29.58140,104665
29.59075,103781
29.60008,106011
29.60942,104462
29.61877,110045
29.62810,106129
29.63743,103048
29.64678,105689
29.65612,105389
29.66545,105418
29.67480,106696
29.68413,104760
29.69347,106230
29.70282,104947
29.71215,105159
29.72150,103355
29.73083,107049
29.74017,104012
29.74952,103888
29.75885,105890
29.76818,102695
29.77753,105921
29.78687,104759
29.79620,106473
29.80555,104132
29.81488,104912
29.82422,108115
29.83357,105810
29.84290,106262
29.85223,107385
29.86158,108807
29.87092,106606
29.88025,103736
29.88960,102834
29.89893,107392
29.90828,105997
29.91762,106989
29.92695,107614
29.93630,107070
29.94563,110626
29.95497,108618
29.96432,109838
29.97365,108368
29.98298,106848
29.99233,105450
30.00167,107805
30.01100,111459
30.02035,108575
30.02968,110030
30.03902,108454
30.04837,107954
30.05770,105833
30.06705,108976
30.07638,110711
30.08572,109478
30.09507,111123
30.10440,109029
30.11373,112296
30.12308,111114
30.13242,110607
30.14175,112578
30.15110,111918
30.16043,108971
30.16977,110794
30.17912,110399
30.18845,112812
30.19778,111053
30.20713,113853
30.21647,108812
30.22580,111637
30.23515,111657
30.24448,108511
30.25383,108041
30.26317,108516
30.27250,111558
30.28185,109435
30.29118,109986
30.30052,112260
30.30987,114227
30.31920,110738
30.32853,111649
30.33788,110450
30.34722,111287
30.35655,111307
30.36590,114122
30.37523,115712
30.38457,117670
30.39392,119363
30.40325,115792
30.41258,116301
30.42193,114771
30.43127,114932
30.44062,113445
30.44995,113939
30.45928,112866
30.46863,115548
30.47797,112101
30.48730,113801
30.49665,113042
30.50598,113002
30.51532,114693
30.52467,111736
30.53400,112845
30.54333,114838
30.55268,111386
30.56202,117093
30.57135,114358
30.58070,116338
30.59003,113448
30.59937,112658
30.60872,118398
30.61805,118926
30.62740,118660
30.63673,122166
30.64607,120121
30.65542,121420
30.66475,123485
30.67408,123707
30.68343,125390
30.69277,123337
30.70210,124808
30.71145,124523
30.72078,120550
30.73012,120307
30.73947,118216
30.74880,119931
30.75813,119949
30.76748,118964
30.77682,119708
30.78617,116621
30.79550,119554
30.80483,119250
30.81418,119326
30.82352,119161
30.83285,120678
30.84220,118029
30.85153,120708
30.86087,119942
30.87022,122996
30.87955,118758
30.88888,119665
30.89823,122560
30.90757,123998
30.91690,125291
30.92625,120352
30.93558,122345
30.94492,123054
30.95427,122301
30.96360,119553
30.97295,123311
30.98228,121912
30.99162,122519
31.00097,122332
31.01030,121792
31.01963,119144
31.02898,122896
31.03832,117895
31.04765,120310
31.05700,117030
31.06633,120277
31.07567,121578
31.08502,121483
31.09435,120605
31.10368,118719
31.11303,121478
31.12237,120745
31.13170,120114
31.14105,122915
31.15038,126582
31.15973,126552
31.16907,123222
31.17840,124940
31.18775,128805
31.19708,126421
31.20642,128362
31.21577,127261
31.22510,127836
31.23443,125152
31.24378,125742
31.25312,128397
31.26245,128698
31.27180,126063
31.28113,129279
31.29047,125437
31.29982,123259
31.30915,127554
31.31848,128639
31.32783,126640
31.33717,129111
31.34652,126092
31.35585,128965
31.36518,131019
