D:\数据\20220412\TEST5-ZRHX-1.D Tue Apr 12 23:26:20 2022
Start of data points
0.09768,18710
0.10702,18164
0.11635,18817
0.12570,17924
0.13503,18957
0.14437,19808
0.15372,18989
0.16305,19253
0.17238,19056
0.18173,18879
0.19107,18989
0.20040,17679
0.20975,19774
0.21908,18873
0.22842,19012
0.23777,17390
0.24710,17296
0.25643,17544
0.26578,16560
0.27512,18309
0.28447,18675
0.29380,18130
0.30313,17794
0.31248,17746
0.32182,18328
0.33115,16660
0.34050,17337
0.34983,18187
0.35917,17584
0.36852,18634
0.37785,16751
0.38718,17855
0.39653,17434
0.40587,18350
0.41520,18467
0.42455,14470
0.43388,13351
0.44323,11927
0.45257,7773
0.46190,5365
0.47125,5043
0.48058,4786
0.48992,4542
0.49927,4578
0.50860,4919
0.51793,4131
0.52728,4052
0.53662,4763
0.54595,3851
0.55530,4468
0.56463,3579
0.57397,3482
0.58332,3517
0.59265,3794
0.60198,4100
0.61133,3134
0.62067,3738
0.63002,4172
0.63935,3749
0.64868,3340
0.65803,3843
0.66737,4017
0.67670,3476
0.68605,3957
0.69538,4146
0.70472,3353
0.71407,3187
0.72340,3774
0.73273,3757
0.74208,4187
0.75142,3165
0.76075,3382
0.77010,3471
0.77943,3344
0.78877,3319
0.79812,3022
0.80745,3577
0.81680,3202
0.82613,3185
0.83547,3385
0.84482,3230
0.85415,3122
0.86348,2598
0.87283,3272
0.88217,3637
0.89150,2645
0.90085,3417
0.91018,3577
0.91952,3043
0.92887,3594
0.93820,3144
0.94753,3619
0.95688,3441
0.96622,3307
0.97555,3083
0.98490,3089
0.99423,3414
1.00358,3374
1.01292,2872
1.02225,3287
1.03160,3534
1.04093,3486
1.05027,3134
1.05962,3466
1.06895,3856
1.07828,3171
1.08763,2934
1.09697,3329
1.10630,2931
1.11565,3153
1.12498,3139
1.13432,2904
1.14367,3270
1.15300,3171
1.16235,3975
1.17168,3433
1.18102,3654
1.19037,2787
1.19970,3120
1.20903,2971
1.21838,2787
1.22772,3439
1.23705,2933
1.24640,3025
1.25573,2850
1.26507,3324
1.27442,2697
1.28375,3147
1.29308,2956
1.30243,2717
1.31177,3271
1.32110,3100
1.33045,3217
1.33978,3158
1.34913,3054
1.35847,3331
1.36780,3831
1.37715,3392
1.38648,3482
1.39582,3205
1.40517,3358
1.41450,2686
1.42383,3597
1.43318,3192
1.44252,3366
1.45185,3073
1.46120,2990
1.47053,3208
1.47987,2991
1.48922,3121
1.49855,2940
1.50788,3040
1.51723,3512
1.52657,3474
1.53592,2504
1.54525,2969
1.55458,2962
1.56393,3145
1.57327,3350
1.58260,2636
1.59195,3802
1.60128,4947
1.61062,9342
1.61997,13571
1.62930,15979
1.63863,22858
1.64798,32054
1.65732,43240
1.66665,43029
1.67600,39734
1.68533,32204
1.69467,27776
1.70402,23323
1.71335,18909
1.72270,14795
1.73203,13945
1.74137,14533
1.75072,15543
1.76005,17328
1.76938,18934
1.77873,18981
1.78807,20431
1.79740,21261
1.80675,21376
1.81608,21639
1.82542,21606
1.83477,20578
1.84410,21848
1.85343,20370
1.86278,21871
1.87212,24946
1.88145,39141
1.89080,66564
1.90013,96720
1.90948,114739
1.91882,131230
1.92815,163548
1.93750,209151
1.94683,256301
1.95617,272206
1.96552,244526
1.97485,198982
1.98418,154113
1.99353,120682
2.00287,99448
2.01220,88643
2.02155,93423
2.03088,106378
2.04022,93501
2.04957,75381
2.05890,63574
2.06825,55121
2.07758,49227
2.08692,45740
2.09627,40262
2.10560,39605
2.11493,51138
2.12428,105273
2.13362,283071
2.14295,480160
2.15230,468245
2.16163,342267
2.17097,226525
2.18032,170229
2.18965,241922
2.19898,330691
2.20833,247792
2.21767,143584
2.22700,108203
2.23635,148651
2.24568,424486
2.25503,1731957
2.26437,3296773
2.27370,3346837
2.28305,2468988
2.29238,1525283
2.30172,1060362
2.31107,2245761
2.32040,5606682
2.32973,6318092
2.33908,3801823
2.34842,1720722
2.35775,746687
2.36710,371411
2.37643,229255
2.38577,159001
2.39512,114967
2.40445,97369
2.41378,94488
2.42313,93090
2.43247,82906
2.44182,67546
2.45115,58357
2.46048,54354
2.46983,54209
2.47917,51938
2.48850,47352
2.49785,46840
2.50718,43487
2.51652,40538
2.52587,40440
2.53520,41229
2.54453,44558
2.55388,49385
2.56322,78088
2.57255,105144
2.58190,101156
2.59123,86867
2.60057,80533
2.60992,90753
2.61925,133252
2.62860,171508
2.63793,153437
2.64727,131410
2.65662,116860
2.66595,86062
2.67528,63188
2.68463,48588
2.69397,41750
2.70330,43679
2.71265,66164
2.72198,154687
2.73132,247449
2.74067,208729
2.75000,148173
2.75933,117234
2.76868,114192
2.77802,134597
2.78737,148460
2.79670,127413
2.80603,101708
2.81538,89806
2.82472,81813
2.83405,86548
2.84340,192354
2.85273,604554
2.86207,1169401
2.87142,1154578
2.88075,685858
2.89008,315337
2.89943,159004
2.90877,95022
2.91810,73180
2.92745,62556
2.93678,51578
2.94612,46021
2.95547,41640
2.96480,43411
2.97415,39959
2.98348,39207
2.99282,45052
3.00217,51731
3.01150,61978
3.02083,167644
3.03018,391440
3.03952,429120
3.04885,302590
3.05820,198223
3.06753,147827
3.07687,118585
3.08622,88101
3.09555,64058
3.10488,48848
3.11423,43698
3.12357,38803
3.13290,40606
3.14225,48912
3.15158,83301
3.16093,146258
3.17027,163050
3.17960,116459
3.18895,70877
3.19828,51762
3.20762,41825
3.21697,37014
3.22630,35776
3.23563,33304
3.24498,33002
3.25432,35690
3.26365,34638
3.27300,34462
3.28233,32887
3.29167,34293
3.30102,35581
3.31035,36571
3.31968,34544
3.32903,31339
3.33837,29331
3.34772,32423
3.35705,32310
3.36638,32379
3.37573,32265
3.38507,30679
3.39440,31454
3.40375,35061
3.41308,45475
3.42242,48323
3.43177,46466
3.44110,45451
3.45043,43369
3.45978,41390
3.46912,37521
3.47845,36754
3.48780,36200
3.49713,32825
3.50647,32636
3.51582,31984
3.52515,31335
3.53450,32115
3.54383,46458
3.55317,97662
3.56252,193499
3.57185,257723
3.58118,221765
3.59053,158497
3.59987,140928
3.60920,119080
3.61855,87839
3.62788,69503
3.63722,58381
3.64657,48770
3.65590,45092
3.66523,42537
3.67458,43971
3.68392,39653
3.69325,36665
3.70260,34747
3.71193,35908
3.72128,41801
3.73062,44162
3.73995,40669
3.74930,34979
3.75863,33518
3.76797,30651
3.77732,30074
3.78665,33342
3.79598,39737
3.80533,42994
3.81467,54378
3.82400,63174
3.83335,57186
3.84268,45044
3.85202,39156
3.86137,35332
3.87070,34903
3.88005,33362
3.88938,40298
3.89872,48437
3.90807,49356
3.91740,45862
3.92673,44192
3.93608,45126
3.94542,47353
3.95475,46846
3.96410,43610
3.97343,38314
3.98277,35565
3.99212,32454
4.00145,31906
4.01078,31926
4.02013,35744
4.02947,57070
4.03880,114312
4.04815,175312
4.05748,166978
4.06683,110575
4.07617,77551
4.08550,69832
4.09485,66563
4.10418,56923
4.11352,47687
4.12287,37355
4.13220,34607
4.14153,33241
4.15088,31410
4.16022,31294
4.16955,30167
4.17890,28952
4.18823,28212
4.19757,28809
4.20692,30281
4.21625,30748
4.22558,29883
4.23493,31316
4.24427,29995
4.25362,34345
4.26295,34267
4.27228,33895
4.28163,34929
4.29097,30840
4.30030,30928
4.30965,30281
4.31898,35245
4.32832,37910
4.33767,38626
4.34700,36483
4.35633,31422
4.36568,27465
4.37502,29352
4.38435,27815
4.39370,29004
4.40303,26699
4.41238,27175
4.42172,26176
4.43105,26482
4.44040,25988
4.44973,26746
4.45907,27998
4.46842,33198
4.47775,38631
4.48708,40085
4.49643,35994
4.50577,32419
4.51510,29645
4.52445,28264
4.53378,29006
4.54312,29340
4.55247,30001
4.56180,29147
4.57113,28728
4.58048,28238
4.58982,26761
4.59917,27592
4.60850,29686
4.61783,27541
4.62718,27968
4.63652,29105
4.64585,32000
4.65520,33952
4.66453,32800
4.67387,32654
4.68322,34351
4.69255,43370
4.70188,49768
4.71123,49039
4.72057,46523
4.72990,38661
4.73925,36171
4.74858,31507
4.75792,28976
4.76727,29581
4.77660,30621
4.78595,31183
4.79528,29624
4.80462,29843
4.81397,33645
4.82330,35047
4.83263,33106
4.84198,30624
4.85132,29181
4.86065,31385
4.87000,34454
4.87933,38757
4.88867,37152
4.89802,35627
4.90735,34323
4.91668,31917
4.92603,30795
4.93537,32808
4.94470,33026
4.95405,30278
4.96338,28478
4.97273,26679
4.98207,27063
4.99140,25821
5.00075,26889
5.01008,28128
5.01942,31836
5.02877,31776
5.03810,30893
5.04743,30638
5.05678,29990
5.06612,27194
5.07545,27624
5.08480,28054
5.09413,29419
5.10347,27943
5.11282,25658
5.12215,25658
5.13148,27428
5.14083,30305
5.15017,29270
5.15952,28450
5.16885,27768
5.17818,29639
5.18753,31735
5.19687,29369
5.20620,26874
5.21555,26302
5.22488,26237
5.23422,27810
5.24357,30287
5.25290,27795
5.26223,31917
5.27158,55845
5.28092,104115
5.29025,154695
5.29960,146697
5.30893,96638
5.31827,60511
5.32762,46522
5.33695,40070
5.34630,32599
5.35563,29122
5.36497,27734
5.37432,27083
5.38365,31167
5.39298,36120
5.40233,37933
5.41167,32642
5.42100,31375
5.43035,28538
5.43968,26822
5.44902,25758
5.45837,25015
5.46770,26369
5.47703,26486
5.48638,27482
5.49572,27006
5.50507,29130
5.51440,28081
5.52373,31870
5.53308,34506
5.54242,33572
5.55175,28935
5.56110,27373
5.57043,26905
5.57977,27037
5.58912,26867
5.59845,23994
5.60778,24381
5.61713,23535
5.62647,23973
5.63580,24109
5.64515,26580
5.65448,26459
5.66382,25132
5.67317,27570
5.68250,28441
5.69185,28259
5.70118,29072
5.71052,28990
5.71987,30617
5.72920,28241
5.73853,28246
5.74788,32346
5.75722,37359
5.76655,36964
5.77590,32266
5.78523,28995
5.79457,27441
5.80392,27278
5.81325,27305
5.82258,29855
5.83193,31362
5.84127,30409
5.85060,31131
5.85995,28566
5.86928,28334
5.87863,26692
5.88797,27901
5.89730,24955
5.90665,30460
5.91598,52947
5.92532,75684
5.93467,75009
5.94400,57744
5.95333,46986
5.96268,37293
5.97202,33020
5.98135,29226
5.99070,28648
6.00003,27407
6.00937,26682
6.01872,25352
6.02805,24211
6.03738,20769
6.04673,18550
6.05607,16705
6.06542,17250
6.07475,14654
6.08408,14199
6.09343,13481
6.10277,12009
6.11210,13262
6.12145,18552
6.13078,25059
6.14012,26608
6.14947,22121
6.15880,15619
6.16813,14136
6.17748,13271
6.18682,12649
6.19615,12906
6.20550,13622
6.21483,14019
6.22418,13121
6.23352,15046
6.24285,16010
6.25220,14617
6.26153,18737
6.27087,24621
6.28022,22095
6.28955,17148
6.29888,12862
6.30823,11404
6.31757,10479
6.32690,10826
6.33625,10780
6.34558,10016
6.35492,10682
6.36427,11299
6.37360,14016
6.38293,19358
6.39228,39690
6.40162,95179
6.41097,156724
6.42030,145014
6.42963,78097
6.43898,30135
6.44832,16925
6.45765,13862
6.46700,14289
6.47633,13379
6.48567,12255
6.49502,12386
6.50435,12415
6.51368,12705
6.52303,13441
6.53237,13515
6.54170,12080
6.55105,11697
6.56038,11165
6.56972,10604
6.57907,11204
6.58840,12240
6.59775,12947
6.60708,13459
6.61642,14351
6.62577,13308
6.63510,13946
6.64443,13362
6.65378,15034
6.66312,15886
6.67245,15785
6.68180,16825
6.69113,17192
6.70047,14941
6.70982,14983
6.71915,13711
6.72848,13293
6.73783,11120
6.74717,11727
6.75650,11211
6.76585,11857
6.77518,12393
6.78453,14785
6.79387,17909
6.80320,19959
6.81255,17854
6.82188,15158
6.83122,13510
6.84057,12887
6.84990,12789
6.85923,12830
6.86858,12906
6.87792,12687
6.88725,12389
6.89660,11887
6.90593,12493
6.91527,14400
6.92462,12122
6.93395,12035
6.94328,12422
6.95263,12929
6.96197,12458
6.97132,12686
6.98065,12265
6.98998,13237
6.99933,11504
7.00867,12382
7.01800,12537
7.02735,12314
7.03668,10537
7.04602,10342
7.05537,11380
7.06470,10515
7.07403,9544
7.08338,9696
7.09272,11983
7.10205,11584
7.11140,13390
7.12073,15174
7.13008,13807
7.13942,13274
7.14875,12480
7.15810,11155
7.16743,10709
7.17677,11715
7.18612,12310
7.19545,12124
7.20478,12358
7.21413,13185
7.22347,21286
7.23280,42236
7.24215,56434
7.25148,50968
7.26082,31774
7.27017,20449
7.27950,18816
7.28883,17466
7.29818,16813
7.30752,15885
7.31687,12617
7.32620,10132
7.33553,10346
7.34488,10806
7.35422,11028
7.36355,12142
7.37290,12551
7.38223,19182
7.39157,40930
7.40092,85856
7.41025,122024
7.41958,109315
7.42893,69460
7.43827,38902
7.44760,22064
7.45695,15418
7.46628,15177
7.47562,14473
7.48497,15490
7.49430,15166
7.50365,12546
7.51298,10988
7.52232,11056
7.53167,12286
7.54100,11587
7.55033,12501
7.55968,13791
7.56902,14264
7.57835,13112
7.58770,12650
7.59703,12277
7.60637,12635
7.61572,12716
7.62505,13744
7.63438,14822
7.64373,13623
7.65307,12824
7.66240,11237
7.67175,14267
7.68108,28016
7.69043,97032
7.69977,249416
7.70910,353608
7.71845,250501
7.72778,102145
7.73712,33684
7.74647,18590
7.75580,15368
7.76513,16321
7.77448,16438
7.78382,19202
7.79315,16860
7.80250,14660
7.81183,13236
7.82117,12996
7.83052,13382
7.83985,14652
7.84920,20146
7.85853,35301
7.86787,50440
7.87722,53283
7.88655,37025
7.89588,27109
7.90523,33353
7.91457,52871
7.92390,62508
7.93325,51003
7.94258,39153
7.95192,33296
7.96127,29548
7.97060,24364
7.97993,24608
7.98928,24259
7.99862,21228
8.00795,17041
8.01730,18521
8.02663,18483
8.03598,25428
8.04532,29210
8.05465,27972
8.06400,19538
8.07333,16545
8.08267,18166
8.09202,19686
8.10135,21159
8.11068,19177
8.12003,17044
8.12937,16255
8.13870,14397
8.14805,14208
8.15738,14281
8.16672,13530
8.17607,13711
8.18540,12407
8.19473,12912
8.20408,13119
8.21342,14199
8.22277,13570
8.23210,13059
8.24143,15143
8.25078,15194
8.26012,15314
8.26945,15340
8.27880,12700
8.28813,13312
8.29747,12655
8.30682,12909
8.31615,13125
8.32548,12460
8.33483,12189
8.34417,12178
8.35350,12957
8.36285,11481
8.37218,12877
8.38152,14000
8.39087,14751
8.40020,17096
8.40955,16910
8.41888,18365
8.42822,16565
8.43757,17040
8.44690,15930
8.45623,14971
8.46558,15344
8.47492,16004
8.48425,16466
8.49360,15190
8.50293,16107
8.51227,13972
8.52162,14526
8.53095,14438
8.54028,15903
8.54963,14865
8.55897,16399
8.56830,16435
8.57765,15510
8.58698,16707
8.59633,17614
8.60567,17521
8.61500,17792
8.62435,16762
8.63368,15293
8.64302,15463
8.65237,15735
8.66170,15382
8.67103,16292
8.68038,15589
8.68972,16978
8.69905,17458
8.70840,17440
8.71773,16366
8.72707,15013
8.73642,18575
8.74575,22968
8.75510,28142
8.76443,27146
8.77377,21204
8.78312,19126
8.79245,30539
8.80178,53557
8.81113,70225
8.82047,60338
8.82980,37875
8.83915,22089
8.84848,17211
8.85782,16742
8.86717,17586
8.87650,17914
8.88583,19241
8.89518,19779
8.90452,17964
8.91385,18939
8.92320,19489
8.93253,19720
8.94188,18522
8.95122,17728
8.96055,15728
8.96990,14829
8.97923,17372
8.98857,14460
8.99792,14493
9.00725,16389
9.01658,17022
9.02593,16207
9.03527,16089
9.04460,16646
9.05395,18942
9.06328,20769
9.07262,22049
9.08197,26821
9.09130,28212
9.10063,25212
9.10998,19733
9.11932,19557
9.12867,22408
9.13800,24575
9.14733,22548
9.15668,18790
9.16602,16494
9.17535,16963
9.18470,16344
9.19403,19052
9.20337,19156
9.21272,23872
9.22205,37787
9.23138,54810
9.24073,54990
9.25007,35644
9.25940,22490
9.26875,19174
9.27808,17321
9.28742,18167
9.29677,18548
9.30610,18901
9.31545,25773
9.32478,37137
9.33412,41252
9.34347,34311
9.35280,34482
9.36213,59929
9.37148,89330
9.38082,98144
9.39015,76210
9.39950,55467
9.40883,38735
9.41817,35453
9.42752,31509
9.43685,25909
9.44618,21067
9.45553,18719
9.46487,16853
9.47422,18007
9.48355,18650
9.49288,19010
9.50223,21287
9.51157,19295
9.52090,19056
9.53025,19050
9.53958,21794
9.54892,28860
9.55827,41308
9.56760,44754
9.57693,36115
9.58628,28124
9.59562,27021
9.60495,26950
9.61430,23557
9.62363,18869
9.63297,18074
9.64232,18035
9.65165,18152
9.66100,17410
9.67033,16339
9.67967,18466
9.68902,16312
9.69835,16616
9.70768,17173
9.71703,27699
9.72637,62955
9.73570,166421
9.74505,303037
9.75438,354948
9.76372,272322
9.77307,170086
9.78240,114915
9.79173,82505
9.80108,64661
9.81042,57757
9.81975,57340
9.82910,62929
9.83843,70180
9.84778,72341
9.85712,60526
9.86645,44689
9.87580,45739
9.88513,52383
9.89447,56890
9.90382,57987
9.91315,61473
9.92248,58219
9.93183,45243
9.94117,34822
9.95050,30210
9.95985,39820
9.96918,104239
9.97852,279532
9.98787,440186
9.99720,366908
10.00653,183497
10.01588,66760
10.02522,33571
10.03457,27720
10.04390,25096
10.05323,30407
10.06258,36163
10.07192,41245
10.08125,38185
10.09060,31405
10.09993,37760
10.10927,92773
10.11862,246946
10.12795,384910
10.13728,388128
10.14663,659520
10.15597,1731888
10.16530,2613412
10.17465,1939974
10.18398,711753
10.19332,151961
10.20267,45257
10.21200,32035
10.22135,28684
10.23068,29940
10.24002,31671
10.24937,30922
10.25870,28148
10.26803,24042
10.27738,23334
10.28672,24343
10.29605,24317
10.30540,22208
10.31473,20660
10.32407,20660
10.33342,19288
10.34275,19311
10.35208,21255
10.36143,21939
10.37077,19963
10.38010,18622
10.38945,17361
10.39878,17019
10.40813,19908
10.41747,21908
10.42680,23731
10.43615,26054
10.44548,34698
10.45482,48219
10.46417,48824
10.47350,40808
10.48283,26579
10.49218,19295
10.50152,18932
10.51085,17157
10.52020,16207
10.52953,17675
10.53887,17494
10.54822,19261
10.55755,18003
10.56690,16509
10.57623,18727
10.58557,17451
10.59492,19064
10.60425,16606
10.61358,17325
10.62293,18925
10.63227,21865
10.64160,21239
10.65095,19708
10.66028,18717
10.66962,20183
10.67897,22877
10.68830,21819
10.69763,23165
10.70698,31732
10.71632,40844
10.72565,36388
10.73500,28440
10.74433,36788
10.75368,70154
10.76302,113378
10.77235,118317
10.78170,100553
10.79103,114419
10.80037,157873
10.80972,151411
10.81905,93059
10.82838,48401
10.83773,31119
10.84707,25485
10.85640,25242
10.86575,28531
10.87508,29588
10.88442,29334
10.89377,27400
10.90310,25011
10.91243,23664
10.92178,27937
10.93112,31390
10.94047,29961
10.94980,26857
10.95913,24463
10.96848,21546
10.97782,19504
10.98715,17775
10.99650,18600
11.00583,18354
11.01517,19277
11.02452,18643
11.03385,17175
11.04318,16886
11.05253,16105
11.06187,14987
11.07120,17010
11.08055,17149
11.08988,16728
11.09922,15530
11.10857,17181
11.11790,18759
11.12725,17904
11.13658,17364
11.14592,17334
11.15527,16445
11.16460,17218
11.17393,17498
11.18328,16087
11.19262,15746
11.20195,16613
11.21130,21424
11.22063,20587
11.22997,19994
11.23932,17147
11.24865,17663
11.25798,19890
11.26733,19999
11.27667,18259
11.28602,17757
11.29535,18551
11.30468,18381
11.31403,16776
11.32337,17917
11.33270,22601
11.34205,28387
11.35138,31612
11.36072,31384
11.37007,24295
11.37940,22336
11.38873,22306
11.39808,26697
11.40742,30855
11.41675,29731
11.42610,24486
11.43543,18782
11.44477,18913
11.45412,21407
11.46345,26838
11.47280,30355
11.48213,24632
11.49147,19465
11.50082,17726
11.51015,15309
11.51948,16864
11.52883,15181
11.53817,16745
11.54750,18043
11.55685,22513
11.56618,34042
11.57552,43465
11.58487,43736
11.59420,36417
11.60353,28671
11.61288,26008
11.62222,22407
11.63155,21754
11.64090,21687
11.65023,25374
11.65958,30442
11.66892,33457
11.67825,31457
11.68760,27613
11.69693,25341
11.70627,23765
11.71562,24080
11.72495,23219
11.73428,22548
11.74363,23556
11.75297,22777
11.76230,21140
11.77165,22409
11.78098,24447
11.79032,25166
11.79967,22224
11.80900,21324
11.81833,22297
11.82768,20944
11.83702,21332
11.84637,19993
11.85570,20427
11.86503,20696
11.87438,22536
11.88372,21510
11.89305,19771
11.90240,20077
11.91173,20363
11.92107,22040
11.93042,24640
11.93975,29343
11.94908,30140
11.95843,25253
11.96777,21521
11.97710,18730
11.98645,19711
11.99578,23176
12.00512,28610
12.01447,33158
12.02380,28988
12.03315,23156
12.04248,19380
12.05182,19077
12.06117,17821
12.07050,17709
12.07983,17254
12.08918,17534
12.09852,17676
12.10785,18018
12.11720,15806
12.12653,17245
12.13587,17972
12.14522,19223
12.15455,23702
12.16388,37699
12.17323,54652
12.18257,51533
12.19192,34621
12.20125,23309
12.21058,21547
12.21993,24113
12.22927,26649
12.23860,24186
12.24795,21946
12.25728,21397
12.26662,27066
12.27597,33461
12.28530,34093
12.29463,29635
12.30398,24165
12.31332,20884
12.32265,21987
12.33200,22719
12.34133,21008
12.35067,19572
12.36002,19580
12.36935,19767
12.37870,19741
12.38803,19559
12.39737,17783
12.40672,18224
12.41605,18119
12.42538,18111
12.43473,16837
12.44407,17109
12.45340,20157
12.46275,21381
12.47208,21690
12.48142,21788
12.49077,20261
12.50010,19525
12.50943,20492
12.51878,21834
12.52812,21012
12.53745,21154
12.54680,24265
12.55613,27751
12.56548,28833
12.57482,27552
12.58415,23590
12.59350,19732
12.60283,20352
12.61217,19695
12.62152,23178
12.63085,24571
12.64018,29271
12.64953,29326
12.65887,29822
12.66820,24457
12.67755,20715
12.68688,16702
12.69622,16406
12.70557,16559
12.71490,17117
12.72423,18396
12.73358,19032
12.74292,20006
12.75227,19473
12.76160,17759
12.77093,18008
12.78028,17383
12.78962,17102
12.79895,17725
12.80830,17547
12.81763,17531
12.82697,17453
12.83632,19567
12.84565,17984
12.85498,16165
12.86433,16717
12.87367,15743
12.88300,16587
12.89235,18253
12.90168,16686
12.91103,16594
12.92037,16083
12.92970,16397
12.93905,15594
12.94838,15754
12.95772,16602
12.96707,15129
12.97640,14865
12.98573,14770
12.99508,14010
13.00442,14987
13.01375,18212
13.02310,23527
13.03243,26624
13.04177,23012
13.05112,19012
13.06045,16358
13.06978,17206
13.07913,18084
13.08847,18804
13.09782,17865
13.10715,17328
13.11648,17667
13.12583,19665
13.13517,21932
13.14450,21323
13.15385,21123
13.16318,20069
13.17252,20409
13.18187,22795
13.19120,41115
13.20053,80744
13.20988,110113
13.21922,97277
13.22855,62363
13.23790,55177
13.24723,57928
13.25657,41348
13.26592,28783
13.27525,24290
13.28460,22930
13.29393,24123
13.30327,25370
13.31262,25882
13.32195,25996
13.33128,25462
13.34063,24813
13.34997,24178
13.35930,21254
13.36865,20214
13.37798,20446
13.38732,24226
13.39667,28379
13.40600,23291
13.41533,21874
13.42468,21667
13.43402,25095
13.44335,24748
13.45270,22038
13.46203,21898
13.47138,23868
13.48072,23254
13.49005,20946
13.49940,21929
13.50873,34131
13.51807,53527
13.52742,65209
13.53675,48659
13.54608,30713
13.55543,21361
13.56477,18809
13.57410,18932
13.58345,17583
13.59278,19723
13.60212,19544
13.61147,18732
13.62080,19069
13.63013,18180
13.63948,19461
13.64882,21549
13.65817,23072
13.66750,23031
13.67683,19605
13.68618,17912
13.69552,17611
13.70485,15202
13.71420,15378
13.72353,14660
13.73287,16091
13.74222,16731
13.75155,16351
13.76088,16710
13.77023,16841
13.77957,16352
13.78890,19772
13.79825,23576
13.80758,24561
13.81693,21085
13.82627,19182
13.83560,19117
13.84495,18994
13.85428,18512
13.86362,20299
13.87297,22302
13.88230,30400
13.89163,52526
13.90098,105420
13.91032,184229
13.91965,196143
13.92900,121006
13.93833,54944
13.94767,31777
13.95702,27751
13.96635,24145
13.97568,22306
13.98503,21022
13.99437,21596
14.00372,23449
14.01305,20667
14.02238,22845
14.03173,48689
14.04107,284537
14.05040,1656442
14.05975,4714931
14.06908,6539970
14.07842,4656396
14.08777,1483610
14.09710,258873
14.10643,64559
14.11578,40770
14.12512,33695
14.13445,31397
14.14380,33562
14.15313,37807
14.16247,37366
14.17182,32735
14.18115,30121
14.19050,32939
14.19983,32418
14.20917,28976
14.21852,23197
14.22785,21662
14.23718,19768
14.24653,21194
14.25587,21815
14.26520,23322
14.27455,21788
14.28388,20259
14.29322,20110
14.30257,21225
14.31190,27200
14.32123,34138
14.33058,36114
14.33992,31388
14.34925,24575
14.35860,21682
14.36793,20405
14.37728,19497
14.38662,22018
14.39595,21397
14.40530,21077
14.41463,18915
14.42397,17450
14.43332,19205
14.44265,21184
14.45198,28368
14.46133,37346
14.47067,40933
14.48000,33294
14.48935,25919
14.49868,22078
14.50802,19892
14.51737,19496
14.52670,21349
14.53605,21063
14.54538,21502
14.55472,20815
14.56407,20246
14.57340,21445
14.58273,20855
14.59208,20053
14.60142,19480
14.61075,19920
14.62010,18695
14.62943,20003
14.63877,22693
14.64812,26740
14.65745,28412
14.66678,27179
14.67613,26090
14.68547,23129
14.69480,21538
14.70415,21490
14.71348,20808
14.72283,21088
14.73217,22668
14.74150,23142
14.75085,23040
14.76018,20394
14.76952,20441
14.77887,19988
14.78820,21429
14.79753,19924
14.80688,22077
14.81622,21527
14.82555,21167
14.83490,21738
14.84423,27561
14.85357,36175
14.86292,42473
14.87225,37256
14.88158,30601
14.89093,22852
14.90027,21101
14.90962,20945
14.91895,23353
14.92828,20622
14.93763,20051
14.94697,19102
14.95630,21765
14.96565,24633
14.97498,24773
14.98432,23865
14.99367,26781
15.00300,31232
15.01233,33123
15.02168,26095
15.03102,26397
15.04035,30710
15.04970,31903
15.05903,32162
15.06837,27994
15.07772,25054
15.08705,21537
15.09640,19329
15.10573,23380
15.11507,27260
15.12442,32880
15.13375,33382
15.14308,29627
15.15243,23386
15.16177,21549
15.17110,20217
15.18045,22236
15.18978,27771
15.19912,38373
15.20847,53006
15.21780,55965
15.22713,46211
15.23648,33118
15.24582,24573
15.25515,21391
15.26450,23815
15.27383,24830
15.28318,23719
15.29252,23335
15.30185,21976
15.31120,24162
15.32053,28185
15.32987,30856
15.33922,28511
15.34855,25992
15.35788,27781
15.36723,31772
15.37657,30682
15.38590,25266
15.39525,22482
15.40458,23707
15.41392,23878
15.42327,24883
15.43260,23359
15.44193,23073
15.45128,21692
15.46062,22267
15.46997,22842
15.47930,20960
15.48863,23393
15.49798,30424
15.50732,43146
15.51665,50823
15.52600,42988
15.53533,33531
15.54467,26318
15.55402,21333
15.56335,21518
15.57268,21467
15.58203,22915
15.59137,22707
15.60070,23703
15.61005,23484
15.61938,26859
15.62873,31252
15.63807,31044
15.64740,32843
15.65675,32134
15.66608,29910
15.67542,25324
15.68477,26844
15.69410,31190
15.70343,37706
15.71278,34376
15.72212,29295
15.73145,28708
15.74080,35936
15.75013,36139
15.75947,34411
15.76882,31840
15.77815,32313
15.78748,27298
15.79683,27402
15.80617,30342
15.81552,48316
15.82485,88614
15.83418,137932
15.84353,142836
15.85287,105475
15.86220,67341
15.87155,51581
15.88088,50950
15.89022,49815
15.89957,51125
15.90890,45762
15.91823,39597
15.92758,32167
15.93692,29831
15.94625,29060
15.95560,29473
15.96493,31348
15.97427,36890
15.98362,44903
15.99295,42557
16.00230,38813
16.01163,31239
16.02097,29504
16.03032,28394
16.03965,31004
16.04898,32010
16.05833,31796
16.06767,33597
16.07700,30919
16.08635,29156
16.09568,29809
16.10502,31748
16.11437,33623
16.12370,35124
16.13303,31005
16.14238,27718
16.15172,29124
16.16105,29273
16.17040,27575
16.17973,26027
16.18908,25449
16.19842,26361
16.20775,30677
16.21710,31510
16.22643,30750
16.23577,34165
16.24512,35702
16.25445,34654
16.26378,33160
16.27313,41190
16.28247,72517
16.29180,120824
16.30115,145401
16.31048,110380
16.31982,62604
16.32917,37264
16.33850,29930
16.34785,25431
16.35718,23022
16.36652,23491
16.37587,24251
16.38520,25963
16.39453,27047
16.40388,32282
16.41322,32210
16.42255,30408
16.43190,30050
16.44123,31217
16.45057,32157
16.45992,33227
16.46925,29736
16.47858,28341
16.48793,28816
16.49727,29768
16.50660,30873
16.51595,28835
16.52528,30064
16.53463,27285
16.54397,25421
16.55330,24088
16.56265,24241
16.57198,25132
16.58132,27485
16.59067,26483
16.60000,24839
16.60933,27264
16.61868,32578
16.62802,32158
16.63735,31994
16.64670,30851
16.65603,26193
16.66537,26203
16.67472,27424
16.68405,34769
16.69338,36968
16.70273,36304
16.71207,33966
16.72142,30611
16.73075,39984
16.74008,61892
16.74943,74785
16.75877,58489
16.76810,40216
16.77745,30005
16.78678,25720
16.79612,26537
16.80547,26816
16.81480,28574
16.82413,34290
16.83348,33318
16.84282,31186
16.85215,27937
16.86150,26184
16.87083,25821
16.88017,25329
16.88952,26082
16.89885,33653
16.90820,40514
16.91753,43599
16.92687,37843
16.93622,38909
16.94555,41032
16.95488,42695
16.96423,41752
16.97357,36331
16.98290,28764
16.99225,25295
17.00158,25789
17.01092,31389
17.02027,42883
17.02960,56482
17.03893,54273
17.04828,42229
17.05762,34788
17.06695,31493
17.07630,30019
17.08563,30391
17.09498,28677
17.10432,29482
17.11365,29138
17.12300,32224
17.13233,34766
17.14167,33652
17.15102,29228
17.16035,26612
17.16968,27037
17.17903,27072
17.18837,27234
17.19770,26642
17.20705,25152
17.21638,24394
17.22572,23880
17.23507,24844
17.24440,24798
17.25375,26320
17.26308,28908
17.27242,29034
17.28177,28382
17.29110,26303
17.30043,27757
17.30978,30624
17.31912,33529
17.32845,34203
17.33780,30223
17.34713,29301
17.35647,28978
17.36582,44693
17.37515,78518
17.38448,101946
17.39383,82845
17.40317,53027
17.41250,40108
17.42185,35854
17.43118,34854
17.44053,32086
17.44987,32018
17.45920,31158
17.46855,31325
17.47788,54912
17.48722,225706
17.49657,947141
17.50590,2011697
17.51523,1951559
17.52458,967673
17.53392,266793
17.54325,72720
17.55260,42976
17.56193,38463
17.57127,38397
17.58062,40604
17.58995,39897
17.59928,34944
17.60863,32170
17.61797,30084
17.62732,29672
17.63665,30965
17.64598,33616
17.65533,37917
17.66467,38983
17.67400,36645
17.68335,37051
17.69268,41442
17.70202,41338
17.71137,36710
17.72070,34601
17.73003,32368
17.73938,32414
17.74872,38643
17.75805,38927
17.76740,38371
17.77673,35045
17.78607,27093
17.79542,27180
17.80475,28319
17.81410,29464
17.82343,30655
17.83277,31476
17.84212,32179
17.85145,40107
17.86078,46141
17.87013,43197
17.87947,39727
17.88880,37949
17.89815,32140
17.90748,27603
17.91682,24504
17.92617,23880
17.93550,24694
17.94483,29206
17.95418,34558
17.96352,34699
17.97287,31568
17.98220,27003
17.99153,24845
18.00088,24544
18.01022,25827
18.01955,26146
18.02890,25836
18.03823,28435
18.04757,33648
18.05692,33416
18.06625,27978
18.07558,26445
18.08493,26459
18.09427,29038
18.10360,28535
18.11295,29355
18.12228,28271
18.13162,31866
18.14097,31476
18.15030,31567
18.15965,31064
18.16898,29793
18.17832,28655
18.18767,27214
18.19700,25458
18.20633,27014
18.21568,25620
18.22502,26972
18.23435,23998
18.24370,24330
18.25303,24932
18.26237,24862
18.27172,27376
18.28105,28720
18.29038,31649
18.29973,33305
18.30907,31376
18.31840,29685
18.32775,32159
18.33708,35302
18.34643,41144
18.35577,41319
18.36510,34187
18.37445,27940
18.38378,26280
18.39312,26781
18.40247,28353
18.41180,29367
18.42113,31462
18.43048,35786
18.43982,38317
18.44915,36259
18.45850,32283
18.46783,28250
18.47717,29504
18.48652,37152
18.49585,49058
18.50518,57090
18.51453,53482
18.52387,43626
18.53322,37699
18.54255,38794
18.55188,35934
18.56123,32386
18.57057,26065
18.57990,24543
18.58925,26720
18.59858,30192
18.60792,37751
18.61727,33475
18.62660,31729
18.63593,30675
18.64528,29968
18.65462,28094
18.66395,26669
18.67330,27288
18.68263,27449
18.69197,28506
18.70132,31860
18.71065,32111
18.72000,32087
18.72933,32674
18.73867,31399
18.74802,28812
18.75735,28055
18.76668,25272
18.77603,22899
18.78537,25869
18.79470,28364
18.80405,27120
18.81338,26181
18.82272,26463
18.83207,26478
18.84140,25043
18.85073,25092
18.86008,23880
18.86942,22946
18.87875,24051
18.88810,27079
18.89743,32665
18.90678,37574
18.91612,37124
18.92545,35656
18.93480,33066
18.94413,37429
18.95347,38739
18.96282,37779
18.97215,34389
18.98148,30546
18.99083,28586
19.00017,26478
19.00950,26210
19.01885,26950
19.02818,33258
19.03752,43699
19.04687,60404
19.05620,62784
19.06555,57674
19.07488,74778
19.08422,86414
19.09357,83740
19.10290,59524
19.11223,38598
19.12158,30463
19.13092,26890
19.14025,25429
19.14960,23873
19.15893,24100
19.16827,25502
19.17762,26140
19.18695,31539
19.19628,32201
19.20563,33431
19.21497,31972
19.22430,31793
19.23365,29504
19.24298,25278
19.25233,26156
19.26167,24040
19.27100,25313
19.28035,27716
19.28968,27691
19.29902,32074
19.30837,34688
19.31770,36084
19.32703,32287
19.33638,26696
19.34572,23762
19.35505,21438
19.36440,25246
19.37373,24382
19.38307,25561
19.39242,29795
19.40175,30067
19.41108,30441
19.42043,27596
19.42977,22174
19.43912,21381
19.44845,22780
19.45778,23687
19.46713,23924
19.47647,24634
19.48580,27520
19.49515,24358
19.50448,24690
19.51382,22742
19.52317,23241
19.53250,23685
19.54183,25183
19.55118,24482
19.56052,24251
19.56985,24570
19.57920,28815
19.58853,27098
19.59787,25790
19.60722,24406
19.61655,25176
19.62590,28304
19.63523,30027
19.64457,26665
19.65392,25171
19.66325,25769
19.67258,24743
19.68193,25780
19.69127,24237
19.70060,23494
19.70995,28940
19.71928,38407
19.72862,44699
19.73797,40533
19.74730,31867
19.75663,26747
19.76598,26147
19.77532,25417
19.78467,27692
19.79400,24776
19.80333,24390
19.81268,24309
19.82202,25485
19.83135,23444
19.84070,21320
19.85003,23117
19.85937,28333
19.86872,36029
19.87805,37479
19.88738,32812
19.89673,26932
19.90607,23923
19.91540,24149
19.92475,25264
19.93408,22379
19.94342,22869
19.95277,23066
19.96210,23281
19.97145,23839
19.98078,21083
19.99012,21859
19.99947,21619
20.00880,23081
20.01813,25202
20.02748,24905
20.03682,26656
20.04615,25885
20.05550,24175
20.06483,23104
20.07417,24136
20.08352,24701
20.09285,23483
20.10218,22792
20.11153,21494
20.12087,20827
20.13020,22961
20.13955,26759
20.14888,28735
20.15823,28697
20.16757,25163
20.17690,23024
20.18625,21396
20.19558,21941
20.20492,22606
20.21427,20829
20.22360,21166
20.23293,20610
20.24228,21084
20.25162,20002
20.26095,21545
20.27030,21464
20.27963,21067
20.28897,22694
20.29832,21580
20.30765,20088
20.31698,18614
20.32633,20165
20.33567,19569
20.34502,21462
20.35435,20812
20.36368,21574
20.37303,20984
20.38237,19618
20.39170,21384
20.40105,19383
20.41038,18296
20.41972,19281
20.42907,20708
20.43840,19803
20.44773,21190
20.45708,24847
20.46642,26877
20.47575,27096
20.48510,23335
20.49443,21712
20.50377,21382
20.51312,21479
20.52245,20941
20.53180,20483
20.54113,21087
20.55047,31235
20.55982,60980
20.56915,107763
20.57848,129360
20.58783,87301
20.59717,45797
20.60650,29041
20.61585,24278
20.62518,23442
20.63452,23485
20.64387,23624
20.65320,22909
20.66253,24172
20.67188,24357
20.68122,24409
20.69057,24688
20.69990,24208
20.70923,24260
20.71858,24114
20.72792,23710
20.73725,23842
20.74660,21923
20.75593,22047
20.76527,21998
20.77462,22426
20.78395,22346
20.79328,24226
20.80263,23971
20.81197,22914
20.82130,21403
20.83065,20563
20.83998,19979
20.84932,19006
20.85867,19737
20.86800,22094
20.87735,20541
20.88668,22309
20.89602,22458
20.90537,20524
20.91470,21135
20.92403,19460
20.93338,19715
20.94272,20629
20.95205,20216
20.96140,19702
20.97073,18593
20.98007,18897
20.98942,18858
20.99875,19226
21.00808,18862
21.01743,19828
21.02677,18065
21.03610,20048
21.04545,19966
21.05478,19937
21.06413,19852
21.07347,19174
21.08280,19604
21.09215,19488
21.10148,21813
21.11082,22058
21.12017,22733
21.12950,20153
21.13883,19434
21.14818,19038
21.15752,19440
21.16685,19252
21.17620,20435
21.18553,25063
21.19487,27109
21.20422,26766
21.21355,25719
21.22288,23250
21.23223,21915
21.24157,21458
21.25092,22358
21.26025,23918
21.26958,26928
21.27893,27065
21.28827,27816
21.29760,24675
21.30695,22220
21.31628,22721
21.32562,20174
21.33497,21259
21.34430,19986
21.35363,20723
21.36298,20504
21.37232,20765
21.38165,20145
21.39100,21149
21.40033,21573
21.40968,21426
21.41902,22578
21.42835,22611
21.43770,21141
21.44703,22006
21.45637,19452
21.46572,21031
21.47505,21107
21.48438,22039
21.49373,21350
21.50307,20028
21.51240,19774
21.52175,21035
21.53108,20481
21.54042,20259
21.54977,20427
21.55910,22709
21.56843,26315
21.57778,28233
21.58712,27271
21.59647,24684
21.60580,23050
21.61513,21586
21.62448,22761
21.63382,20916
21.64315,20875
21.65250,20924
21.66183,22180
21.67117,23466
21.68052,23246
21.68985,23573
21.69918,22313
21.70853,23425
21.71787,24511
21.72720,25984
21.73655,25853
21.74588,22948
21.75522,21985
21.76457,20826
21.77390,20068
21.78325,20714
21.79258,21014
21.80192,23464
21.81127,23872
21.82060,25474
21.82993,24307
21.83928,24269
21.84862,22476
21.85795,21793
21.86730,22699
21.87663,24782
21.88597,26396
21.89532,26313
21.90465,24351
21.91398,23300
21.92333,22814
21.93267,21195
21.94200,21034
21.95135,22144
21.96068,26156
21.97003,28551
21.97937,26819
21.98870,28643
21.99805,26838
22.00738,22517
22.01672,21611
22.02607,22657
22.03540,24513
22.04473,24322
22.05408,21706
22.06342,23305
22.07275,24124
22.08210,22608
22.09143,23658
22.10077,22058
22.11012,21446
22.11945,22038
22.12878,21417
22.13813,22530
22.14747,24674
22.15682,28191
22.16615,29401
22.17548,26795
22.18483,24535
22.19417,22348
22.20350,20651
22.21285,22494
22.22218,21558
22.23152,22270
22.24087,22272
22.25020,21711
22.25953,22763
22.26888,23009
22.27822,23390
22.28755,23723
22.29690,24915
22.30623,22470
22.31557,21603
22.32492,21243
22.33425,21104
22.34360,22401
22.35293,23024
22.36227,23997
22.37162,22923
22.38095,20629
22.39028,19475
22.39963,21700
22.40897,19121
22.41830,21274
22.42765,20671
22.43698,19625
22.44632,19506
22.45567,19528
22.46500,20769
22.47433,21327
22.48368,20974
22.49302,18808
22.50237,19302
22.51170,20287
22.52103,20088
22.53038,22153
22.53972,20239
22.54905,19781
22.55840,20384
22.56773,21054
22.57707,20182
22.58642,21083
22.59575,21422
22.60508,20281
22.61443,21402
22.62377,21080
22.63310,20215
22.64245,22192
22.65178,20312
22.66112,20875
22.67047,20886
22.67980,22114
22.68915,21769
22.69848,21653
22.70782,21644
22.71717,21110
22.72650,20264
22.73583,23183
22.74518,24276
22.75452,24016
22.76385,22117
22.77320,22390
22.78253,22207
22.79187,21545
22.80122,21200
22.81055,20711
22.81988,21633
22.82923,21186
22.83857,23055
22.84790,21133
22.85725,20760
22.86658,20769
22.87593,20723
22.88527,21588
22.89460,20792
22.90395,20371
22.91328,21787
22.92262,21410
22.93197,21350
22.94130,20906
22.95063,21053
22.95998,19905
22.96932,19275
22.97865,18739
22.98800,21269
22.99733,20478
23.00667,19247
23.01602,20404
23.02535,19499
23.03468,17966
23.04403,19287
23.05337,20184
23.06272,19909
23.07205,17985
23.08138,18717
23.09073,19158
23.10007,18792
23.10940,19112
23.11875,19293
23.12808,18395
23.13742,18475
23.14677,18329
23.15610,19369
23.16543,18090
23.17478,18537
23.18412,19043
23.19345,18454
23.20280,19209
23.21213,18376
23.22148,19181
23.23082,19002
23.24015,20257
23.24950,19147
23.25883,19027
23.26817,19471
23.27752,19425
23.28685,21106
23.29618,19226
23.30553,19551
23.31487,22047
23.32420,26320
23.33355,26047
23.34288,24311
23.35222,21009
23.36157,22045
23.37090,19988
23.38023,21025
23.38958,20735
23.39892,21122
23.40827,20110
23.41760,20571
23.42693,20772
23.43628,20603
23.44562,20150
23.45495,20465
23.46430,20779
23.47363,19810
23.48297,20343
23.49232,18700
23.50165,18876
23.51098,19549
23.52033,18434
23.52967,19088
23.53900,19583
23.54835,18794
23.55768,20192
23.56702,19420
23.57637,19004
23.58570,18776
23.59505,19877
23.60438,19749
23.61372,19167
23.62307,19857
23.63240,18862
23.64173,18948
23.65108,19555
23.66042,19841
23.66975,19903
23.67910,19816
23.68843,20015
23.69777,19276
23.70712,20484
23.71645,20232
23.72578,21034
23.73513,21068
23.74447,20734
23.75380,20796
23.76315,19643
23.77248,20767
23.78183,20856
23.79117,19270
23.80050,19110
23.80985,19557
23.81918,19187
23.82852,18859
23.83787,18802
23.84720,19470
23.85653,18386
23.86588,19786
23.87522,19263
23.88455,19682
23.89390,19977
23.90323,20113
23.91257,19072
23.92192,20334
23.93125,19977
23.94058,19914
23.94993,19855
23.95927,18073
23.96862,20232
23.97795,18887
23.98728,19324
23.99663,21263
24.00597,19935
24.01530,19764
24.02465,20431
24.03398,19136
24.04332,20391
24.05267,19452
24.06200,20236
24.07133,18636
24.08068,19093
24.09002,19675
24.09935,19246
24.10870,18962
24.11803,19290
24.12738,19270
24.13672,19119
24.14605,19630
24.15540,19535
24.16473,19232
24.17407,18716
24.18342,20347
24.19275,20035
24.20208,20026
24.21143,19255
24.22077,20237
24.23010,20032
24.23945,20323
24.24878,19610
24.25812,19868
24.26747,19411
24.27680,18425
24.28613,18907
24.29548,20741
24.30482,19485
24.31417,20452
24.32350,21128
24.33283,21715
24.34218,20807
24.35152,21081
24.36085,19667
24.37020,20323
24.37953,18406
24.38887,19517
24.39822,19899
24.40755,20964
24.41688,19162
24.42623,19179
24.43557,20835
24.44490,20657
24.45425,19544
24.46358,19684
24.47292,19623
24.48227,19979
24.49160,18430
24.50095,19177
24.51028,19437
24.51962,20503
24.52897,20724
24.53830,20829
24.54763,20104
24.55698,20016
24.56632,20328
24.57565,20307
24.58500,19805
24.59433,19357
24.60367,19667
24.61302,21494
24.62235,21463
24.63168,20702
24.64103,20095
24.65037,19497
24.65970,19626
24.66905,22153
24.67838,21328
24.68773,20643
24.69707,20329
24.70640,19841
24.71575,19168
24.72508,19439
24.73442,20319
24.74377,19169
24.75310,21231
24.76243,21211
24.77178,21363
24.78112,19925
24.79045,20839
24.79980,22053
24.80913,20770
24.81847,21245
24.82782,21235
24.83715,21191
24.84650,20512
24.85583,21153
24.86517,21020
24.87452,21003
24.88385,22213
24.89318,20537
24.90253,21185
24.91187,20902
24.92120,20986
24.93055,19876
24.93988,20648
24.94922,20559
24.95857,20012
24.96790,20398
24.97723,19522
24.98658,20475
24.99592,20820
25.00525,21546
25.01460,20226
25.02393,20663
25.03328,20769
25.04262,19467
25.05195,21334
25.06130,20228
25.07063,22513
25.07997,19518
25.08932,19818
25.09865,20085
25.10798,19001
25.11733,21100
25.12667,20495
25.13600,21128
25.14535,20790
25.15468,21144
25.16402,20748
25.17337,20299
25.18270,20579
25.19203,21296
25.20138,20627
25.21072,21874
25.22007,21015
25.22940,19377
25.23873,21390
25.24808,21624
25.25742,20983
25.26675,21327
25.27610,20626
25.28543,20973
25.29477,19394
25.30412,21196
25.31345,24709
25.32278,39568
25.33213,53575
25.34147,56985
25.35080,51998
25.36015,45376
25.36948,38777
25.37882,35144
25.38817,31692
25.39750,30612
25.40685,27626
25.41618,26075
25.42552,25715
25.43487,26190
25.44420,25174
25.45353,24776
25.46288,24351
25.47222,25739
25.48155,25254
25.49090,25281
25.50023,26017
25.50957,24299
25.51892,25228
25.52825,22658
25.53758,22971
25.54693,24188
25.55627,23306
25.56560,23961
25.57495,22019
25.58428,23765
25.59363,22759
25.60297,22935
25.61230,23822
25.62165,22685
25.63098,24114
25.64032,21916
25.64967,22666
25.65900,22922
25.66833,24036
25.67768,24143
25.68702,23558
25.69635,23309
25.70570,24006
25.71503,21813
25.72437,22985
25.73372,22624
25.74305,23588
25.75238,25122
25.76173,24325
25.77107,23199
25.78042,24553
25.78975,22622
25.79908,23879
25.80843,24770
25.81777,23053
25.82710,24775
25.83645,24596
25.84578,24865
25.85512,23251
25.86447,22631
25.87380,23496
25.88313,24413
25.89248,23176
25.90182,23898
25.91115,22298
25.92050,24238
25.92983,23484
25.93918,23477
25.94852,23227
25.95785,23586
25.96720,23741
25.97653,24304
25.98587,23246
25.99522,24213
26.00455,23198
26.01388,24816
26.02323,24945
26.03257,24773
26.04190,22706
26.05125,23793
26.06058,22516
26.06992,24738
26.07927,24040
26.08860,22152
26.09793,24990
26.10728,25544
26.11662,23730
26.12597,26692
26.13530,26555
26.14463,26984
26.15398,26373
26.16332,25910
26.17265,24553
26.18200,24194
26.19133,24870
26.20067,23753
26.21002,24162
26.21935,25849
26.22868,24364
26.23803,24483
26.24737,24089
26.25670,23667
26.26605,24778
26.27538,24582
26.28472,24072
26.29407,24001
26.30340,26030
26.31275,24937
26.32208,25329
26.33142,24931
26.34077,25715
26.35010,25065
26.35943,24899
26.36878,24149
26.37812,24277
26.38745,26897
26.39680,27288
26.40613,25508
26.41547,26735
26.42482,25172
26.43415,25278
26.44348,25664
26.45283,26801
26.46217,26808
26.47150,26948
26.48085,26097
26.49018,26730
26.49953,26507
26.50887,26815
26.51820,24844
26.52755,26378
26.53688,26266
26.54622,25711
26.55557,24696
26.56490,26263
26.57423,25792
26.58358,25757
26.59292,26071
26.60225,29462
26.61160,26411
26.62093,25721
26.63027,25081
26.63962,26172
26.64895,26720
26.65830,27257
26.66763,27698
26.67697,25995
26.68632,26528
26.69565,25476
26.70498,26838
26.71433,26068
26.72367,26726
26.73300,27848
26.74235,26238
26.75168,26380
26.76102,27501
26.77037,27420
26.77970,26991
26.78903,26961
26.79838,27474
26.80772,26461
26.81705,26271
26.82640,28789
26.83573,28013
26.84508,28649
26.85442,28273
26.86375,27288
26.87310,28630
26.88243,30116
26.89177,28380
26.90112,29070
26.91045,28530
26.91978,29355
26.92913,29573
26.93847,30080
26.94780,28218
26.95715,28647
26.96648,29154
26.97582,27856
26.98517,29359
26.99450,26782
27.00383,28777
27.01318,27335
27.02252,27857
27.03187,27993
27.04120,28540
27.05053,28465
27.05988,29946
27.06922,29895
27.07855,29012
27.08790,29329
27.09723,29192
27.10657,30579
27.11592,29143
27.12525,29934
27.13458,29149
27.14393,31119
27.15327,28375
27.16260,30546
27.17195,30677
27.18128,30876
27.19062,31299
27.19997,30290
27.20930,30375
27.21865,32313
27.22798,30225
27.23732,31081
27.24667,31057
27.25600,34365
27.26533,32681
27.27468,31640
27.28402,30969
27.29335,31494
27.30270,32241
27.31203,31291
27.32137,30960
27.33072,29911
27.34005,31728
27.34938,30491
27.35873,31186
27.36807,31257
27.37740,30450
27.38675,30767
27.39608,30409
27.40543,30685
27.41477,32037
27.42410,31789
27.43345,33390
27.44278,31796
27.45212,32552
27.46147,32375
27.47080,33287
27.48013,32427
27.48948,34327
27.49882,34422
27.50815,32840
27.51750,31463
27.52683,31544
27.53617,32916
27.54552,33900
27.55485,32950
27.56420,33747
27.57353,33264
27.58287,32960
27.59222,32918
27.60155,32284
27.61088,34547
27.62023,32324
27.62957,31299
27.63890,32156
27.64825,34069
27.65758,33181
27.66692,35017
27.67627,33607
27.68560,35750
27.69493,41085
27.70428,42881
27.71362,42138
27.72295,42036
27.73230,41943
27.74163,41053
27.75098,40906
27.76032,38753
27.76965,39970
27.77900,38988
27.78833,39334
27.79767,38937
27.80702,37718
27.81635,37998
27.82568,36845
27.83503,36245
27.84437,37741
27.85370,36950
27.86305,35293
27.87238,37381
27.88172,36660
27.89107,36698
27.90040,38338
27.90973,36826
27.91908,35640
27.92842,34943
27.93777,37655
27.94710,36946
27.95643,36823
27.96578,35343
27.97512,38016
27.98445,38089
27.99380,39299
28.00313,37295
28.01247,39363
28.02182,37782
28.03115,37711
28.04048,39298
28.04983,40005
28.05917,37932
28.06850,38891
28.07785,38032
28.08718,39297
28.09652,37718
28.10587,38749
28.11520,40498
28.12455,39256
28.13388,40334
28.14322,35562
28.15257,38127
28.16190,39008
28.17123,39103
28.18058,39707
28.18992,39141
28.19925,37415
28.20860,39128
28.21793,38660
28.22727,39057
28.23662,37895
28.24595,39094
28.25528,39744
28.26463,39655
28.27397,41070
28.28332,38812
28.29265,39472
28.30198,40350
28.31133,41252
28.32067,40645
28.33000,41914
28.33935,40531
28.34868,39375
28.35802,41820
28.36737,40006
28.37670,40771
28.38603,41464
28.39538,43332
28.40472,42029
28.41405,43088
28.42340,41508
28.43273,41071
28.44207,40799
28.45142,41202
28.46075,43255
28.47010,44545
28.47943,44242
28.48877,42606
28.49812,43135
28.50745,42202
28.51678,41213
28.52613,41647
28.53547,42469
28.54480,43443
28.55415,42417
28.56348,43055
28.57282,45860
28.58217,42854
28.59150,42560
28.60083,45067
28.61018,43191
28.61952,45148
28.62885,44043
28.63820,45806
28.64753,46322
28.65688,48159
28.66622,50992
28.67555,59079
28.68490,57633
28.69423,54163
28.70357,51781
28.71292,49780
28.72225,47866
28.73158,48655
28.74093,45666
28.75027,47451
28.75960,47800
28.76895,48907
28.77828,49182
28.78762,47593
28.79697,48373
28.80630,47944
28.81563,46686
28.82498,49910
28.83432,48833
28.84367,47458
28.85300,49976
28.86233,48070
28.87168,49035
28.88102,49526
28.89035,49328
28.89970,49195
28.90903,49166
28.91837,50207
28.92772,49545
28.93705,48004
28.94638,47755
28.95573,49610
28.96507,48793
28.97440,48639
28.98375,48780
28.99308,50832
29.00242,52209
29.01177,49764
29.02110,49453
29.03045,49774
29.03978,52363
29.04912,50164
29.05847,53753
29.06780,51680
29.07713,52951
29.08648,50842
29.09582,52745
29.10515,51774
29.11450,49418
29.12383,51248
29.13317,53511
29.14252,52940
29.15185,51616
29.16118,51672
29.17053,53913
29.17987,54151
29.18922,52099
29.19855,53954
29.20788,55929
29.21723,54122
29.22657,52028
29.23590,51841
29.24525,51866
29.25458,53588
29.26392,51160
29.27327,53643
29.28260,53542
29.29193,53970
29.30128,53517
29.31062,52535
29.31995,54100
29.32930,54744
29.33863,54021
29.34797,55196
29.35732,55786
29.36665,55694
29.37600,53862
29.38533,54614
29.39467,54078
29.40402,52484
29.41335,53168
29.42268,56256
29.43203,52438
29.44137,56078
29.45070,57893
29.46005,59014
29.46938,58782
29.47872,59347
29.48807,59104
29.49740,57470
29.50673,58296
29.51608,55765
29.52542,58019
29.53475,58705
29.54410,59933
29.55343,58247
29.56278,57666
29.57212,57108
29.58145,59814
29.59080,55407
29.60013,56320
29.60947,57350
29.61882,58556
29.62815,56044
29.63748,58797
29.64683,59538
29.65617,59385
29.66550,58683
29.67485,56284
29.68418,55702
29.69352,59046
29.70287,56947
29.71220,57787
29.72153,60937
29.73088,55690
29.74022,56034
29.74957,57355
29.75890,58292
29.76823,57771
29.77758,57359
29.78692,58304
29.79625,59264
29.80560,57990
29.81493,55308
29.82427,56948
29.83362,56763
29.84295,58065
29.85228,59461
29.86163,58069
29.87097,59274
29.88030,58580
29.88965,59230
29.89898,57723
29.90833,57170
29.91767,58935
29.92700,58534
29.93635,56901
29.94568,57013
29.95502,57415
29.96437,56781
29.97370,58384
29.98303,56875
29.99238,56734
30.00172,59814
30.01105,55109
30.02040,57593
30.02973,61057
30.03907,58560
30.04842,58620
30.05775,59367
30.06708,59238
30.07643,58456
30.08577,58270
30.09512,60383
30.10445,60179
30.11378,58293
30.12313,56900
30.13247,59145
30.14180,59039
30.15115,57989
30.16048,60627
30.16982,60484
30.17917,60818
30.18850,60841
30.19783,59866
30.20718,59441
30.21652,57745
30.22585,59842
30.23520,58224
30.24453,61878
30.25387,61330
30.26322,60441
30.27255,60065
30.28190,58201
30.29123,60334
30.30057,61016
30.30992,59482
30.31925,61988
30.32858,60538
30.33793,57140
30.34727,57930
30.35660,62351
30.36595,60657
30.37528,61338
30.38462,62376
30.39397,63668
30.40330,59332
30.41263,58475
30.42198,57573
30.43132,62258
30.44065,61888
30.45000,58577
30.45933,57938
30.46868,60497
30.47802,60277
30.48735,58392
30.49670,60306
30.50603,61971
30.51537,57491
30.52472,59225
30.53405,58218
30.54338,59565
30.55273,59798
30.56207,59782
30.57140,62800
30.58075,66112
30.59008,62085
30.59942,64191
30.60877,65813
30.61810,67374
30.62743,68991
30.63678,68482
30.64612,72299
30.65547,71432
30.66480,73822
30.67413,71250
30.68348,71558
30.69282,72363
30.70215,70011
30.71150,72538
30.72083,66594
30.73017,69374
30.73952,68927
30.74885,69200
30.75818,67653
30.76753,66450
30.77687,67256
30.78620,66929
30.79555,67607
30.80488,67434
30.81422,71063
30.82357,70225
30.83290,71055
30.84225,73673
30.85158,72577
30.86092,71754
30.87027,72622
30.87960,73284
30.88893,74137
30.89828,77475
30.90762,76539
30.91695,76093
30.92630,74936
30.93563,78335
30.94497,77932
30.95432,73912
30.96365,75916
30.97298,72290
30.98233,73861
30.99167,74636
31.00102,73530
31.01035,72618
31.01968,73621
31.02903,73511
31.03837,74655
31.04770,70842
31.05705,73608
31.06638,74505
31.07572,71798
31.08507,72792
31.09440,72354
31.10373,73597
31.11308,74474
31.12242,71321
31.13175,74849
31.14110,72983
31.15043,72489
31.15977,76655
31.16912,74735
31.17845,73958
31.18780,72144
31.19713,73314
31.20647,71652
31.21582,70404
31.22515,68631
31.23448,73043
31.24383,71030
31.25317,74628
31.26250,73871
31.27185,70803
31.28118,71132
31.29052,70753
31.29987,71632
31.30920,73097
31.31853,72049
31.32788,71369
31.33722,71705
31.34655,69201
31.35590,68888
31.36523,73242
