D:\数据\20220412\TEST2-SDHX-1.D Tue Apr 12 15:37:02 2022
Start of data points
0.09760,18930
0.10693,18817
0.11628,19263
0.12562,19912
0.13495,20750
0.14430,19721
0.15363,20617
0.16297,19212
0.17232,20391
0.18165,19303
0.19098,20109
0.20033,18147
0.20967,18318
0.21902,17358
0.22835,19810
0.23768,18576
0.24703,19026
0.25637,19161
0.26570,18988
0.27505,19078
0.28438,18907
0.29372,18447
0.30307,18746
0.31240,18451
0.32173,17493
0.33108,17771
0.34042,19051
0.34975,18595
0.35910,18834
0.36843,18952
0.37777,18733
0.38712,17865
0.39645,17536
0.40580,14179
0.41513,13384
0.42447,14469
0.43382,13257
0.44315,10200
0.45248,7210
0.46183,4752
0.47117,5206
0.48050,4621
0.48985,4862
0.49918,4263
0.50852,4374
0.51787,4635
0.52720,4534
0.53653,4255
0.54588,5066
0.55522,4839
0.56455,4978
0.57390,3440
0.58323,3852
0.59258,4279
0.60192,3798
0.61125,3443
0.62060,4207
0.62993,3705
0.63927,3635
0.64862,3401
0.65795,4688
0.66728,4110
0.67663,3891
0.68597,4770
0.69530,3941
0.70465,4085
0.71398,4035
0.72332,3794
0.73267,3818
0.74200,4309
0.75133,4131
0.76068,3856
0.77002,3910
0.77937,3731
0.78870,3731
0.79803,4337
0.80738,3627
0.81672,3839
0.82605,4480
0.83540,3618
0.84473,3592
0.85407,3792
0.86342,3218
0.87275,4053
0.88208,3329
0.89143,2895
0.90077,4086
0.91010,3474
0.91945,3326
0.92878,3281
0.93813,3770
0.94747,3597
0.95680,3687
0.96615,3345
0.97548,3479
0.98482,3665
0.99417,3424
1.00350,3970
1.01283,3352
1.02218,3325
1.03152,4044
1.04085,3393
1.05020,4175
1.05953,4052
1.06887,3246
1.07822,3887
1.08755,3611
1.09688,3478
1.10623,3252
1.11557,3841
1.12492,4084
1.13425,3395
1.14358,3323
1.15293,2853
1.16227,3841
1.17160,3455
1.18095,3559
1.19028,3715
1.19962,3531
1.20897,3447
1.21830,3166
1.22763,3524
1.23698,3352
1.24632,3358
1.25565,3530
1.26500,3452
1.27433,3543
1.28367,3980
1.29302,3379
1.30235,3553
1.31170,4040
1.32103,3620
1.33037,3564
1.33972,3220
1.34905,3383
1.35838,3823
1.36773,3493
1.37707,3107
1.38640,3392
1.39575,3732
1.40508,4182
1.41442,4115
1.42377,3573
1.43310,3348
1.44243,3415
1.45178,3491
1.46112,3637
1.47045,3363
1.47980,3265
1.48913,3218
1.49848,3581
1.50782,3597
1.51715,2990
1.52650,2993
1.53583,3590
1.54517,3854
1.55452,3211
1.56385,3547
1.57318,3004
1.58253,3872
1.59187,7054
1.60120,11778
1.61055,16408
1.61988,18901
1.62922,24727
1.63857,35218
1.64790,40107
1.65723,41226
1.66658,36191
1.67592,31582
1.68527,27973
1.69460,23244
1.70393,15809
1.71328,13909
1.72262,15865
1.73195,17314
1.74130,18470
1.75063,19441
1.75997,21471
1.76932,20883
1.77865,21573
1.78798,21227
1.79733,22483
1.80667,22985
1.81600,23933
1.82535,22018
1.83468,22612
1.84403,21581
1.85337,21648
1.86270,22722
1.87205,26194
1.88138,40502
1.89072,63907
1.90007,89306
1.90940,111050
1.91873,130698
1.92808,162184
1.93742,211499
1.94675,242662
1.95610,250473
1.96543,226885
1.97477,182067
1.98412,141146
1.99345,113928
2.00278,95430
2.01213,91546
2.02147,118952
2.03082,163693
2.04015,150625
2.04948,111159
2.05883,90935
2.06817,78749
2.07750,73664
2.08685,70728
2.09618,58975
2.10552,52124
2.11487,53652
2.12420,76217
2.13353,135513
2.14288,199019
2.15222,218304
2.16155,184126
2.17090,137708
2.18023,124794
2.18957,217462
2.19892,299381
2.20825,223093
2.21760,131311
2.22693,106895
2.23627,149492
2.24562,395108
2.25495,1512934
2.26428,3110496
2.27363,3396041
2.28297,2591848
2.29230,1634192
2.30165,1149955
2.31098,2344400
2.32032,5410397
2.32967,5755885
2.33900,3388259
2.34833,1519377
2.35768,677783
2.36702,352984
2.37635,239128
2.38570,178833
2.39503,129664
2.40438,107403
2.41372,102165
2.42305,94963
2.43240,85980
2.44173,75154
2.45107,63690
2.46042,66695
2.46975,80161
2.47908,78366
2.48843,64960
2.49777,55333
2.50710,50119
2.51645,48419
2.52578,46727
2.53512,47104
2.54447,59409
2.55380,73120
2.56315,148194
2.57248,207089
2.58182,186289
2.59117,145944
2.60050,119481
2.60983,122304
2.61918,159480
2.62852,188138
2.63785,171368
2.64720,158935
2.65653,141278
2.66587,109743
2.67522,77720
2.68455,58952
2.69388,50202
2.70323,46757
2.71257,77643
2.72190,180366
2.73125,273030
2.74058,232663
2.74993,158464
2.75927,131075
2.76860,140986
2.77795,181706
2.78728,213003
2.79662,203916
2.80597,183984
2.81530,177307
2.82463,154446
2.83398,132544
2.84332,230194
2.85265,716905
2.86200,1367535
2.87133,1327498
2.88067,775277
2.89002,359762
2.89935,175366
2.90868,106416
2.91803,78150
2.92737,67768
2.93672,58222
2.94605,52183
2.95538,48172
2.96473,46871
2.97407,47648
2.98340,50043
2.99275,60349
3.00208,75201
3.01142,89224
3.02077,200828
3.03010,498564
3.03943,563244
3.04878,406490
3.05812,256948
3.06745,181012
3.07680,145696
3.08613,106103
3.09547,77148
3.10482,55130
3.11415,48225
3.12350,45344
3.13283,48721
3.14217,55382
3.15152,97151
3.16085,175277
3.17018,200394
3.17953,142164
3.18887,88040
3.19820,60451
3.20755,50812
3.21688,43557
3.22622,41331
3.23557,37228
3.24490,36981
3.25423,37512
3.26358,39785
3.27292,38321
3.28225,38841
3.29160,41342
3.30093,48840
3.31028,48121
3.31962,43237
3.32895,39463
3.33830,39166
3.34763,37692
3.35697,36685
3.36632,37732
3.37565,34625
3.38498,33785
3.39433,33915
3.40367,42375
3.41300,58629
3.42235,69765
3.43168,70949
3.44102,66469
3.45037,58478
3.45970,50943
3.46903,46651
3.47838,45148
3.48772,42136
3.49707,42208
3.50640,39506
3.51573,38116
3.52508,35285
3.53442,37235
3.54375,58136
3.55310,139694
3.56243,304269
3.57177,398911
3.58112,325455
3.59045,207176
3.59978,159747
3.60913,120409
3.61847,89446
3.62780,70675
3.63715,60867
3.64648,53345
3.65583,50549
3.66517,49157
3.67450,50243
3.68385,48249
3.69318,45205
3.70252,41325
3.71187,44383
3.72120,52059
3.73053,54983
3.73988,48016
3.74922,41238
3.75855,35576
3.76790,34518
3.77723,33609
3.78657,33785
3.79592,39276
3.80525,59465
3.81458,97098
3.82393,118649
3.83327,98079
3.84262,68545
3.85195,48300
3.86128,41614
3.87063,39191
3.87997,40271
3.88930,49570
3.89865,59535
3.90798,60453
3.91732,52393
3.92667,52007
3.93600,57505
3.94533,65498
3.95468,66171
3.96402,59539
3.97335,49184
3.98270,40485
3.99203,37045
4.00137,33694
4.01072,33268
4.02005,34630
4.02940,35357
4.03873,38804
4.04807,40873
4.05742,41006
4.06675,42562
4.07608,52703
4.08543,66464
4.09477,71821
4.10410,66781
4.11345,53018
4.12278,43084
4.13212,39352
4.14147,37629
4.15080,36621
4.16013,39086
4.16948,35328
4.17882,32639
4.18815,33827
4.19750,37410
4.20683,39294
4.21618,41017
4.22552,39213
4.23485,35811
4.24420,34491
4.25353,34235
4.26287,34979
4.27222,36641
4.28155,35842
4.29088,34341
4.30023,31051
4.30957,33283
4.31890,40162
4.32825,43024
4.33758,44172
4.34692,42120
4.35627,39063
4.36560,34793
4.37495,34145
4.38428,32949
4.39362,34846
4.40297,29999
4.41230,29397
4.42163,30165
4.43098,29050
4.44032,31564
4.44965,29943
4.45900,33727
4.46833,41073
4.47767,53926
4.48702,56037
4.49635,48039
4.50568,40863
4.51503,33897
4.52437,33251
4.53370,31626
4.54305,31216
4.55238,29907
4.56173,31271
4.57107,29742
4.58040,30748
4.58975,31302
4.59908,33500
4.60842,32006
4.61777,31742
4.62710,30265
4.63643,35048
4.64578,38096
4.65512,36772
4.66445,34678
4.67380,33139
4.68313,34890
4.69247,38629
4.70182,41796
4.71115,42403
4.72048,44033
4.72983,42050
4.73917,37889
4.74852,33723
4.75785,33016
4.76718,33648
4.77653,36352
4.78587,36099
4.79520,36237
4.80455,34614
4.81388,39495
4.82322,40813
4.83257,37677
4.84190,35790
4.85123,32525
4.86058,33173
4.86992,34188
4.87925,37837
4.88860,36005
4.89793,34941
4.90727,32904
4.91662,32260
4.92595,32661
4.93530,37806
4.94463,41405
4.95397,37806
4.96332,32498
4.97265,29943
4.98198,29435
4.99133,28706
5.00067,29703
5.01000,31473
5.01935,35724
5.02868,41785
5.03802,38923
5.04737,36533
5.05670,32455
5.06603,33219
5.07538,35757
5.08472,37779
5.09405,38648
5.10340,33422
5.11273,31069
5.12208,30492
5.13142,31979
5.14075,32041
5.15010,30061
5.15943,29542
5.16877,30144
5.17812,33911
5.18745,37175
5.19678,34477
5.20613,30359
5.21547,28958
5.22480,30684
5.23415,33732
5.24348,36173
5.25282,35782
5.26217,42172
5.27150,79649
5.28085,158560
5.29018,213444
5.29952,184563
5.30887,111383
5.31820,60744
5.32753,42976
5.33688,37770
5.34622,34645
5.35555,32938
5.36490,30439
5.37423,30579
5.38357,32610
5.39292,37607
5.40225,37612
5.41158,35233
5.42093,31366
5.43027,28151
5.43960,28502
5.44895,28403
5.45828,29069
5.46763,28942
5.47697,30063
5.48630,31372
5.49565,32217
5.50498,31331
5.51432,35467
5.52367,39335
5.53300,41562
5.54233,37965
5.55168,34503
5.56102,33394
5.57035,30764
5.57970,30952
5.58903,29136
5.59837,28472
5.60772,28008
5.61705,26791
5.62638,26715
5.63573,25912
5.64507,27227
5.65442,29110
5.66375,29330
5.67308,30472
5.68243,31300
5.69177,32095
5.70110,39797
5.71045,49404
5.71978,51917
5.72912,47795
5.73847,44601
5.74780,51585
5.75713,59136
5.76648,54952
5.77582,43150
5.78515,33784
5.79450,31013
5.80383,27917
5.81317,28941
5.82252,29196
5.83185,30446
5.84120,30376
5.85053,29799
5.85987,30273
5.86922,29345
5.87855,26870
5.88788,26176
5.89723,26698
5.90657,34640
5.91590,55653
5.92525,74421
5.93458,71245
5.94392,58770
5.95327,48770
5.96260,45994
5.97193,38152
5.98128,32763
5.99062,29663
5.99997,25919
6.00930,20930
6.01863,18225
6.02798,17063
6.03732,17364
6.04665,17195
6.05600,20811
6.06533,25969
6.07467,23518
6.08402,18497
6.09335,16927
6.10268,15639
6.11203,18202
6.12137,28708
6.13070,39710
6.14005,42989
6.14938,32057
6.15872,22744
6.16807,16479
6.17740,15987
6.18675,15952
6.19608,15633
6.20542,14467
6.21477,17661
6.22410,21235
6.23343,24141
6.24278,23425
6.25212,21301
6.26145,25247
6.27080,30605
6.28013,29270
6.28947,20942
6.29882,17042
6.30815,14781
6.31748,12796
6.32683,12167
6.33617,13267
6.34550,11739
6.35485,13567
6.36418,15996
6.37353,21467
6.38287,38051
6.39220,87413
6.40155,207213
6.41088,327996
6.42022,287716
6.42957,138601
6.43890,50396
6.44823,25071
6.45758,21991
6.46692,21322
6.47625,20001
6.48560,17920
6.49493,18156
6.50427,17532
6.51362,18146
6.52295,19358
6.53228,17573
6.54163,16244
6.55097,15800
6.56032,13442
6.56965,13282
6.57898,13192
6.58833,14214
6.59767,15880
6.60700,15217
6.61635,17383
6.62568,18329
6.63502,17788
6.64437,17146
6.65370,17097
6.66303,18433
6.67238,17677
6.68172,17926
6.69105,17625
6.70040,19276
6.70973,19159
6.71907,18933
6.72842,16422
6.73775,15812
6.74710,15682
6.75643,15396
6.76577,13990
6.77512,14299
6.78445,16931
6.79378,17626
6.80313,20974
6.81247,18103
6.82180,16476
6.83115,15117
6.84048,14817
6.84982,15091
6.85917,14350
6.86850,14008
6.87783,15004
6.88718,16830
6.89652,18906
6.90585,23713
6.91520,26190
6.92453,23194
6.93388,18065
6.94322,16800
6.95255,15604
6.96190,16768
6.97123,16010
6.98057,15518
6.98992,16086
6.99925,16569
7.00858,17618
7.01793,19130
7.02727,16992
7.03660,15131
7.04595,13183
7.05528,13188
7.06462,13054
7.07397,14171
7.08330,13840
7.09265,15137
7.10198,17473
7.11132,17350
7.12067,16681
7.13000,16397
7.13933,15758
7.14868,14129
7.15802,13175
7.16735,12169
7.17670,13114
7.18603,13611
7.19537,14585
7.20472,15767
7.21405,20606
7.22338,37131
7.23273,73858
7.24207,101760
7.25140,86427
7.26075,52835
7.27008,34967
7.27943,30965
7.28877,26358
7.29810,23015
7.30745,19454
7.31678,15357
7.32612,14593
7.33547,14110
7.34480,13513
7.35413,14292
7.36348,14816
7.37282,17551
7.38215,29367
7.39150,75829
7.40083,156703
7.41017,213989
7.41952,190821
7.42885,115800
7.43818,58353
7.44753,31308
7.45687,20181
7.46622,17762
7.47555,17392
7.48488,17498
7.49423,17618
7.50357,15658
7.51290,14065
7.52225,14336
7.53158,15120
7.54092,15681
7.55027,16220
7.55960,17223
7.56893,19674
7.57828,17586
7.58762,16970
7.59695,17411
7.60630,16975
7.61563,17394
7.62497,19553
7.63432,17638
7.64365,17611
7.65300,14358
7.66233,14868
7.67167,15585
7.68102,16116
7.69035,19944
7.69968,23929
7.70903,27099
7.71837,22659
7.72770,18395
7.73705,18607
7.74638,17652
7.75572,18134
7.76507,18631
7.77440,18958
7.78373,21543
7.79308,20845
7.80242,17509
7.81177,15989
7.82110,15286
7.83043,16727
7.83978,18798
7.84912,31084
7.85845,56302
7.86780,86215
7.87713,83300
7.88647,56418
7.89582,39756
7.90515,54672
7.91448,90371
7.92383,106785
7.93317,77163
7.94250,43354
7.95185,32084
7.96118,28505
7.97052,26365
7.97987,23028
7.98920,22832
7.99855,22846
8.00788,20904
8.01722,19569
8.02657,23513
8.03590,31016
8.04523,36173
8.05458,33106
8.06392,23975
8.07325,17908
8.08260,20152
8.09193,24083
8.10127,25843
8.11062,23499
8.11995,20997
8.12928,19347
8.13863,19187
8.14797,19098
8.15730,18368
8.16665,18808
8.17598,17987
8.18533,19544
8.19467,19388
8.20400,19031
8.21335,20576
8.22268,18450
8.23202,19585
8.24137,21182
8.25070,20758
8.26003,19585
8.26938,17408
8.27872,16408
8.28805,15718
8.29740,15663
8.30673,17094
8.31607,15989
8.32542,15124
8.33475,14820
8.34408,15334
8.35343,15236
8.36277,15750
8.37212,16607
8.38145,16848
8.39078,17445
8.40013,19447
8.40947,21147
8.41880,20837
8.42815,20008
8.43748,18502
8.44682,18988
8.45617,18992
8.46550,18898
8.47483,18579
8.48418,18600
8.49352,20354
8.50285,18545
8.51220,18410
8.52153,17692
8.53087,17814
8.54022,18514
8.54955,19147
8.55890,19700
8.56823,17927
8.57757,18417
8.58692,20662
8.59625,22851
8.60558,23166
8.61493,22446
8.62427,19213
8.63360,19101
8.64295,18624
8.65228,19814
8.66162,21656
8.67097,22137
8.68030,19654
8.68963,20339
8.69898,20330
8.70832,21385
8.71767,19889
8.72700,19522
8.73633,22680
8.74568,25647
8.75502,27618
8.76435,25334
8.77370,23309
8.78303,29897
8.79237,52242
8.80172,98782
8.81105,137360
8.82038,106581
8.82973,57618
8.83907,32233
8.84840,22773
8.85775,19381
8.86708,20047
8.87642,20922
8.88577,19372
8.89510,19762
8.90445,19142
8.91378,21091
8.92312,20925
8.93247,22507
8.94180,20240
8.95113,20142
8.96048,18346
8.96982,19701
8.97915,18273
8.98850,17397
8.99783,19229
9.00717,19713
9.01652,17627
9.02585,19363
9.03518,19605
9.04453,19548
9.05387,20620
9.06320,23452
9.07255,23008
9.08188,23958
9.09123,26437
9.10057,24515
9.10990,22240
9.11925,21821
9.12858,28534
9.13792,33043
9.14727,28949
9.15660,21985
9.16593,19334
9.17528,17281
9.18462,18872
9.19395,19062
9.20330,19793
9.21263,24692
9.22197,37152
9.23132,47001
9.24065,43336
9.24998,32682
9.25933,23157
9.26867,20402
9.27802,20362
9.28735,20014
9.29668,18282
9.30603,20568
9.31537,22431
9.32470,29588
9.33405,32074
9.34338,30590
9.35272,39619
9.36207,70438
9.37140,110583
9.38073,118456
9.39008,96181
9.39942,70209
9.40875,55739
9.41810,48147
9.42743,46261
9.43678,37300
9.44612,25978
9.45545,21261
9.46480,20868
9.47413,19002
9.48347,19191
9.49282,20800
9.50215,22357
9.51148,21629
9.52083,21497
9.53017,25233
9.53950,29382
9.54885,33382
9.55818,34929
9.56752,37172
9.57687,30611
9.58620,25502
9.59553,25717
9.60488,25860
9.61422,22475
9.62357,21796
9.63290,20137
9.64223,19936
9.65158,21273
9.66092,21323
9.67025,21752
9.67960,22679
9.68893,23533
9.69827,21906
9.70762,22851
9.71695,32146
9.72628,65381
9.73563,145944
9.74497,255332
9.75430,294183
9.76365,230527
9.77298,154897
9.78232,110825
9.79167,82081
9.80100,65046
9.81035,52440
9.81968,52115
9.82902,54411
9.83837,57468
9.84770,57148
9.85703,50270
9.86638,42689
9.87572,48944
9.88505,60199
9.89440,66044
9.90373,62075
9.91307,54872
9.92242,47395
9.93175,37057
9.94108,32624
9.95043,29174
9.95977,29206
9.96910,33702
9.97845,51769
9.98778,66771
9.99713,62309
10.00647,46474
10.01580,36006
10.02515,30501
10.03448,27657
10.04382,29039
10.05317,35058
10.06250,47773
10.07183,61247
10.08118,57026
10.09052,45180
10.09985,49572
10.10920,126495
10.11853,346226
10.12787,538351
10.13722,476386
10.14655,501059
10.15588,1046374
10.16523,1456000
10.17457,1003773
10.18392,349373
10.19325,90620
10.20258,38951
10.21193,32087
10.22127,28066
10.23060,29834
10.23995,31220
10.24928,32655
10.25862,28138
10.26797,25198
10.27730,24759
10.28663,27351
10.29598,29475
10.30532,28740
10.31465,24444
10.32400,24056
10.33333,21511
10.34267,22053
10.35202,22512
10.36135,23573
10.37070,22611
10.38003,22121
10.38937,19242
10.39872,20407
10.40805,21533
10.41738,25807
10.42673,30151
10.43607,34629
10.44540,48499
10.45475,72579
10.46408,77169
10.47342,56383
10.48277,33466
10.49210,24744
10.50143,21035
10.51078,20540
10.52012,20224
10.52947,20959
10.53880,21050
10.54813,22019
10.55748,22898
10.56682,24832
10.57615,26185
10.58550,24253
10.59483,22125
10.60417,21109
10.61352,21139
10.62285,28063
10.63218,37430
10.64153,34607
10.65087,28800
10.66020,26849
10.66955,28897
10.67888,31948
10.68822,31177
10.69757,31376
10.70690,41029
10.71625,54106
10.72558,47033
10.73492,36562
10.74427,32187
10.75360,45324
10.76293,61706
10.77228,65464
10.78162,71437
10.79095,126610
10.80030,201813
10.80963,197161
10.81897,121468
10.82832,53148
10.83765,32085
10.84698,25560
10.85633,26040
10.86567,28885
10.87500,32745
10.88435,33902
10.89368,30836
10.90303,28181
10.91237,25902
10.92170,26843
10.93105,26591
10.94038,25363
10.94972,25694
10.95907,26027
10.96840,27550
10.97773,24594
10.98708,20549
10.99642,20554
11.00575,21402
11.01510,18922
11.02443,18716
11.03377,19798
11.04312,20675
11.05245,18135
11.06178,19379
11.07113,17920
11.08047,18511
11.08982,19383
11.09915,19219
11.10848,19693
11.11783,19626
11.12717,21129
11.13650,20738
11.14585,21301
11.15518,20376
11.16452,20221
11.17387,21293
11.18320,19322
11.19253,17734
11.20188,17814
11.21122,19824
11.22055,21977
11.22990,22572
11.23923,20052
11.24858,22275
11.25792,23994
11.26725,25094
11.27660,22021
11.28593,21645
11.29527,20236
11.30462,19451
11.31395,19926
11.32328,23437
11.33263,33224
11.34197,47613
11.35130,54774
11.36065,51194
11.36998,36131
11.37932,25939
11.38867,28474
11.39800,36961
11.40733,44539
11.41668,39784
11.42602,31790
11.43537,23647
11.44470,22687
11.45403,29212
11.46338,36695
11.47272,36608
11.48205,29628
11.49140,22349
11.50073,18947
11.51007,19119
11.51942,20680
11.52875,17754
11.53808,20206
11.54743,20159
11.55677,25822
11.56610,39769
11.57545,50382
11.58478,52456
11.59412,45356
11.60347,42059
11.61280,36345
11.62215,32008
11.63148,26239
11.64082,26348
11.65017,25587
11.65950,26735
11.66883,28885
11.67818,26438
11.68752,23880
11.69685,23164
11.70620,23687
11.71553,25983
11.72487,25616
11.73422,26811
11.74355,25592
11.75288,24376
11.76223,25601
11.77157,27790
11.78090,30567
11.79025,30906
11.79958,27803
11.80893,25691
11.81827,27175
11.82760,27204
11.83695,24575
11.84628,22522
11.85562,21784
11.86497,23664
11.87430,23895
11.88363,24137
11.89298,22739
11.90232,22412
11.91165,21416
11.92100,20787
11.93033,27081
11.93967,32309
11.94902,38426
11.95835,31461
11.96768,24063
11.97703,23280
11.98637,22067
11.99572,26619
12.00505,30724
12.01438,35077
12.02373,33018
12.03307,26444
12.04240,25328
12.05175,23471
12.06108,21892
12.07042,20502
12.07977,19830
12.08910,22199
12.09843,23226
12.10778,21341
12.11712,20560
12.12645,20005
12.13580,21542
12.14513,25403
12.15448,28702
12.16382,41877
12.17315,55172
12.18250,52213
12.19183,36997
12.20117,28582
12.21052,26451
12.21985,32150
12.22918,37624
12.23853,35548
12.24787,26523
12.25720,23024
12.26655,27119
12.27588,36363
12.28522,38247
12.29457,33726
12.30390,28626
12.31323,26788
12.32258,27794
12.33192,29402
12.34127,29750
12.35060,26988
12.35993,24611
12.36928,25084
12.37862,24509
12.38795,22389
12.39730,21220
12.40663,19572
12.41597,19701
12.42532,20219
12.43465,19097
12.44398,19534
12.45333,21477
12.46267,24212
12.47200,26951
12.48135,25304
12.49068,24174
12.50002,24083
12.50937,26036
12.51870,26261
12.52805,25311
12.53738,25331
12.54672,26877
12.55607,31149
12.56540,29562
12.57473,28562
12.58408,23820
12.59342,21143
12.60275,20148
12.61210,21846
12.62143,25878
12.63077,33452
12.64012,39255
12.64945,38219
12.65878,32748
12.66813,26900
12.67747,22009
12.68680,19828
12.69615,19928
12.70548,22394
12.71483,21906
12.72417,21137
12.73350,20855
12.74285,22235
12.75218,21615
12.76152,20523
12.77087,20087
12.78020,21349
12.78953,20857
12.79888,20293
12.80822,21168
12.81755,22172
12.82690,19830
12.83623,21558
12.84557,19387
12.85492,19330
12.86425,19450
12.87360,19979
12.88293,20227
12.89227,20831
12.90162,19494
12.91095,18545
12.92028,18435
12.92963,18399
12.93897,20479
12.94830,21492
12.95765,20319
12.96698,19218
12.97632,16782
12.98567,17691
12.99500,16723
13.00433,16413
13.01368,21068
13.02302,22947
13.03235,25994
13.04170,24407
13.05103,22270
13.06038,20416
13.06972,21370
13.07905,20251
13.08840,20034
13.09773,19507
13.10707,18970
13.11642,19491
13.12575,20553
13.13508,23575
13.14443,23368
13.15377,22771
13.16310,22848
13.17245,24950
13.18178,30016
13.19112,59677
13.20047,126888
13.20980,180773
13.21913,147474
13.22848,81407
13.23782,55933
13.24717,51859
13.25650,40634
13.26583,31917
13.27518,27624
13.28452,25522
13.29385,24705
13.30320,27652
13.31253,29350
13.32187,29461
13.33122,27668
13.34055,26192
13.34988,23207
13.35923,21765
13.36857,22373
13.37790,22743
13.38725,28321
13.39658,31663
13.40592,28970
13.41527,24263
13.42460,22141
13.43395,24345
13.44328,24315
13.45262,22688
13.46197,23136
13.47130,27332
13.48063,25705
13.48998,24642
13.49932,24575
13.50865,30039
13.51800,46548
13.52733,54590
13.53667,41535
13.54602,29449
13.55535,21701
13.56468,20622
13.57403,20346
13.58337,19754
13.59270,20454
13.60205,20628
13.61138,20533
13.62073,20205
13.63007,23739
13.63940,29419
13.64875,39502
13.65808,42113
13.66742,36016
13.67677,25738
13.68610,24100
13.69543,21086
13.70478,21104
13.71412,18988
13.72345,18033
13.73280,17825
13.74213,18041
13.75147,18077
13.76082,18718
13.77015,18049
13.77948,19129
13.78883,21477
13.79817,24561
13.80752,23757
13.81685,23256
13.82618,19934
13.83553,19495
13.84487,18006
13.85420,22191
13.86355,21124
13.87288,24215
13.88222,33112
13.89157,56420
13.90090,96579
13.91023,147928
13.91958,151102
13.92892,90864
13.93825,45335
13.94760,31469
13.95693,28832
13.96628,26603
13.97562,24495
13.98495,26194
13.99430,25547
14.00363,23592
14.01297,23117
14.02232,22925
14.03165,44304
14.04098,225207
14.05033,1232755
14.05967,3326293
14.06900,4356063
14.07835,2820430
14.08768,857193
14.09702,162465
14.10637,52387
14.11570,39225
14.12503,32516
14.13438,30254
14.14372,33128
14.15307,33363
14.16240,34919
14.17173,33359
14.18108,32437
14.19042,34564
14.19975,35483
14.20910,30116
14.21843,27534
14.22777,23959
14.23712,22040
14.24645,21733
14.25578,23533
14.26513,25020
14.27447,24121
14.28380,23288
14.29315,21291
14.30248,22483
14.31182,30131
14.32117,36492
14.33050,39954
14.33985,34572
14.34918,26206
14.35852,23779
14.36787,22415
14.37720,21495
14.38653,22233
14.39588,22526
14.40522,20613
14.41455,20935
14.42390,18210
14.43323,19726
14.44257,24746
14.45192,37404
14.46125,47240
14.47058,52553
14.47993,39844
14.48927,28898
14.49860,25236
14.50795,23084
14.51728,22412
14.52663,23020
14.53597,23873
14.54530,23043
14.55465,24577
14.56398,23653
14.57332,23465
14.58267,23330
14.59200,21757
14.60133,21128
14.61068,21527
14.62002,22219
14.62935,23852
14.63870,31820
14.64803,43268
14.65737,48940
14.66672,45827
14.67605,38022
14.68540,32328
14.69473,28246
14.70407,26768
14.71342,25269
14.72275,24835
14.73208,26718
14.74143,25225
14.75077,26507
14.76010,23710
14.76945,22734
14.77878,23212
14.78812,22617
14.79747,23408
14.80680,22753
14.81613,24041
14.82548,24553
14.83482,22305
14.84415,23194
14.85350,25920
14.86283,32290
14.87218,33293
14.88152,28212
14.89085,24734
14.90020,21759
14.90953,21804
14.91887,22229
14.92822,21950
14.93755,20061
14.94688,20473
14.95623,22909
14.96557,25205
14.97490,26522
14.98425,24951
14.99358,26800
15.00292,30588
15.01227,32321
15.02160,29383
15.03093,27038
15.04028,31787
15.04962,33643
15.05897,33415
15.06830,30997
15.07763,25927
15.08698,24125
15.09632,21513
15.10565,23880
15.11500,28080
15.12433,35031
15.13367,35739
15.14302,28874
15.15235,23844
15.16168,22424
15.17103,20678
15.18037,23793
15.18970,27887
15.19905,40692
15.20838,49586
15.21772,56478
15.22707,48649
15.23640,36350
15.24575,26734
15.25508,25577
15.26442,24990
15.27377,23808
15.28310,24724
15.29243,23672
15.30178,22339
15.31112,26392
15.32045,30171
15.32980,34462
15.33913,31895
15.34847,28597
15.35782,29900
15.36715,36691
15.37648,35803
15.38583,30866
15.39517,26690
15.40450,25791
15.41385,28317
15.42318,25910
15.43253,24599
15.44187,25474
15.45120,23240
15.46055,24309
15.46988,25359
15.47922,23989
15.48857,27543
15.49790,34010
15.50723,47312
15.51658,51650
15.52592,47776
15.53525,35085
15.54460,25432
15.55393,22453
15.56327,23967
15.57262,23722
15.58195,23795
15.59130,24784
15.60063,25272
15.60997,25333
15.61932,28942
15.62865,30931
15.63798,33359
15.64733,35786
15.65667,36388
15.66600,40928
15.67535,51347
15.68468,70820
15.69402,73269
15.70337,62887
15.71270,46451
15.72203,36071
15.73138,34772
15.74072,39016
15.75005,40128
15.75940,39871
15.76873,40185
15.77808,36854
15.78742,30627
15.79675,31776
15.80610,42519
15.81543,78656
15.82477,150268
15.83412,213442
15.84345,208230
15.85278,142887
15.86213,87511
15.87147,65309
15.88080,60590
15.89015,61494
15.89948,61488
15.90882,54078
15.91817,45078
15.92750,37893
15.93683,31670
15.94618,31138
15.95552,32127
15.96487,34342
15.97420,40855
15.98353,45623
15.99288,45747
16.00222,40879
16.01155,34452
16.02090,31056
16.03023,31580
16.03957,34410
16.04892,34681
16.05825,36293
16.06758,35349
16.07693,34506
16.08627,32228
16.09560,30572
16.10495,30815
16.11428,34991
16.12362,34838
16.13297,34591
16.14230,34468
16.15165,32953
16.16098,29844
16.17032,29103
16.17967,27641
16.18900,31448
16.19833,29891
16.20768,33003
16.21702,33798
16.22635,35829
16.23570,37592
16.24503,38904
16.25437,38847
16.26372,37405
16.27305,51789
16.28238,96678
16.29173,163353
16.30107,192033
16.31042,134651
16.31975,70363
16.32908,42171
16.33843,30757
16.34777,29943
16.35710,26193
16.36645,26171
16.37578,27637
16.38512,27823
16.39447,29224
16.40380,33501
16.41313,34840
16.42248,33736
16.43182,31581
16.44115,33579
16.45050,33250
16.45983,36995
16.46917,32658
16.47852,31927
16.48785,33019
16.49720,32929
16.50653,31401
16.51587,33627
16.52522,31318
16.53455,29017
16.54388,27583
16.55323,27781
16.56257,27277
16.57190,29300
16.58125,29149
16.59058,28603
16.59992,30776
16.60927,32542
16.61860,34088
16.62793,38093
16.63728,36280
16.64662,32533
16.65595,30176
16.66530,28078
16.67463,30823
16.68398,34415
16.69332,39677
16.70265,38426
16.71200,34145
16.72133,31423
16.73067,39074
16.74002,58168
16.74935,68574
16.75868,59375
16.76803,37813
16.77737,30158
16.78670,28755
16.79605,28663
16.80538,29626
16.81472,30897
16.82407,36806
16.83340,37121
16.84273,35243
16.85208,30720
16.86142,27971
16.87077,27680
16.88010,27998
16.88943,29505
16.89878,35416
16.90812,43646
16.91745,46512
16.92680,45139
16.93613,42084
16.94547,41892
16.95482,42785
16.96415,41134
16.97348,35630
16.98283,31685
16.99217,30323
17.00150,28765
17.01085,33650
17.02018,46820
17.02952,56975
17.03887,51242
17.04820,41814
17.05755,35976
17.06688,33767
17.07622,32902
17.08557,31330
17.09490,31901
17.10423,29212
17.11358,30733
17.12292,35679
17.13225,38636
17.14160,37589
17.15093,32021
17.16027,28852
17.16962,29041
17.17895,30212
17.18828,28160
17.19763,26929
17.20697,28812
17.21630,29083
17.22565,27219
17.23498,27550
17.24433,28518
17.25367,32674
17.26300,31804
17.27235,33663
17.28168,33282
17.29102,33761
17.30037,34070
17.30970,38010
17.31903,40513
17.32838,39350
17.33772,35002
17.34705,33140
17.35640,33769
17.36573,44967
17.37507,80483
17.38442,103540
17.39375,86466
17.40310,58542
17.41243,50181
17.42177,48583
17.43112,47176
17.44045,44507
17.44978,40492
17.45913,36859
17.46847,36299
17.47780,57275
17.48715,226241
17.49648,901585
17.50582,1808562
17.51517,1818361
17.52450,923542
17.53383,253013
17.54318,73106
17.55252,46819
17.56185,42748
17.57120,43884
17.58053,43094
17.58988,41313
17.59922,38996
17.60855,37005
17.61790,34211
17.62723,35151
17.63657,37808
17.64592,37028
17.65525,41641
17.66458,43960
17.67393,43659
17.68327,51136
17.69260,51036
17.70195,50565
17.71128,45266
17.72062,38954
17.72997,36888
17.73930,38179
17.74863,38480
17.75798,44343
17.76732,43595
17.77667,38040
17.78600,32739
17.79533,28427
17.80468,31363
17.81402,31669
17.82335,35850
17.83270,34367
17.84203,35590
17.85137,43658
17.86072,47595
17.87005,46411
17.87938,42661
17.88873,38411
17.89807,34047
17.90740,31185
17.91675,29410
17.92608,26287
17.93542,29405
17.94477,35761
17.95410,42157
17.96345,45629
17.97278,41637
17.98212,35022
17.99147,31585
18.00080,28697
18.01013,29389
18.01948,29165
18.02882,31485
18.03815,41268
18.04750,53722
18.05683,55938
18.06617,45185
18.07552,38838
18.08485,33237
18.09418,35007
18.10353,39860
18.11287,37881
18.12222,36479
18.13155,34388
18.14088,34980
18.15023,38323
18.15957,35755
18.16890,34167
18.17825,31820
18.18758,30615
18.19692,30382
18.20627,31407
18.21560,31662
18.22493,30104
18.23428,28796
18.24362,28529
18.25295,29776
18.26230,30422
18.27163,34057
18.28097,35534
18.29032,38030
18.29965,39175
18.30900,37093
18.31833,35611
18.32767,35975
18.33702,43206
18.34635,46300
18.35568,45495
18.36503,39297
18.37437,33877
18.38370,30605
18.39305,29639
18.40238,29430
18.41172,30707
18.42107,32448
18.43040,36158
18.43973,41343
18.44908,38888
18.45842,34601
18.46775,31317
18.47710,31786
18.48643,40719
18.49578,54816
18.50512,63807
18.51445,58970
18.52380,49115
18.53313,39778
18.54247,40022
18.55182,39632
18.56115,36198
18.57048,31130
18.57983,31463
18.58917,33034
18.59850,35999
18.60785,42250
18.61718,38425
18.62652,36862
18.63587,36356
18.64520,33506
18.65453,30603
18.66388,29393
18.67322,30513
18.68257,30206
18.69190,31965
18.70123,37674
18.71058,44280
18.71992,43171
18.72925,40232
18.73860,40821
18.74793,36609
18.75727,33815
18.76662,30239
18.77595,29710
18.78528,30108
18.79463,31389
18.80397,32703
18.81330,31375
18.82265,30957
18.83198,29994
18.84132,29670
18.85067,30771
18.86000,29461
18.86935,27317
18.87868,26984
18.88802,29561
18.89737,37353
18.90670,44787
18.91603,43667
18.92538,39639
18.93472,39995
18.94405,41231
18.95340,45833
18.96273,44671
18.97207,39977
18.98142,38710
18.99075,32836
19.00008,32630
19.00943,32264
19.01877,35157
19.02810,38778
19.03745,49907
19.04678,67301
19.05613,68118
19.06547,64904
19.07480,81542
19.08415,98463
19.09348,89341
19.10282,62625
19.11217,45571
19.12150,35303
19.13083,30088
19.14018,30007
19.14952,26332
19.15885,29713
19.16820,27888
19.17753,32269
19.18687,34256
19.19622,37463
19.20555,38225
19.21490,39396
19.22423,39263
19.23357,33672
19.24292,32168
19.25225,29692
19.26158,30131
19.27093,31594
19.28027,32574
19.28960,34004
19.29895,37433
19.30828,41890
19.31762,43952
19.32697,40764
19.33630,36111
19.34563,32769
19.35498,29396
19.36432,25429
19.37365,26490
19.38300,30448
19.39233,33608
19.40168,34840
19.41102,35678
19.42035,29669
19.42970,28355
19.43903,27425
19.44837,27606
19.45772,27757
19.46705,28404
19.47638,30890
19.48573,32595
19.49507,30919
19.50440,27992
19.51375,26474
19.52308,27113
19.53242,27896
19.54177,26697
19.55110,26560
19.56043,26553
19.56978,29342
19.57912,31459
19.58847,32016
19.59780,30914
19.60713,28764
19.61648,29487
19.62582,31963
19.63515,32280
19.64450,29922
19.65383,29933
19.66317,27384
19.67252,27919
19.68185,28260
19.69118,28308
19.70053,27802
19.70987,33852
19.71920,44047
19.72855,49984
19.73788,45501
19.74722,35416
19.75657,31766
19.76590,32655
19.77525,34795
19.78458,32351
19.79392,31290
19.80327,29060
19.81260,29453
19.82193,28786
19.83128,27561
19.84062,26413
19.84995,26615
19.85930,31302
19.86863,38022
19.87797,42654
19.88732,37553
19.89665,31545
19.90598,28942
19.91533,29002
19.92467,28740
19.93402,25475
19.94335,24896
19.95268,27512
19.96203,27528
19.97137,25952
19.98070,24957
19.99005,24803
19.99938,25634
20.00872,26602
20.01807,27985
20.02740,29549
20.03673,31541
20.04608,29659
20.05542,27109
20.06475,24753
20.07410,28433
20.08343,28477
20.09277,26312
20.10212,26831
20.11145,24745
20.12080,24545
20.13013,26264
20.13947,29194
20.14882,33731
20.15815,34394
20.16748,29651
20.17683,26942
20.18617,26232
20.19550,25048
20.20485,24860
20.21418,27463
20.22352,24086
20.23287,23274
20.24220,24814
20.25153,24666
20.26088,24395
20.27022,23964
20.27955,25259
20.28890,26046
20.29823,25127
20.30758,25930
20.31692,23149
20.32625,24769
20.33560,24888
20.34493,24661
20.35427,26837
20.36362,25582
20.37295,27371
20.38228,25636
20.39163,24080
20.40097,22959
20.41030,24072
20.41965,25864
20.42898,24974
20.43832,22895
20.44767,25249
20.45700,26224
20.46633,31358
20.47568,32114
20.48502,27121
20.49437,24409
20.50370,24445
20.51303,24051
20.52238,25071
20.53172,24804
20.54105,27197
20.55040,38710
20.55973,79933
20.56907,154142
20.57842,178649
20.58775,117022
20.59708,59347
20.60643,36923
20.61577,30773
20.62510,29058
20.63445,30907
20.64378,29907
20.65312,29354
20.66247,29563
20.67180,31463
20.68115,31946
20.69048,31685
20.69982,29808
20.70917,29566
20.71850,30814
20.72783,30132
20.73718,28844
20.74652,30580
20.75585,34306
20.76520,36544
20.77453,33983
20.78387,32966
20.79322,31565
20.80255,31371
20.81188,29216
20.82123,26621
20.83057,24686
20.83992,25559
20.84925,24562
20.85858,24713
20.86793,22934
20.87727,25761
20.88660,24871
20.89595,27228
20.90528,24840
20.91462,24273
20.92397,22798
20.93330,23189
20.94263,23638
20.95198,24723
20.96132,23023
20.97065,23519
20.98000,23927
20.98933,24188
20.99867,24413
21.00802,23492
21.01735,22094
21.02670,22581
21.03603,23331
21.04537,24583
21.05472,24047
21.06405,25407
21.07338,24452
21.08273,24517
21.09207,25016
21.10140,25505
21.11075,27640
21.12008,27514
21.12942,25889
21.13877,26397
21.14810,25183
21.15743,25945
21.16678,26189
21.17612,30625
21.18545,31869
21.19480,31065
21.20413,33665
21.21348,29531
21.22282,32187
21.23215,29102
21.24150,26856
21.25083,26519
21.26017,29149
21.26952,31895
21.27885,36230
21.28818,34552
21.29753,30672
21.30687,29288
21.31620,27782
21.32555,25715
21.33488,25636
21.34422,25480
21.35357,27431
21.36290,24148
21.37223,22545
21.38158,24403
21.39092,24751
21.40027,26083
21.40960,26394
21.41893,25782
21.42828,26636
21.43762,25371
21.44695,24982
21.45630,24995
21.46563,24911
21.47497,25082
21.48432,25181
21.49365,25481
21.50298,24249
21.51233,22916
21.52167,25308
21.53100,24584
21.54035,23805
21.54968,25001
21.55903,27995
21.56837,29639
21.57770,31153
21.58705,31461
21.59638,29763
21.60572,28781
21.61507,28303
21.62440,26316
21.63373,26861
21.64308,25108
21.65242,26263
21.66175,24960
21.67110,26890
21.68043,27528
21.68977,25961
21.69912,25678
21.70845,25379
21.71778,27074
21.72713,28127
21.73647,27434
21.74582,25752
21.75515,24867
21.76448,24620
21.77383,25260
21.78317,23351
21.79250,23400
21.80185,24682
21.81118,26063
21.82052,27435
21.82987,28182
21.83920,27357
21.84853,25827
21.85788,23708
21.86722,26461
21.87655,30186
21.88590,31719
21.89523,32430
21.90457,28185
21.91392,29089
21.92325,26468
21.93260,27082
21.94193,26089
21.95127,27526
21.96062,30200
21.96995,33476
21.97928,36478
21.98863,37238
21.99797,33699
22.00730,30115
22.01665,27775
22.02598,28359
22.03532,27482
22.04467,28900
22.05400,24803
22.06333,27761
22.07268,26852
22.08202,29168
22.09135,27894
22.10070,24822
22.11003,26336
22.11938,25839
22.12872,24741
22.13805,26709
22.14740,27926
22.15673,30564
22.16607,33331
22.17542,32080
22.18475,28569
22.19408,25061
22.20343,23947
22.21277,23974
22.22210,24609
22.23145,25046
22.24078,25265
22.25012,26121
22.25947,25990
22.26880,26062
22.27813,27680
22.28748,27973
22.29682,26902
22.30617,25166
22.31550,22833
22.32483,24001
22.33418,23491
22.34352,24679
22.35285,26049
22.36220,27170
22.37153,27040
22.38087,23460
22.39022,24437
22.39955,24187
22.40888,23703
22.41823,24023
22.42757,24492
22.43690,24778
22.44625,25869
22.45558,25283
22.46492,24911
22.47427,24493
22.48360,25421
22.49295,24284
22.50228,23442
22.51162,23152
22.52097,23789
22.53030,23282
22.53963,24498
22.54898,23248
22.55832,23802
22.56765,24122
22.57700,25129
22.58633,24728
22.59567,26169
22.60502,24609
22.61435,25263
22.62368,25339
22.63303,26130
22.64237,25686
22.65172,24020
22.66105,21932
22.67038,23327
22.67973,24883
22.68907,25649
22.69840,27396
22.70775,25680
22.71708,25378
22.72642,26345
22.73577,25890
22.74510,28992
22.75443,28583
22.76378,27199
22.77312,27360
22.78245,25042
22.79180,25374
22.80113,25475
22.81047,24188
22.81982,26788
22.82915,27446
22.83850,24730
22.84783,25172
22.85717,24644
22.86652,23957
22.87585,25457
22.88518,23718
22.89453,25739
22.90387,23795
22.91320,25844
22.92255,23878
22.93188,24413
22.94122,24635
22.95057,25159
22.95990,23613
22.96923,22595
22.97858,23250
22.98792,22342
22.99725,23544
23.00660,20957
23.01593,21356
23.02528,21977
23.03462,22305
23.04395,21382
23.05330,23203
23.06263,23689
23.07197,23791
23.08132,22073
23.09065,22179
23.09998,22618
23.10933,21845
23.11867,24326
23.12800,21539
23.13735,21718
23.14668,22034
23.15602,21234
23.16537,22322
23.17470,21127
23.18403,24051
23.19338,22677
23.20272,21786
23.21207,22466
23.22140,22407
23.23073,24784
23.24008,22490
23.24942,22989
23.25875,21474
23.26810,21324
23.27743,21490
23.28677,23871
23.29612,22855
23.30545,21973
23.31478,26273
23.32413,30224
23.33347,33172
23.34280,30226
23.35215,25469
23.36148,24358
23.37083,24523
23.38017,24132
23.38950,26177
23.39885,25446
23.40818,25870
23.41752,24610
23.42687,25888
23.43620,26422
23.44553,26361
23.45488,25509
23.46422,26061
23.47355,25397
23.48290,24997
23.49223,23768
23.50157,24306
23.51092,22194
23.52025,23446
23.52958,23680
23.53893,23508
23.54827,23958
23.55762,22562
23.56695,23121
23.57628,24703
23.58563,25018
23.59497,24065
23.60430,25178
23.61365,23066
23.62298,24021
23.63232,23523
23.64167,23210
23.65100,23561
23.66033,22706
23.66968,23067
23.67902,23992
23.68835,22814
23.69770,22674
23.70703,22902
23.71637,24128
23.72572,23441
23.73505,25800
23.74440,26239
23.75373,24086
23.76307,23829
23.77242,24154
23.78175,23337
23.79108,24091
23.80043,24501
23.80977,24144
23.81910,21775
23.82845,21962
23.83778,21700
23.84712,22206
23.85647,21994
23.86580,23845
23.87513,22803
23.88448,23173
23.89382,23423
23.90315,22852
23.91250,22384
23.92183,22628
23.93118,22922
23.94052,23549
23.94985,24490
23.95920,23281
23.96853,23413
23.97787,22082
23.98722,22885
23.99655,23603
24.00588,23697
24.01523,22053
24.02457,20834
24.03390,22389
24.04325,22455
24.05258,23541
24.06192,22320
24.07127,24153
24.08060,22969
24.08993,24231
24.09928,24282
24.10862,21801
24.11797,23124
24.12730,21545
24.13663,23226
24.14598,23913
24.15532,23410
24.16465,22857
24.17400,24974
24.18333,24008
24.19267,23703
24.20202,24517
24.21135,22024
24.22068,24280
24.23003,22991
24.23937,23899
24.24870,23685
24.25805,22936
24.26738,23208
24.27673,23597
24.28607,24146
24.29540,24578
24.30475,24497
24.31408,27174
24.32342,30682
24.33277,31625
24.34210,29656
24.35143,29382
24.36078,26627
24.37012,26339
24.37945,25733
24.38880,27659
24.39813,25661
24.40747,27551
24.41682,25447
24.42615,25660
24.43548,24604
24.44483,24590
24.45417,25785
24.46352,24931
24.47285,25525
24.48218,26296
24.49153,24785
24.50087,26190
24.51020,25947
24.51955,24340
24.52888,26142
24.53822,26462
24.54757,24330
24.55690,23082
24.56623,23842
24.57558,23716
24.58492,23175
24.59425,25269
24.60360,26693
24.61293,25413
24.62227,27091
24.63162,23733
24.64095,25309
24.65030,25109
24.65963,24239
24.66897,26421
24.67832,27230
24.68765,24942
24.69698,25341
24.70633,25756
24.71567,23856
24.72500,24363
24.73435,24399
24.74368,26826
24.75302,24602
24.76237,25573
24.77170,25022
24.78103,26087
24.79038,24622
24.79972,27412
24.80905,25860
24.81840,25174
24.82773,25837
24.83708,26932
24.84642,24970
24.85575,25363
24.86510,24375
24.87443,25776
24.88377,25340
24.89312,26000
24.90245,27538
24.91178,26087
24.92113,24959
24.93047,25975
24.93980,25886
24.94915,26980
24.95848,25256
24.96782,25691
24.97717,25531
24.98650,25738
24.99585,24561
25.00518,24932
25.01452,25116
25.02387,23635
25.03320,26693
25.04253,26174
25.05188,25445
25.06122,25395
25.07055,24554
25.07990,26310
25.08923,26866
25.09857,25885
25.10792,26867
25.11725,27956
25.12658,27665
25.13593,28209
25.14527,26293
25.15460,27960
25.16395,28297
25.17328,26858
25.18263,26332
25.19197,26181
25.20130,25548
25.21065,27544
25.21998,27547
25.22932,27225
25.23867,26797
25.24800,27481
25.25733,26350
25.26668,27415
25.27602,26945
25.28535,26487
25.29470,25380
25.30403,26989
25.31337,26728
25.32272,25898
25.33205,27278
25.34138,26366
25.35073,27574
25.36007,28469
25.36942,27438
25.37875,29276
25.38808,29924
25.39743,29727
25.40677,29196
25.41610,30236
25.42545,29210
25.43478,29652
25.44412,28974
25.45347,29322
25.46280,30542
25.47213,31573
25.48148,31792
25.49082,35143
25.50015,36806
25.50950,34036
25.51883,33338
25.52817,30649
25.53752,30612
25.54685,29641
25.55620,30236
25.56553,32123
25.57487,30399
25.58422,30253
25.59355,29025
25.60288,29790
25.61223,29893
25.62157,28040
25.63090,30590
25.64025,31156
25.64958,30778
25.65892,30398
25.66827,30332
25.67760,30282
25.68693,30148
25.69628,31354
25.70562,31475
25.71495,30907
25.72430,29804
25.73363,30710
25.74298,32228
25.75232,30567
25.76165,32147
25.77100,33066
25.78033,29976
25.78967,30255
25.79902,31221
25.80835,30912
25.81768,30042
25.82703,31597
25.83637,31244
25.84570,31060
25.85505,30826
25.86438,30487
25.87372,31801
25.88307,27905
25.89240,30860
25.90173,30595
25.91108,30721
25.92042,30445
25.92977,30033
25.93910,31228
25.94843,29920
25.95778,29990
25.96712,29877
25.97645,30671
25.98580,30659
25.99513,30586
26.00447,29939
26.01382,30046
26.02315,32281
26.03248,32242
26.04183,31192
26.05117,30642
26.06050,30971
26.06985,31366
26.07918,30463
26.08853,29986
26.09787,31497
26.10720,31056
26.11655,30464
26.12588,32100
26.13522,35534
26.14457,35535
26.15390,34290
26.16323,35063
26.17258,32251
26.18192,34779
26.19125,31689
26.20060,31317
26.20993,31721
26.21927,35167
26.22862,33948
26.23795,32501
26.24728,33324
26.25663,32874
26.26597,32945
26.27532,32972
26.28465,33193
26.29398,35285
26.30333,35407
26.31267,33446
26.32200,33595
26.33135,33069
26.34068,33873
26.35002,33984
26.35937,33524
26.36870,33901
26.37803,33016
26.38738,32108
26.39672,32859
26.40605,32652
26.41540,32106
26.42473,34259
26.43407,34003
26.44342,32632
26.45275,34617
26.46210,36293
26.47143,33378
26.48077,35563
26.49012,36247
26.49945,33512
26.50878,35207
26.51813,36867
26.52747,35353
26.53680,35202
26.54615,36612
26.55548,37093
26.56482,37309
26.57417,35426
26.58350,36446
26.59283,37030
26.60218,37117
26.61152,36208
26.62085,38650
26.63020,37441
26.63953,40959
26.64888,39552
26.65822,40147
26.66755,36398
26.67690,37487
26.68623,34372
26.69557,36941
26.70492,34798
26.71425,37373
26.72358,36978
26.73293,36985
26.74227,36267
26.75160,35616
26.76095,38288
26.77028,37264
26.77962,40109
26.78897,40902
26.79830,41562
26.80765,39764
26.81698,38911
26.82632,38002
26.83567,36685
26.84500,38486
26.85433,39514
26.86368,40947
26.87302,38808
26.88235,38868
26.89170,39125
26.90103,39097
26.91037,39890
26.91972,41611
26.92905,40668
26.93838,41663
26.94773,42686
26.95707,40001
26.96640,41816
26.97575,39393
26.98508,40581
26.99443,41958
27.00377,41542
27.01310,43236
27.02245,42334
27.03178,40405
27.04112,39374
27.05047,39489
27.05980,42830
27.06913,40438
27.07848,42008
27.08782,41778
27.09715,41898
27.10650,41302
27.11583,40423
27.12517,43447
27.13452,41574
27.14385,41223
27.15318,41247
27.16253,41307
27.17187,41782
27.18122,42992
27.19055,41293
27.19988,41800
27.20923,44544
27.21857,43451
27.22790,41949
27.23725,43935
27.24658,44558
27.25592,43785
27.26527,46233
27.27460,45290
27.28393,45466
27.29328,43875
27.30262,45247
27.31195,45583
27.32130,44067
27.33063,43482
27.33997,44844
27.34932,45239
27.35865,44211
27.36800,44416
27.37733,43958
27.38667,42535
27.39602,43763
27.40535,44083
27.41468,46686
27.42403,47748
27.43337,45782
27.44270,47435
27.45205,47091
27.46138,42882
27.47072,46761
27.48007,48647
27.48940,45645
27.49873,46562
27.50808,46848
27.51742,46158
27.52675,46324
27.53610,45476
27.54543,48088
27.55478,46191
27.56412,47797
27.57345,46831
27.58280,44634
27.59213,46106
27.60147,46051
27.61082,48393
27.62015,47372
27.62948,45137
27.63883,49173
27.64817,47991
27.65750,46878
27.66685,47874
27.67618,47782
27.68552,45691
27.69487,48687
27.70420,51538
27.71355,49527
27.72288,48863
27.73222,50112
27.74157,49730
27.75090,49467
27.76023,52643
27.76958,52054
27.77892,51257
27.78825,53653
27.79760,52717
27.80693,52552
27.81627,51769
27.82562,53336
27.83495,53255
27.84428,51062
27.85363,51569
27.86297,55580
27.87230,53554
27.88165,51692
27.89098,52796
27.90033,55045
27.90967,53219
27.91900,54029
27.92835,54407
27.93768,53732
27.94702,56588
27.95637,53935
27.96570,56568
27.97503,53723
27.98438,54072
27.99372,55883
28.00305,55544
28.01240,54604
28.02173,56250
28.03107,56837
28.04042,55467
28.04975,53623
28.05908,55787
28.06843,56851
28.07777,55165
28.08712,58836
28.09645,55547
28.10578,58064
28.11513,59695
28.12447,59966
28.13380,58543
28.14315,57753
28.15248,56265
28.16182,58310
28.17117,57444
28.18050,58463
28.18983,57914
28.19918,60480
28.20852,58745
28.21785,58630
28.22720,57496
28.23653,58085
28.24587,58490
28.25522,60761
28.26455,60614
28.27390,60481
28.28323,59926
28.29257,61269
28.30192,58357
28.31125,61056
28.32058,61228
28.32993,61876
28.33927,61390
28.34860,61000
28.35795,61406
28.36728,61483
28.37662,61678
28.38597,62767
28.39530,63269
28.40463,63648
28.41398,66012
28.42332,64204
28.43267,63731
28.44200,67140
28.45133,64776
28.46068,61821
28.47002,65516
28.47935,65619
28.48870,65323
28.49803,65684
28.50737,66813
28.51672,64001
28.52605,64484
28.53538,69312
28.54473,68430
28.55407,67827
28.56340,68223
28.57275,66207
28.58208,65648
28.59142,66132
28.60077,66274
28.61010,68833
28.61945,69658
28.62878,68719
28.63812,71623
28.64747,68195
28.65680,68531
28.66613,74365
28.67548,76476
28.68482,78600
28.69415,77369
28.70350,77294
28.71283,75055
28.72217,75100
28.73152,71478
28.74085,71322
28.75018,76556
28.75953,75617
28.76887,72114
28.77820,73946
28.78755,73017
28.79688,74020
28.80623,74589
28.81557,73048
28.82490,71922
28.83425,73820
28.84358,75246
28.85292,75483
28.86227,75408
28.87160,76280
28.88093,75836
28.89028,75191
28.89962,74840
28.90895,75139
28.91830,79359
28.92763,77390
28.93697,79273
28.94632,78628
28.95565,77767
28.96498,79522
28.97433,81799
28.98367,81345
28.99302,81106
29.00235,79113
29.01168,83119
29.02103,81980
29.03037,83611
29.03970,83672
29.04905,81118
29.05838,83131
29.06772,79412
29.07707,83298
29.08640,79683
29.09573,80867
29.10508,80676
29.11442,79340
29.12375,83319
29.13310,82243
29.14243,82706
29.15177,83376
29.16112,82717
29.17045,83146
29.17980,83934
29.18913,85435
29.19847,88450
29.20782,85454
29.21715,86553
29.22648,84784
29.23583,85661
29.24517,83889
29.25450,87464
29.26385,88464
29.27318,87916
29.28252,86297
29.29187,87308
29.30120,84946
29.31053,85689
29.31988,86368
29.32922,84816
29.33855,85314
29.34790,87539
29.35723,85992
29.36658,88133
29.37592,90814
29.38525,86697
29.39460,86813
29.40393,86957
29.41327,89765
29.42262,87770
29.43195,89658
29.44128,89293
29.45063,94203
29.45997,94710
29.46930,99982
29.47865,97623
29.48798,98023
29.49732,95446
29.50667,93230
29.51600,92535
29.52535,95656
29.53468,90708
29.54402,90577
29.55337,92356
29.56270,89317
29.57203,89635
29.58138,89764
29.59072,90785
29.60005,88930
29.60940,90329
29.61873,93774
29.62807,91554
29.63742,90829
29.64675,91020
29.65608,91579
29.66543,91403
29.67477,89351
29.68410,92087
29.69345,90921
29.70278,93530
29.71213,92328
29.72147,91631
29.73080,92070
29.74015,91172
29.74948,92683
29.75882,91286
29.76817,90082
29.77750,94720
29.78683,92294
29.79618,91678
29.80552,93673
29.81485,92660
29.82420,90780
29.83353,94805
29.84287,90317
29.85222,91380
29.86155,94568
29.87088,90047
29.88023,93865
29.88957,94609
29.89892,95505
29.90825,92654
29.91758,92982
29.92693,92580
29.93627,95103
29.94560,94898
29.95495,91324
29.96428,95837
29.97362,93713
29.98297,94233
29.99230,91356
30.00163,92666
30.01098,93624
30.02032,92941
30.02965,95125
30.03900,93433
30.04833,95372
30.05767,95228
30.06702,94052
30.07635,96272
30.08570,95094
30.09503,96053
30.10437,96089
30.11372,98958
30.12305,94189
30.13238,98802
30.14173,96966
30.15107,96912
30.16040,98489
30.16975,97448
30.17908,96293
30.18842,96026
30.19777,96360
30.20710,95214
30.21643,95713
30.22578,97911
30.23512,96700
30.24447,97899
30.25380,95034
30.26313,95356
30.27248,93665
30.28182,97979
30.29115,95600
30.30050,99071
30.30983,97443
30.31917,96659
30.32852,96324
30.33785,97291
30.34718,96174
30.35653,98715
30.36587,94168
30.37520,99156
30.38455,99763
30.39388,102682
30.40322,103741
30.41257,103237
30.42190,98233
30.43125,99428
30.44058,99376
30.44992,99107
30.45927,98452
30.46860,100653
30.47793,99519
30.48728,97724
30.49662,98252
30.50595,99197
30.51530,97804
30.52463,95949
30.53397,99884
30.54332,97614
30.55265,97640
30.56198,98947
30.57133,100911
30.58067,99270
30.59000,101186
30.59935,101142
30.60868,103712
30.61803,102195
30.62737,106892
30.63670,107759
30.64605,107338
30.65538,106230
30.66472,113287
30.67407,108962
30.68340,111293
30.69273,106543
30.70208,107855
30.71142,107586
30.72075,106033
30.73010,105231
30.73943,105253
30.74877,103385
30.75812,105768
30.76745,102721
30.77678,103119
30.78613,103421
30.79547,101404
30.80482,106570
30.81415,103354
30.82348,105148
30.83283,105886
30.84217,107658
30.85150,108764
30.86085,108251
30.87018,111006
30.87952,107234
30.88887,111922
30.89820,110209
30.90753,113388
30.91688,109259
30.92622,110151
30.93555,110895
30.94490,111085
30.95423,111963
30.96357,108135
30.97292,109041
30.98225,109408
30.99160,110075
31.00093,107239
31.01027,108511
31.01962,107205
31.02895,109973
31.03828,107372
31.04763,106077
31.05697,105950
31.06630,106404
31.07565,106797
31.08498,104265
31.09432,104009
31.10367,106751
31.11300,109464
31.12233,105024
31.13168,104917
31.14102,103040
31.15035,109881
31.15970,110789
31.16903,106746
31.17838,105398
31.18772,107595
31.19705,109118
31.20640,111770
31.21573,110399
31.22507,108394
31.23442,111967
31.24375,110217
31.25308,112973
31.26243,115166
31.27177,112116
31.28110,111881
31.29045,112738
31.29978,112514
31.30912,110337
31.31847,112032
31.32780,113090
31.33715,110683
31.34648,111844
31.35582,113721
31.36517,114396
