D:\数据\20220412\TEST1-SDHX-1.D Tue Apr 12 12:29:43 2022
Start of data points
0.09760,18799
0.10693,19951
0.11627,19897
0.12562,21466
0.13495,21230
0.14428,21265
0.15363,19894
0.16297,21005
0.17232,21077
0.18165,20844
0.19098,20060
0.20033,20086
0.20967,19149
0.21900,19003
0.22835,18843
0.23768,21292
0.24702,19280
0.25637,19356
0.26570,18745
0.27503,19778
0.28438,18227
0.29372,18583
0.30305,17946
0.31240,18373
0.32173,19513
0.33107,19095
0.34042,18537
0.34975,18438
0.35910,18256
0.36843,18915
0.37777,18976
0.38712,18474
0.39645,19303
0.40578,18824
0.41513,18540
0.42447,18878
0.43380,16066
0.44315,13294
0.45248,12249
0.46182,9632
0.47117,6273
0.48050,6601
0.48983,6393
0.49918,5599
0.50852,5863
0.51785,5673
0.52720,4932
0.53653,5442
0.54588,5289
0.55522,4759
0.56455,4280
0.57390,4407
0.58323,5307
0.59257,5666
0.60192,4999
0.61125,4974
0.62058,5209
0.62993,4312
0.63927,4483
0.64860,5101
0.65795,4826
0.66728,4694
0.67662,4780
0.68597,4051
0.69530,4194
0.70465,4277
0.71398,4047
0.72332,4605
0.73267,4055
0.74200,4634
0.75133,4268
0.76068,5207
0.77002,4618
0.77935,3738
0.78870,5193
0.79803,3893
0.80737,4303
0.81672,4152
0.82605,3940
0.83538,4098
0.84473,4356
0.85407,4220
0.86340,4070
0.87275,3979
0.88208,4510
0.89143,4123
0.90077,4147
0.91010,4393
0.91945,4063
0.92878,4627
0.93812,4604
0.94747,4005
0.95680,4436
0.96613,3833
0.97548,4028
0.98482,4351
0.99415,3584
1.00350,4884
1.01283,4669
1.02217,4399
1.03152,4829
1.04085,3721
1.05018,3848
1.05953,3874
1.06887,3986
1.07822,3998
1.08755,4612
1.09688,4233
1.10623,4371
1.11557,4510
1.12490,4242
1.13425,4009
1.14358,4226
1.15292,4109
1.16227,4331
1.17160,3939
1.18093,4216
1.19028,4029
1.19962,4304
1.20895,4282
1.21830,3972
1.22763,3929
1.23698,4282
1.24632,4327
1.25565,3645
1.26500,4404
1.27433,3752
1.28367,3600
1.29302,3998
1.30235,3495
1.31168,4249
1.32103,4704
1.33037,4170
1.33970,3596
1.34905,3854
1.35838,4061
1.36772,3996
1.37707,3407
1.38640,4051
1.39573,3728
1.40508,4022
1.41442,3779
1.42377,3896
1.43310,3892
1.44243,4019
1.45178,3681
1.46112,3432
1.47045,3378
1.47980,3647
1.48913,3074
1.49847,3938
1.50782,4532
1.51715,3740
1.52648,3994
1.53583,3934
1.54517,3989
1.55450,3896
1.56385,3587
1.57318,4190
1.58252,4079
1.59187,5547
1.60120,10064
1.61055,14583
1.61988,19197
1.62922,22408
1.63857,29829
1.64790,37619
1.65723,43491
1.66658,42838
1.67592,37508
1.68525,32247
1.69460,25188
1.70393,18926
1.71327,13973
1.72262,16232
1.73195,17506
1.74128,19338
1.75063,20046
1.75997,21983
1.76930,21264
1.77865,22062
1.78798,23067
1.79733,22157
1.80667,23930
1.81600,23820
1.82535,22545
1.83468,24322
1.84402,22686
1.85337,21900
1.86270,24653
1.87203,29946
1.88138,46351
1.89072,72188
1.90005,97950
1.90940,117744
1.91873,133636
1.92807,167441
1.93742,203081
1.94675,230625
1.95608,231455
1.96543,206702
1.97477,174141
1.98412,137118
1.99345,114492
2.00278,101527
2.01213,98075
2.02147,110673
2.03080,134535
2.04015,123588
2.04948,101210
2.05882,88301
2.06817,77910
2.07750,70759
2.08683,63605
2.09618,58457
2.10552,56533
2.11485,57206
2.12420,68871
2.13353,87609
2.14287,104746
2.15222,109610
2.16155,97800
2.17090,80147
2.18023,88739
2.18957,213768
2.19892,330581
2.20825,253406
2.21758,142762
2.22693,108363
2.23627,138995
2.24560,303085
2.25495,1002695
2.26428,2429654
2.27362,3048666
2.28297,2566948
2.29230,1634152
2.30163,1168243
2.31098,3123111
2.32032,7936853
2.32967,8793501
2.33900,5383095
2.34833,2405573
2.35768,1040724
2.36702,496796
2.37635,297903
2.38570,204035
2.39503,142245
2.40437,114226
2.41372,105049
2.42305,104049
2.43238,96973
2.44173,84741
2.45107,75439
2.46040,73318
2.46975,76358
2.47908,74157
2.48842,65924
2.49777,59959
2.50710,58578
2.51645,55115
2.52578,52213
2.53512,53137
2.54447,60009
2.55380,72886
2.56313,106708
2.57248,147954
2.58182,167288
2.59115,150981
2.60050,136281
2.60983,137795
2.61917,181952
2.62852,206624
2.63785,171998
2.64718,149490
2.65653,137898
2.66587,108535
2.67520,83246
2.68455,60483
2.69388,52161
2.70323,54207
2.71257,100280
2.72190,226019
2.73125,327519
2.74058,292885
2.74992,243042
2.75927,262315
2.76860,357398
2.77793,595178
2.78728,817580
2.79662,671821
2.80595,458166
2.81530,303772
2.82463,212574
2.83397,176197
2.84332,289368
2.85265,784202
2.86198,1344762
2.87133,1254536
2.88067,728261
2.89002,352694
2.89935,189544
2.90868,119010
2.91803,92983
2.92737,78401
2.93670,69384
2.94605,63683
2.95538,59232
2.96472,55500
2.97407,53910
2.98340,58603
2.99273,68785
3.00208,76869
3.01142,81043
3.02075,122395
3.03010,330589
3.03943,447598
3.04878,361367
3.05812,248862
3.06745,190106
3.07680,152449
3.08613,112247
3.09547,81209
3.10482,60926
3.11415,52653
3.12348,49279
3.13283,50637
3.14217,60706
3.15150,90025
3.16085,157501
3.17018,191026
3.17952,145249
3.18887,90632
3.19820,62265
3.20753,50313
3.21688,46445
3.22622,44702
3.23557,42622
3.24490,43104
3.25423,42330
3.26358,43528
3.27292,41804
3.28225,42313
3.29160,41712
3.30093,43063
3.31027,45162
3.31962,41813
3.32895,40824
3.33828,40475
3.34763,39518
3.35697,40570
3.36630,40971
3.37565,40808
3.38498,37269
3.39432,36884
3.40367,43239
3.41300,52425
3.42235,59305
3.43168,60814
3.44102,57662
3.45037,51935
3.45970,45838
3.46903,42461
3.47838,41354
3.48772,42692
3.49705,41312
3.50640,38740
3.51573,39219
3.52507,36992
3.53442,38725
3.54375,57800
3.55308,128660
3.56243,240563
3.57177,290299
3.58110,235644
3.59045,153953
3.59978,120881
3.60913,99090
3.61847,80691
3.62780,65479
3.63715,57072
3.64648,52715
3.65582,48908
3.66517,47228
3.67450,48627
3.68383,48880
3.69318,43037
3.70252,41804
3.71185,46020
3.72120,54762
3.73053,56245
3.73987,47871
3.74922,40363
3.75855,38640
3.76788,35715
3.77723,36216
3.78657,37210
3.79592,43318
3.80525,52472
3.81458,66419
3.82393,74075
3.83327,62516
3.84260,53693
3.85195,47278
3.86128,42896
3.87062,41195
3.87997,45039
3.88930,52868
3.89863,64826
3.90798,69092
3.91732,66195
3.92665,84488
3.93600,107765
3.94533,106092
3.95468,97968
3.96402,96071
3.97335,93513
3.98270,93635
3.99203,98413
4.00137,105725
4.01072,114309
4.02005,125524
4.02938,162266
4.03873,239463
4.04807,309446
4.05740,301467
4.06675,256247
4.07608,226701
4.08542,234689
4.09477,229925
4.10410,133056
4.11343,91261
4.12278,70008
4.13212,60308
4.14147,55764
4.15080,55524
4.16013,51317
4.16948,49089
4.17882,45962
4.18815,44333
4.19750,45889
4.20683,49444
4.21617,45873
4.22552,46835
4.23485,44796
4.24418,44777
4.25353,48142
4.26287,92590
4.27220,114130
4.28155,101638
4.29088,83011
4.30022,71416
4.30957,66148
4.31890,66838
4.32825,68254
4.33758,59772
4.34692,53750
4.35627,48661
4.36560,44711
4.37493,44939
4.38428,43568
4.39362,41063
4.40295,38512
4.41230,40566
4.42163,37068
4.43097,37395
4.44032,37043
4.44965,38353
4.45898,41334
4.46833,52378
4.47767,63589
4.48700,66332
4.49635,54448
4.50568,43057
4.51503,39462
4.52437,36909
4.53370,36717
4.54305,36421
4.55238,36658
4.56172,35408
4.57107,37154
4.58040,35977
4.58973,35089
4.59908,38472
4.60842,38230
4.61775,37336
4.62710,36378
4.63643,41869
4.64577,42818
4.65512,42602
4.66445,38762
4.67380,38004
4.68313,42816
4.69247,50914
4.70182,58182
4.71115,56446
4.72048,49270
4.72983,43809
4.73917,37497
4.74850,37000
4.75785,35887
4.76718,36054
4.77652,38504
4.78587,35622
4.79520,36105
4.80453,37927
4.81388,42058
4.82322,42546
4.83255,39452
4.84190,36963
4.85123,36062
4.86058,35835
4.86992,37454
4.87925,38972
4.88860,39648
4.89793,40662
4.90727,38776
4.91662,38123
4.92595,38216
4.93528,41610
4.94463,45628
4.95397,40443
4.96330,36233
4.97265,33747
4.98198,32314
4.99132,36398
5.00067,37186
5.01000,39226
5.01933,43826
5.02868,45171
5.03802,43723
5.04737,40245
5.05670,35426
5.06603,34207
5.07538,33821
5.08472,33855
5.09405,34555
5.10340,33492
5.11273,33481
5.12207,32913
5.13142,35507
5.14075,36885
5.15008,37230
5.15943,36024
5.16877,36139
5.17810,39705
5.18745,39766
5.19678,38736
5.20612,33004
5.21547,33899
5.22480,33671
5.23415,36652
5.24348,39076
5.25282,36696
5.26217,43000
5.27150,70503
5.28083,124746
5.29018,171167
5.29952,144216
5.30885,94611
5.31820,63574
5.32753,52122
5.33687,43630
5.34622,37400
5.35555,33740
5.36488,31585
5.37423,32488
5.38357,38268
5.39290,43729
5.40225,40724
5.41158,39390
5.42093,35357
5.43027,32392
5.43960,31074
5.44895,30548
5.45828,30983
5.46762,31545
5.47697,33127
5.48630,34959
5.49563,34707
5.50498,34911
5.51432,35885
5.52365,43910
5.53300,49732
5.54233,50219
5.55167,48696
5.56102,51748
5.57035,54202
5.57968,58730
5.58903,63996
5.59837,61734
5.60772,49399
5.61705,40094
5.62638,37295
5.63573,37670
5.64507,36961
5.65440,36169
5.66375,37186
5.67308,38772
5.68242,36760
5.69177,36892
5.70110,38993
5.71043,41158
5.71978,41147
5.72912,38102
5.73845,39225
5.74780,47277
5.75713,50997
5.76648,47907
5.77582,41310
5.78515,35502
5.79450,34016
5.80383,32903
5.81317,34390
5.82252,37137
5.83185,38782
5.84118,36862
5.85053,35371
5.85987,33646
5.86920,35636
5.87855,36142
5.88788,33831
5.89722,35687
5.90657,40242
5.91590,63710
5.92523,85407
5.93458,80276
5.94392,65086
5.95327,49241
5.96260,39278
5.97193,34380
5.98128,32512
5.99062,33094
5.99995,31552
6.00930,31139
6.01863,30159
6.02797,27970
6.03732,25344
6.04665,23005
6.05598,21369
6.06533,22719
6.07467,21306
6.08400,19037
6.09335,20124
6.10268,20991
6.11202,26497
6.12137,49241
6.13070,90464
6.14005,107085
6.14938,80590
6.15872,44626
6.16807,26924
6.17740,22688
6.18673,22531
6.19608,21110
6.20542,19186
6.21475,18913
6.22410,22437
6.23343,22475
6.24277,23702
6.25212,23946
6.26145,28129
6.27078,31237
6.28013,29008
6.28947,21486
6.29880,18972
6.30815,17609
6.31748,18610
6.32683,18139
6.33617,17694
6.34550,18725
6.35485,20247
6.36418,20915
6.37352,31926
6.38287,57624
6.39220,163882
6.40153,421673
6.41088,650789
6.42022,543473
6.42955,263142
6.43890,87305
6.44823,35562
6.45757,26007
6.46692,24933
6.47625,23937
6.48560,23275
6.49493,24493
6.50427,23720
6.51362,24990
6.52295,24157
6.53228,23003
6.54163,22912
6.55097,21815
6.56030,22404
6.56965,22060
6.57898,21583
6.58832,22289
6.59767,24597
6.60700,25154
6.61633,24040
6.62568,24495
6.63502,26000
6.64435,25556
6.65370,26310
6.66303,26808
6.67238,27637
6.68172,27089
6.69105,29001
6.70040,29004
6.70973,26651
6.71907,24993
6.72842,24645
6.73775,23831
6.74708,23302
6.75643,22457
6.76577,21576
6.77510,21344
6.78445,24198
6.79378,28019
6.80312,31808
6.81247,28771
6.82180,23850
6.83113,21952
6.84048,21820
6.84982,20461
6.85917,21097
6.86850,19053
6.87783,20463
6.88718,21788
6.89652,28159
6.90585,30816
6.91520,32824
6.92453,29113
6.93387,25131
6.94322,25683
6.95255,24967
6.96188,23702
6.97123,21996
6.98057,22375
6.98990,22776
6.99925,21751
7.00858,22549
7.01792,23962
7.02727,23680
7.03660,20480
7.04595,17897
7.05528,20080
7.06462,19484
7.07397,19654
7.08330,20522
7.09263,20237
7.10198,23946
7.11132,23853
7.12065,23135
7.13000,22288
7.13933,22033
7.14867,20924
7.15802,20122
7.16735,19590
7.17668,20021
7.18603,21561
7.19537,21081
7.20470,21699
7.21405,22619
7.22338,35373
7.23273,60032
7.24207,75966
7.25140,65929
7.26075,41953
7.27008,36135
7.27942,32799
7.28877,28620
7.29810,26521
7.30743,23912
7.31678,22808
7.32612,19614
7.33545,19058
7.34480,19286
7.35413,18641
7.36347,19111
7.37282,20704
7.38215,31467
7.39150,62486
7.40083,116231
7.41017,152270
7.41952,128034
7.42885,81242
7.43818,48514
7.44753,33373
7.45687,27291
7.46620,23953
7.47555,26448
7.48488,26702
7.49422,23080
7.50357,22734
7.51290,20651
7.52223,18289
7.53158,19297
7.54092,19493
7.55025,21336
7.55960,23506
7.56893,23559
7.57828,22201
7.58762,21769
7.59695,21619
7.60630,21140
7.61563,22523
7.62497,23931
7.63432,22978
7.64365,22190
7.65298,20932
7.66233,20585
7.67167,19910
7.68100,21994
7.69035,25746
7.69968,31098
7.70902,33950
7.71837,35398
7.72770,35021
7.73703,32374
7.74638,27638
7.75572,23422
7.76507,23795
7.77440,24453
7.78373,25725
7.79308,24163
7.80242,22466
7.81175,22670
7.82110,23694
7.83043,25334
7.83977,26086
7.84912,34894
7.85845,56183
7.86778,81930
7.87713,74899
7.88647,54922
7.89580,39401
7.90515,50800
7.91448,74112
7.92382,82594
7.93317,68260
7.94250,48393
7.95185,40359
7.96118,34297
7.97052,30299
7.97987,31222
7.98920,30757
7.99853,30026
8.00788,26959
8.01722,26409
8.02655,30991
8.03590,37875
8.04523,41295
8.05457,38037
8.06392,27947
8.07325,25352
8.08258,26562
8.09193,30231
8.10127,32299
8.11062,28936
8.11995,25420
8.12928,25855
8.13863,24284
8.14797,25292
8.15730,24530
8.16665,23741
8.17598,22917
8.18532,23167
8.19467,23492
8.20400,21693
8.21333,25847
8.22268,22324
8.23202,23353
8.24135,22001
8.25070,24396
8.26003,22385
8.26937,22949
8.27872,21419
8.28805,21475
8.29740,21747
8.30673,21174
8.31607,20631
8.32542,20468
8.33475,19966
8.34408,20109
8.35343,20930
8.36277,21276
8.37210,21578
8.38145,22441
8.39078,25301
8.40012,27156
8.40947,26861
8.41880,28015
8.42813,29393
8.43748,24872
8.44682,24932
8.45615,25019
8.46550,26415
8.47483,27282
8.48418,26325
8.49352,24466
8.50285,25401
8.51220,24892
8.52153,23503
8.53087,24753
8.54022,24622
8.54955,26315
8.55888,25167
8.56823,24306
8.57757,23794
8.58690,26523
8.59625,27320
8.60558,29251
8.61492,27714
8.62427,27594
8.63360,27860
8.64293,26788
8.65228,28567
8.66162,29052
8.67097,29681
8.68030,26478
8.68963,26892
8.69898,27408
8.70832,26423
8.71765,26318
8.72700,26251
8.73633,28596
8.74567,34119
8.75502,37253
8.76435,34027
8.77368,31308
8.78303,34212
8.79237,49118
8.80170,82563
8.81105,108622
8.82038,85697
8.82972,50344
8.83907,29606
8.84840,25622
8.85775,25846
8.86708,26398
8.87642,27385
8.88577,26240
8.89510,27373
8.90443,27616
8.91378,26235
8.92312,27533
8.93245,30204
8.94180,27857
8.95113,26071
8.96047,24151
8.96982,25067
8.97915,25551
8.98848,25966
8.99783,25297
9.00717,25761
9.01650,26820
9.02585,25987
9.03518,26003
9.04453,26129
9.05387,27998
9.06320,29494
9.07255,30880
9.08188,34511
9.09122,35247
9.10057,31436
9.10990,28245
9.11923,30057
9.12858,36582
9.13792,44950
9.14725,38050
9.15660,31170
9.16593,26310
9.17527,24450
9.18462,25000
9.19395,26121
9.20330,30171
9.21263,34073
9.22197,44933
9.23132,57903
9.24065,53916
9.24998,41585
9.25933,32961
9.26867,28286
9.27800,27611
9.28735,25792
9.29668,26193
9.30602,28284
9.31537,32539
9.32470,40126
9.33403,46437
9.34338,43779
9.35272,51469
9.36205,91739
9.37140,121309
9.38073,115462
9.39008,82655
9.39942,62391
9.40875,51037
9.41810,45184
9.42743,42915
9.43677,37479
9.44612,28089
9.45545,27342
9.46478,24725
9.47413,24782
9.48347,26204
9.49280,30521
9.50215,29488
9.51148,27620
9.52082,26769
9.53017,30747
9.53950,34700
9.54883,39603
9.55818,46618
9.56752,48950
9.57687,38772
9.58620,32529
9.59553,32910
9.60488,34372
9.61422,30288
9.62355,27745
9.63290,27081
9.64223,27554
9.65157,27832
9.66092,27601
9.67025,28356
9.67958,27541
9.68893,27069
9.69827,25114
9.70760,26633
9.71695,47082
9.72628,105647
9.73562,219983
9.74497,329388
9.75430,325472
9.76365,223888
9.77298,140785
9.78232,98771
9.79167,74691
9.80100,59750
9.81033,55031
9.81968,55587
9.82902,59243
9.83835,69931
9.84770,71231
9.85703,58852
9.86637,47572
9.87572,47256
9.88505,53664
9.89438,55629
9.90373,53277
9.91307,50142
9.92242,45704
9.93175,42314
9.94108,38745
9.95043,34080
9.95977,33974
9.96910,42603
9.97845,62510
9.98778,78581
9.99712,76035
10.00647,56211
10.01580,40504
10.02513,34455
10.03448,31594
10.04382,32231
10.05315,36994
10.06250,45167
10.07183,54373
10.08117,52371
10.09052,43159
10.09985,54638
10.10920,170927
10.11853,464400
10.12787,701405
10.13722,612348
10.14655,641410
10.15588,1310149
10.16523,1747454
10.17457,1212262
10.18390,421629
10.19325,101102
10.20258,40224
10.21192,34386
10.22127,33642
10.23060,36104
10.23993,40624
10.24928,38120
10.25862,31286
10.26795,27658
10.27730,29945
10.28663,30664
10.29598,36420
10.30532,35252
10.31465,30737
10.32400,26227
10.33333,26067
10.34267,23875
10.35202,25550
10.36135,24376
10.37068,23826
10.38003,24042
10.38937,24395
10.39870,23825
10.40805,32742
10.41738,45535
10.42672,55401
10.43607,54093
10.44540,55272
10.45473,72546
10.46408,73820
10.47342,56310
10.48277,35168
10.49210,26773
10.50143,24598
10.51078,24737
10.52012,23689
10.52945,25421
10.53880,26838
10.54813,27478
10.55747,28483
10.56682,27387
10.57615,29015
10.58548,28906
10.59483,26148
10.60417,24540
10.61350,23992
10.62285,28765
10.63218,31615
10.64152,31778
10.65087,27188
10.66020,29760
10.66955,30815
10.67888,30315
10.68822,30788
10.69757,32211
10.70690,48270
10.71623,61522
10.72558,53861
10.73492,39965
10.74425,38126
10.75360,50147
10.76293,68624
10.77227,67565
10.78162,74190
10.79095,120870
10.80028,185484
10.80963,182117
10.81897,112608
10.82832,54760
10.83765,34833
10.84698,30118
10.85633,31394
10.86567,35216
10.87500,43203
10.88435,44341
10.89368,37155
10.90302,33288
10.91237,30217
10.92170,31872
10.93103,29141
10.94038,28962
10.94972,27147
10.95905,29853
10.96840,27564
10.97773,25197
10.98707,23071
10.99642,22253
11.00575,21892
11.01510,21664
11.02443,23593
11.03377,23927
11.04312,20782
11.05245,21799
11.06178,21488
11.07113,21259
11.08047,21205
11.08980,21647
11.09915,23625
11.10848,23399
11.11782,24983
11.12717,24835
11.13650,23205
11.14583,21819
11.15518,22550
11.16452,22280
11.17385,25239
11.18320,21322
11.19253,20836
11.20188,20111
11.21122,23472
11.22055,24244
11.22990,22103
11.23923,22586
11.24857,24601
11.25792,26508
11.26725,27666
11.27658,25705
11.28593,23126
11.29527,23180
11.30460,22634
11.31395,21659
11.32328,25012
11.33262,30599
11.34197,40170
11.35130,47873
11.36063,43923
11.36998,31775
11.37932,27276
11.38867,30715
11.39800,38988
11.40733,48591
11.41668,48266
11.42602,35416
11.43535,25388
11.44470,24385
11.45403,30200
11.46337,36827
11.47272,40248
11.48205,33239
11.49138,25219
11.50073,21765
11.51007,24322
11.51940,21919
11.52875,21529
11.53808,21701
11.54743,23953
11.55677,35617
11.56610,53024
11.57545,64525
11.58478,57478
11.59412,45934
11.60347,38110
11.61280,35474
11.62213,29917
11.63148,29328
11.64082,33345
11.65015,48576
11.65950,60931
11.66883,62312
11.67817,52175
11.68752,42215
11.69685,37446
11.70618,36219
11.71553,39898
11.72487,38207
11.73422,36300
11.74355,33019
11.75288,30092
11.76223,31801
11.77157,33272
11.78090,35060
11.79025,33837
11.79958,30871
11.80892,31049
11.81827,32213
11.82760,30095
11.83693,27126
11.84628,26357
11.85562,26358
11.86495,28681
11.87430,27694
11.88363,28555
11.89297,26781
11.90232,24385
11.91165,24475
11.92100,27201
11.93033,28676
11.93967,36752
11.94902,39465
11.95835,33998
11.96768,27273
11.97703,25424
11.98637,24986
11.99570,28964
12.00505,35488
12.01438,39533
12.02372,40273
12.03307,32714
12.04240,29230
12.05173,26481
12.06108,25501
12.07042,23039
12.07975,24205
12.08910,23867
12.09843,24843
12.10778,23923
12.11712,22537
12.12645,23380
12.13580,23710
12.14513,25441
12.15447,29750
12.16382,43703
12.17315,62582
12.18248,57230
12.19183,41847
12.20117,31431
12.21050,29192
12.21985,30883
12.22918,36357
12.23852,34096
12.24787,28386
12.25720,27419
12.26653,34679
12.27588,45660
12.28522,47978
12.29457,40078
12.30390,30786
12.31323,28460
12.32258,27039
12.33192,31474
12.34125,32653
12.35060,31606
12.35993,28599
12.36927,29530
12.37862,27194
12.38795,26082
12.39728,25800
12.40663,24485
12.41597,24378
12.42530,25588
12.43465,24286
12.44398,25526
12.45332,25806
12.46267,28023
12.47200,28626
12.48135,29554
12.49068,28387
12.50002,30779
12.50937,31267
12.51870,32420
12.52803,33030
12.53738,30952
12.54672,31096
12.55605,36166
12.56540,37301
12.57473,35550
12.58407,29381
12.59342,26584
12.60275,24626
12.61208,26409
12.62143,30156
12.63077,36868
12.64012,41128
12.64945,38681
12.65878,35924
12.66813,31402
12.67747,25031
12.68680,22527
12.69615,21309
12.70548,23305
12.71482,25378
12.72417,24695
12.73350,25474
12.74283,25633
12.75218,27841
12.76152,25751
12.77085,23789
12.78020,22275
12.78953,23552
12.79887,24679
12.80822,24671
12.81755,24933
12.82690,25988
12.83623,25137
12.84557,24556
12.85492,24277
12.86425,23979
12.87358,23399
12.88293,24029
12.89227,24147
12.90160,23937
12.91095,23449
12.92028,22643
12.92962,20933
12.93897,22493
12.94830,24202
12.95763,24710
12.96698,23336
12.97632,21018
12.98565,21250
12.99500,21161
13.00433,23388
13.01368,26620
13.02302,29099
13.03235,32387
13.04170,29802
13.05103,26302
13.06037,25843
13.06972,26799
13.07905,27002
13.08838,25404
13.09773,23926
13.10707,22691
13.11640,24062
13.12575,27718
13.13508,29354
13.14442,31254
13.15377,29668
13.16310,27129
13.17243,27678
13.18178,38459
13.19112,80287
13.20047,176293
13.20980,240348
13.21913,183804
13.22848,99075
13.23782,66421
13.24715,62850
13.25650,51453
13.26583,41047
13.27517,38829
13.28452,38968
13.29385,35669
13.30318,32050
13.31253,34117
13.32187,33850
13.33120,33150
13.34055,32422
13.34988,30189
13.35923,26698
13.36857,26753
13.37790,26799
13.38725,31338
13.39658,34310
13.40592,32465
13.41527,26859
13.42460,26519
13.43393,27555
13.44328,29622
13.45262,28527
13.46195,29506
13.47130,30471
13.48063,30642
13.48997,27428
13.49932,27151
13.50865,37956
13.51798,57261
13.52733,64614
13.53667,47912
13.54602,34560
13.55535,26356
13.56468,26593
13.57403,26068
13.58337,22353
13.59270,24049
13.60205,23323
13.61138,24533
13.62072,22977
13.63007,25155
13.63940,24412
13.64873,25372
13.65808,26906
13.66742,27594
13.67675,24854
13.68610,22263
13.69543,21850
13.70477,21004
13.71412,21158
13.72345,20374
13.73280,21055
13.74213,21671
13.75147,21865
13.76082,22307
13.77015,22363
13.77948,24328
13.78883,24230
13.79817,24583
13.80750,25977
13.81685,24871
13.82618,24266
13.83552,22539
13.84487,22497
13.85420,23303
13.86353,25911
13.87288,27627
13.88222,37961
13.89155,60108
13.90090,104268
13.91023,162929
13.91958,171434
13.92892,102560
13.93825,50199
13.94760,35568
13.95693,32789
13.96627,30446
13.97562,29298
13.98495,28918
13.99428,28107
14.00363,27161
14.01297,28539
14.02230,27684
14.03165,56344
14.04098,302264
14.05032,1502150
14.05967,3998499
14.06900,5108201
14.07833,3283467
14.08768,1017526
14.09702,189362
14.10637,55029
14.11570,41175
14.12503,36983
14.13438,35186
14.14372,36210
14.15305,41380
14.16240,37244
14.17173,38668
14.18107,38129
14.19042,41794
14.19975,41812
14.20908,36267
14.21843,30896
14.22777,27432
14.23710,24294
14.24645,24806
14.25578,26241
14.26513,28988
14.27447,27011
14.28380,24985
14.29315,23696
14.30248,27038
14.31182,34491
14.32117,42601
14.33050,43058
14.33983,35494
14.34918,31225
14.35852,27010
14.36785,25607
14.37720,26470
14.38653,26686
14.39587,26502
14.40522,24393
14.41455,23639
14.42388,23763
14.43323,25163
14.44257,32669
14.45192,42342
14.46125,55380
14.47058,54932
14.47993,43649
14.48927,34532
14.49860,29297
14.50795,28875
14.51728,27149
14.52662,26224
14.53597,25269
14.54530,27439
14.55463,26898
14.56398,28056
14.57332,29528
14.58265,26081
14.59200,25559
14.60133,26012
14.61067,23193
14.62002,24460
14.62935,24761
14.63870,29024
14.64803,33351
14.65737,37523
14.66672,37003
14.67605,35202
14.68538,31954
14.69473,28192
14.70407,25687
14.71340,27376
14.72275,26153
14.73208,29828
14.74142,27802
14.75077,27424
14.76010,26909
14.76943,25959
14.77878,26529
14.78812,26628
14.79745,26837
14.80680,26684
14.81613,26928
14.82548,27891
14.83482,24769
14.84415,25322
14.85350,28752
14.86283,36005
14.87217,37473
14.88152,31972
14.89085,27317
14.90018,26294
14.90953,26116
14.91887,25087
14.92820,25362
14.93755,24656
14.94688,25645
14.95622,24979
14.96557,29292
14.97490,29179
14.98425,27294
14.99358,28960
15.00292,35382
15.01227,35286
15.02160,29731
15.03093,31671
15.04028,35485
15.04962,36129
15.05895,37568
15.06830,34446
15.07763,31859
15.08697,26901
15.09632,25557
15.10565,25909
15.11498,32234
15.12433,41197
15.13367,40707
15.14300,34182
15.15235,27157
15.16168,25975
15.17103,24615
15.18037,26268
15.18970,34077
15.19905,45656
15.20838,58494
15.21772,64071
15.22707,54046
15.23640,41103
15.24573,34386
15.25508,33283
15.26442,33096
15.27375,30721
15.28310,30749
15.29243,29239
15.30177,30700
15.31112,31375
15.32045,33586
15.32978,36834
15.33913,36056
15.34847,31399
15.35782,36069
15.36715,38766
15.37648,38910
15.38583,31330
15.39517,28856
15.40450,28021
15.41385,29517
15.42318,31397
15.43252,28790
15.44187,27236
15.45120,26586
15.46053,28209
15.46988,28079
15.47922,29197
15.48855,31962
15.49790,38429
15.50723,53930
15.51657,59818
15.52592,53730
15.53525,36926
15.54460,29136
15.55393,26474
15.56327,27918
15.57262,29077
15.58195,26911
15.59128,28132
15.60063,28737
15.60997,28216
15.61930,29197
15.62865,34120
15.63798,33870
15.64732,38946
15.65667,37903
15.66600,34901
15.67533,31189
15.68468,32863
15.69402,39247
15.70335,40784
15.71270,39125
15.72203,36275
15.73138,35134
15.74072,39319
15.75005,44972
15.75940,44872
15.76873,40347
15.77807,36882
15.78742,35500
15.79675,32390
15.80608,33943
15.81543,39243
15.82477,66638
15.83410,107366
15.84345,117958
15.85278,85957
15.86212,55108
15.87147,45092
15.88080,48170
15.89013,50110
15.89948,53479
15.90882,47236
15.91817,37692
15.92750,33789
15.93683,31295
15.94618,31098
15.95552,31501
15.96485,36314
15.97420,42659
15.98353,50642
15.99287,51575
16.00222,43653
16.01155,35324
16.02088,32536
16.03023,33100
16.03957,34988
16.04890,36292
16.05825,36637
16.06758,35804
16.07693,34125
16.08627,34750
16.09560,32220
16.10495,36302
16.11428,38881
16.12362,39539
16.13297,36555
16.14230,35755
16.15163,34798
16.16098,32480
16.17032,32248
16.17965,31358
16.18900,31358
16.19833,35499
16.20767,38624
16.21702,43519
16.22635,47107
16.23568,49799
16.24503,48992
16.25437,48753
16.26372,47725
16.27305,62185
16.28238,114530
16.29173,183513
16.30107,191764
16.31040,127731
16.31975,66961
16.32908,44921
16.33842,33146
16.34777,30737
16.35710,29287
16.36643,26756
16.37578,27882
16.38512,30382
16.39445,31642
16.40380,33945
16.41313,37387
16.42247,34550
16.43182,33790
16.44115,37107
16.45050,39061
16.45983,39125
16.46917,36174
16.47852,35985
16.48785,34486
16.49718,33957
16.50653,35098
16.51587,35445
16.52520,35492
16.53455,31217
16.54388,30317
16.55322,30680
16.56257,30737
16.57190,32444
16.58123,34198
16.59058,32879
16.59992,30495
16.60925,35032
16.61860,38487
16.62793,41312
16.63728,40160
16.64662,36587
16.65595,33068
16.66530,32085
16.67463,32675
16.68397,40864
16.69332,43914
16.70265,41153
16.71198,35649
16.72133,35911
16.73067,43513
16.74000,69290
16.74935,77341
16.75868,65959
16.76802,43598
16.77737,33313
16.78670,31231
16.79605,29206
16.80538,32094
16.81472,35726
16.82407,38461
16.83340,38588
16.84273,37794
16.85208,33521
16.86142,29749
16.87075,31570
16.88010,32494
16.88943,34412
16.89877,41929
16.90812,49431
16.91745,51752
16.92678,47272
16.93613,44733
16.94547,44007
16.95480,46102
16.96415,43567
16.97348,39150
16.98283,35452
16.99217,32270
17.00150,32867
17.01085,39086
17.02018,52107
17.02952,65901
17.03887,61128
17.04820,43868
17.05753,40558
17.06688,38275
17.07622,36403
17.08555,33966
17.09490,36111
17.10423,34896
17.11357,36797
17.12292,40580
17.13225,41733
17.14158,40144
17.15093,36456
17.16027,31649
17.16962,33038
17.17895,32916
17.18828,30208
17.19763,30678
17.20697,30144
17.21630,31635
17.22565,31129
17.23498,29302
17.24432,34167
17.25367,36291
17.26300,39150
17.27233,42527
17.28168,40695
17.29102,38788
17.30035,40228
17.30970,45712
17.31903,45040
17.32837,42558
17.33772,41155
17.34705,38149
17.35640,39646
17.36573,59494
17.37507,103765
17.38442,137101
17.39375,110375
17.40308,64868
17.41243,50951
17.42177,45182
17.43110,43807
17.44045,41490
17.44978,40802
17.45912,38854
17.46847,37541
17.47780,70563
17.48713,311733
17.49648,1207927
17.50582,2383967
17.51515,2341736
17.52450,1120119
17.53383,294852
17.54318,76293
17.55252,49567
17.56185,45764
17.57120,46881
17.58053,47608
17.58987,46704
17.59922,42540
17.60855,36590
17.61788,35578
17.62723,36189
17.63657,40446
17.64590,41364
17.65525,46900
17.66458,49512
17.67392,48664
17.68327,50185
17.69260,54426
17.70195,51909
17.71128,45586
17.72062,41089
17.72997,39524
17.73930,41605
17.74863,47148
17.75798,48004
17.76732,46422
17.77665,40612
17.78600,36306
17.79533,31372
17.80467,33252
17.81402,35069
17.82335,34348
17.83268,35406
17.84203,41420
17.85137,47587
17.86070,52024
17.87005,46421
17.87938,42559
17.88873,41826
17.89807,39937
17.90740,35248
17.91675,31497
17.92608,30904
17.93542,32597
17.94477,32744
17.95410,39722
17.96343,40864
17.97278,37995
17.98212,34490
17.99145,32841
18.00080,32761
18.01013,30955
18.01947,32892
18.02882,33470
18.03815,39506
18.04748,43634
18.05683,43586
18.06617,39950
18.07552,32207
18.08485,33257
18.09418,30457
18.10353,36511
18.11287,35747
18.12220,37380
18.13155,37623
18.14088,39354
18.15022,38974
18.15957,38082
18.16890,35826
18.17823,33621
18.18758,32127
18.19692,32807
18.20625,33824
18.21560,32435
18.22493,32422
18.23427,33504
18.24362,30780
18.25295,31874
18.26230,33072
18.27163,38688
18.28097,41075
18.29032,40102
18.29965,42206
18.30898,41955
18.31833,39424
18.32767,42482
18.33700,47329
18.34635,54689
18.35568,53488
18.36502,46143
18.37437,37469
18.38370,35028
18.39303,33079
18.40238,36604
18.41172,36864
18.42107,38598
18.43040,45115
18.43973,47895
18.44908,44840
18.45842,42126
18.46775,35426
18.47710,38465
18.48643,49611
18.49577,64928
18.50512,79528
18.51445,76165
18.52378,59081
18.53313,50928
18.54247,50055
18.55180,48983
18.56115,41995
18.57048,37332
18.57982,32395
18.58917,36053
18.59850,42623
18.60785,44562
18.61718,46678
18.62652,44024
18.63587,44395
18.64520,41991
18.65453,39447
18.66388,38244
18.67322,39677
18.68255,37937
18.69190,39626
18.70123,45964
18.71057,44474
18.71992,46372
18.72925,48079
18.73858,43379
18.74793,39247
18.75727,37963
18.76660,34061
18.77595,32147
18.78528,33967
18.79463,36766
18.80397,36232
18.81330,38111
18.82265,37872
18.83198,35672
18.84132,34447
18.85067,36204
18.86000,32393
18.86933,34173
18.87868,33238
18.88802,35949
18.89735,43106
18.90670,50875
18.91603,52839
18.92537,48378
18.93472,46194
18.94405,54019
18.95338,56695
18.96273,53487
18.97207,47382
18.98142,42077
18.99075,40352
19.00008,37852
19.00943,35325
19.01877,38928
19.02810,43839
19.03745,60664
19.04678,79843
19.05612,87833
19.06547,86414
19.07480,108206
19.08413,123584
19.09348,100874
19.10282,70472
19.11215,49965
19.12150,39662
19.13083,34297
19.14017,33913
19.14952,32736
19.15885,32847
19.16820,34869
19.17753,37031
19.18687,39795
19.19622,43480
19.20555,43902
19.21488,46848
19.22423,43517
19.23357,39510
19.24290,38124
19.25225,34220
19.26158,36439
19.27092,37380
19.28027,40146
19.28960,45051
19.29893,48537
19.30828,58819
19.31762,60508
19.32695,50109
19.33630,43064
19.34563,33921
19.35498,33474
19.36432,33445
19.37365,36106
19.38300,37526
19.39233,44808
19.40167,45281
19.41102,42252
19.42035,36109
19.42968,32400
19.43903,31496
19.44837,31389
19.45770,34084
19.46705,33971
19.47638,39481
19.48572,42584
19.49507,39871
19.50440,36719
19.51375,34140
19.52308,35922
19.53242,34348
19.54177,34771
19.55110,32687
19.56043,35038
19.56978,39687
19.57912,41286
19.58845,40662
19.59780,39195
19.60713,37304
19.61647,37115
19.62582,44686
19.63515,45409
19.64448,40156
19.65383,36415
19.66317,35963
19.67250,34820
19.68185,33688
19.69118,30904
19.70053,35811
19.70987,42901
19.71920,58521
19.72855,65159
19.73788,60457
19.74722,45054
19.75657,42414
19.76590,41932
19.77523,41624
19.78458,41551
19.79392,37898
19.80325,38392
19.81260,36559
19.82193,36364
19.83127,34999
19.84062,32813
19.84995,36169
19.85928,42048
19.86863,51945
19.87797,51567
19.88732,46922
19.89665,39432
19.90598,37980
19.91533,36729
19.92467,35482
19.93400,34341
19.94335,36054
19.95268,36268
19.96202,37675
19.97137,32229
19.98070,31610
19.99003,32855
19.99938,31376
20.00872,34529
20.01805,37369
20.02740,37917
20.03673,40463
20.04607,38090
20.05542,35826
20.06475,35338
20.07410,36740
20.08343,37925
20.09277,33681
20.10212,30570
20.11145,30350
20.12078,30179
20.13013,33363
20.13947,38576
20.14880,43019
20.15815,42426
20.16748,38213
20.17682,33131
20.18617,33290
20.19550,31666
20.20483,33208
20.21418,33774
20.22352,31511
20.23287,30953
20.24220,33118
20.25153,31608
20.26088,32922
20.27022,30457
20.27955,31770
20.28890,32345
20.29823,30682
20.30757,31168
20.31692,29066
20.32625,28659
20.33558,30018
20.34493,32082
20.35427,29592
20.36360,34101
20.37295,30520
20.38228,29582
20.39162,28940
20.40097,28840
20.41030,29668
20.41965,30205
20.42898,29832
20.43832,30891
20.44767,32272
20.45700,35540
20.46633,40954
20.47568,39648
20.48502,36847
20.49435,32583
20.50370,30304
20.51303,30818
20.52237,31042
20.53172,32143
20.54105,35420
20.55038,52523
20.55973,115187
20.56907,220116
20.57840,239067
20.58775,151933
20.59708,72658
20.60643,47101
20.61577,39059
20.62510,38212
20.63445,36114
20.64378,36844
20.65312,39733
20.66247,38188
20.67180,41312
20.68113,40904
20.69048,37519
20.69982,37182
20.70915,38572
20.71850,37570
20.72783,36473
20.73717,35334
20.74652,34537
20.75585,35755
20.76518,32863
20.77453,33565
20.78387,36946
20.79322,36380
20.80255,37738
20.81188,35983
20.82123,34758
20.83057,32167
20.83990,30704
20.84925,31272
20.85858,30217
20.86792,29290
20.87727,33234
20.88660,32617
20.89593,31692
20.90528,31886
20.91462,33381
20.92395,31198
20.93330,29334
20.94263,29808
20.95197,30043
20.96132,30170
20.97065,29469
20.98000,27338
20.98933,29772
20.99867,29945
21.00802,28621
21.01735,29478
21.02668,31538
21.03603,31068
21.04537,30072
21.05470,29788
21.06405,30002
21.07338,30082
21.08272,31791
21.09207,34660
21.10140,34581
21.11073,36698
21.12008,36252
21.12942,30935
21.13877,33226
21.14810,31741
21.15743,32662
21.16678,32699
21.17612,37234
21.18545,40604
21.19480,38554
21.20413,39843
21.21347,36381
21.22282,36032
21.23215,34346
21.24148,35323
21.25083,34346
21.26017,35841
21.26950,41061
21.27885,44728
21.28818,40026
21.29752,37470
21.30687,33009
21.31620,32739
21.32555,30896
21.33488,31582
21.34422,31999
21.35357,32828
21.36290,31440
21.37223,29446
21.38158,30400
21.39092,31243
21.40025,33472
21.40960,34931
21.41893,35256
21.42827,33576
21.43762,33321
21.44695,31058
21.45628,31439
21.46563,33055
21.47497,33259
21.48430,36299
21.49365,34483
21.50298,34628
21.51233,32298
21.52167,29944
21.53100,31877
21.54035,31820
21.54968,33327
21.55902,35649
21.56837,40876
21.57770,42413
21.58703,40677
21.59638,35616
21.60572,36248
21.61505,34542
21.62440,33084
21.63373,33010
21.64307,31173
21.65242,33323
21.66175,34135
21.67108,35266
21.68043,35435
21.68977,35270
21.69912,35170
21.70845,33847
21.71778,37159
21.72713,38876
21.73647,37391
21.74580,34720
21.75515,30669
21.76448,30764
21.77382,29370
21.78317,31865
21.79250,31886
21.80183,33158
21.81118,35897
21.82052,38698
21.82985,38697
21.83920,35456
21.84853,32510
21.85788,34038
21.86722,36359
21.87655,40542
21.88590,44355
21.89523,47321
21.90457,45378
21.91392,42749
21.92325,40258
21.93258,39371
21.94193,35185
21.95127,36828
21.96060,41690
21.96995,46266
21.97928,50752
21.98862,49302
21.99797,44143
22.00730,38469
22.01663,38706
22.02598,35450
22.03532,37685
22.04467,37158
22.05400,34891
22.06333,35632
22.07268,35123
22.08202,36728
22.09135,35288
22.10070,34284
22.11003,33755
22.11937,30838
22.12872,30557
22.13805,34172
22.14738,36601
22.15673,43651
22.16607,45681
22.17540,42170
22.18475,38270
22.19408,35692
22.20342,32840
22.21277,34124
22.22210,32531
22.23145,33365
22.24078,36426
22.25012,33523
22.25947,34378
22.26880,34541
22.27813,37433
22.28748,41736
22.29682,39609
22.30615,37800
22.31550,33904
22.32483,33139
22.33417,34700
22.34352,34909
22.35285,38207
22.36218,35320
22.37153,34887
22.38087,31603
22.39020,33062
22.39955,31998
22.40888,31689
22.41823,31930
22.42757,30194
22.43690,31089
22.44625,32097
22.45558,31609
22.46492,32917
22.47427,30261
22.48360,30447
22.49293,29319
22.50228,29240
22.51162,31933
22.52095,32435
22.53030,31020
22.53963,32303
22.54897,29434
22.55832,30558
22.56765,33408
22.57698,34171
22.58633,34144
22.59567,32994
22.60502,32523
22.61435,33395
22.62368,34111
22.63303,34492
22.64237,30617
22.65170,29838
22.66105,30115
22.67038,30905
22.67972,31166
22.68907,33881
22.69840,34051
22.70773,32796
22.71708,31263
22.72642,34021
22.73575,33184
22.74510,38489
22.75443,40517
22.76378,35581
22.77312,35294
22.78245,32985
22.79180,32859
22.80113,34274
22.81047,33096
22.81982,33799
22.82915,33926
22.83848,32667
22.84783,34295
22.85717,31551
22.86650,30160
22.87585,32122
22.88518,31136
22.89452,29901
22.90387,30402
22.91320,29544
22.92253,30605
22.93188,30421
22.94122,29730
22.95057,30283
22.95990,30403
22.96923,30069
22.97858,30218
22.98792,29286
22.99725,30129
23.00660,29246
23.01593,30115
23.02527,28460
23.03462,30739
23.04395,30173
23.05328,30082
23.06263,29131
23.07197,30348
23.08130,28421
23.09065,29625
23.09998,28243
23.10932,28308
23.11867,28217
23.12800,30609
23.13735,28941
23.14668,29218
23.15602,29158
23.16537,29235
23.17470,28771
23.18403,29230
23.19338,28805
23.20272,27611
23.21205,30375
23.22140,28631
23.23073,28470
23.24007,29343
23.24942,29729
23.25875,29035
23.26808,28182
23.27743,28645
23.28677,27579
23.29610,31119
23.30545,31212
23.31478,35560
23.32413,41205
23.33347,40244
23.34280,38839
23.35215,35601
23.36148,30166
23.37082,29136
23.38017,29342
23.38950,30225
23.39883,30040
23.40818,30049
23.41752,30845
23.42685,31250
23.43620,29491
23.44553,31867
23.45487,32088
23.46422,32928
23.47355,30284
23.48290,31038
23.49223,30250
23.50157,31494
23.51092,31472
23.52025,31576
23.52958,30388
23.53893,30298
23.54827,30982
23.55760,31266
23.56695,29469
23.57628,29871
23.58562,31401
23.59497,29691
23.60430,29775
23.61363,29685
23.62298,29959
23.63232,27803
23.64165,28787
23.65100,30378
23.66033,29081
23.66968,29132
23.67902,29482
23.68835,29627
23.69770,29840
23.70703,29436
23.71637,30906
23.72572,35105
23.73505,35835
23.74438,34078
23.75373,31727
23.76307,29725
23.77240,32157
23.78175,27694
23.79108,29497
23.80042,28897
23.80977,29292
23.81910,29494
23.82843,27831
23.83778,28389
23.84712,28408
23.85647,30117
23.86580,30212
23.87513,30714
23.88448,29383
23.89382,29683
23.90315,31616
23.91250,29677
23.92183,29854
23.93117,29843
23.94052,29264
23.94985,30783
23.95918,30021
23.96853,28644
23.97787,28610
23.98720,28586
23.99655,30260
24.00588,29914
24.01522,29377
24.02457,29117
24.03390,28599
24.04325,27088
24.05258,30109
24.06192,28154
24.07127,28793
24.08060,30526
24.08993,27854
24.09928,28130
24.10862,30233
24.11795,30186
24.12730,29514
24.13663,29615
24.14597,29998
24.15532,29065
24.16465,28456
24.17398,29212
24.18333,27478
24.19267,30261
24.20200,26605
24.21135,29339
24.22068,28992
24.23003,28517
24.23937,28910
24.24870,28825
24.25805,27905
24.26738,27765
24.27672,30013
24.28607,30808
24.29540,30916
24.30473,31095
24.31408,31868
24.32342,35526
24.33275,34745
24.34210,34477
24.35143,32537
24.36077,32208
24.37012,32282
24.37945,31219
24.38878,31804
24.39813,32705
24.40747,30382
24.41682,29981
24.42615,31663
24.43548,29631
24.44483,27981
24.45417,29702
24.46350,30883
24.47285,29424
24.48218,30831
24.49152,29757
24.50087,31620
24.51020,29464
24.51953,31676
24.52888,31581
24.53822,31768
24.54755,32756
24.55690,33099
24.56623,32140
24.57558,32080
24.58492,33094
24.59425,32540
24.60360,33283
24.61293,32017
24.62227,34750
24.63162,32836
24.64095,32479
24.65028,31920
24.65963,33738
24.66897,32191
24.67830,34495
24.68765,32989
24.69698,31554
24.70632,31050
24.71567,30278
24.72500,33840
24.73433,30503
24.74368,31683
24.75302,30772
24.76237,31942
24.77170,30743
24.78103,32739
24.79038,31929
24.79972,31091
24.80905,30801
24.81840,34740
24.82773,33244
24.83707,32094
24.84642,31606
24.85575,33069
24.86508,33692
24.87443,33349
24.88377,36018
24.89310,33671
24.90245,33748
24.91178,32514
24.92112,32299
24.93047,32619
24.93980,32417
24.94915,35617
24.95848,34909
24.96782,34064
24.97717,34369
24.98650,30829
24.99583,32034
25.00518,29401
25.01452,33165
25.02385,31810
25.03320,31425
25.04253,30843
25.05187,34396
25.06122,31550
25.07055,30963
25.07988,32199
25.08923,32014
25.09857,31747
25.10790,31389
25.11725,33536
25.12658,31756
25.13593,33650
25.14527,35254
25.15460,34320
25.16395,34674
25.17328,35288
25.18262,35821
25.19197,34976
25.20130,34260
25.21063,34029
25.21998,35353
25.22932,34169
25.23865,33555
25.24800,34053
25.25733,34358
25.26667,34061
25.27602,36420
25.28535,34871
25.29470,35780
25.30403,34030
25.31337,34740
25.32272,35709
25.33205,35130
25.34138,43542
25.35073,48552
25.36007,47045
25.36940,45585
25.37875,44942
25.38808,43982
25.39742,43615
25.40677,40917
25.41610,41195
25.42543,40449
25.43478,39700
25.44412,38125
25.45345,37995
25.46280,38569
25.47213,39927
25.48148,42671
25.49082,42410
25.50015,43422
25.50950,41139
25.51883,38210
25.52817,40213
25.53752,38862
25.54685,38513
25.55618,38136
25.56553,41828
25.57487,38975
25.58420,39434
25.59355,38355
25.60288,37845
25.61222,38330
25.62157,38819
25.63090,38241
25.64023,40036
25.64958,40357
25.65892,40460
25.66827,41299
25.67760,39402
25.68693,40006
25.69628,36992
25.70562,38489
25.71495,39544
25.72430,40234
25.73363,39778
25.74297,39569
25.75232,40299
25.76165,42100
25.77098,41397
25.78033,41061
25.78967,41957
25.79900,41413
25.80835,41359
25.81768,39871
25.82702,43166
25.83637,44939
25.84570,40777
25.85505,41996
25.86438,40622
25.87372,40358
25.88307,40080
25.89240,40095
25.90173,41711
25.91108,40141
25.92042,41233
25.92975,39710
25.93910,39586
25.94843,41143
25.95777,38878
25.96712,37597
25.97645,40937
25.98578,39113
25.99513,39919
26.00447,40759
26.01380,41510
26.02315,41169
26.03248,41515
26.04183,40586
26.05117,41971
26.06050,42592
26.06985,42118
26.07918,39371
26.08852,39616
26.09787,43314
26.10720,41313
26.11653,42055
26.12588,45551
26.13522,44388
26.14455,45626
26.15390,43458
26.16323,43413
26.17257,41899
26.18192,41270
26.19125,43111
26.20060,44483
26.20993,43563
26.21927,41831
26.22862,43762
26.23795,42546
26.24728,42560
26.25663,44683
26.26597,42416
26.27530,44478
26.28465,42501
26.29398,45122
26.30332,43930
26.31267,44665
26.32200,41024
26.33133,44697
26.34068,42855
26.35002,45761
26.35935,45491
26.36870,44657
26.37803,42526
26.38738,43293
26.39672,44114
26.40605,44127
26.41540,45901
26.42473,44953
26.43407,48605
26.44342,46836
26.45275,46281
26.46208,47555
26.47143,47284
26.48077,48371
26.49010,49186
26.49945,48872
26.50878,49104
26.51812,47848
26.52747,47387
26.53680,47238
26.54613,47197
26.55548,49479
26.56482,46976
26.57417,47099
26.58350,47524
26.59283,50706
26.60218,48812
26.61152,49673
26.62085,50270
26.63020,49237
26.63953,50034
26.64887,49542
26.65822,50534
26.66755,51828
26.67688,49176
26.68623,51180
26.69557,50057
26.70490,48396
26.71425,49147
26.72358,48777
26.73292,49562
26.74227,49870
26.75160,49451
26.76095,51281
26.77028,50922
26.77962,51561
26.78897,51791
26.79830,54258
26.80763,52144
26.81698,51967
26.82632,52308
26.83565,52027
26.84500,51409
26.85433,52059
26.86367,50745
26.87302,53760
26.88235,50571
26.89168,51301
26.90103,53115
26.91037,51575
26.91972,51981
26.92905,54381
26.93838,53894
26.94773,53213
26.95707,52637
26.96640,51131
26.97575,52993
26.98508,51185
26.99442,55816
27.00377,55053
27.01310,54634
27.02243,55494
27.03178,53835
27.04112,55523
27.05045,54918
27.05980,55703
27.06913,54686
27.07847,53762
27.08782,56655
27.09715,55596
27.10650,57722
27.11583,58103
27.12517,57547
27.13452,56902
27.14385,56321
27.15318,57691
27.16253,56098
27.17187,58775
27.18120,59970
27.19055,56015
27.19988,59398
27.20922,57172
27.21857,58752
27.22790,59823
27.23723,58332
27.24658,63533
27.25592,61487
27.26525,62564
27.27460,61360
27.28393,62123
27.29328,60083
27.30262,61177
27.31195,60505
27.32130,61067
27.33063,61216
27.33997,62800
27.34932,62676
27.35865,61393
27.36798,58640
27.37733,58621
27.38667,61372
27.39600,61771
27.40535,61758
27.41468,63328
27.42402,64610
27.43337,63016
27.44270,62911
27.45203,61937
27.46138,63755
27.47072,62157
27.48007,65873
27.48940,64832
27.49873,65149
27.50808,64102
27.51742,63688
27.52675,63803
27.53610,64671
27.54543,67453
27.55477,63374
27.56412,65905
27.57345,63139
27.58278,63547
27.59213,65157
27.60147,66473
27.61080,66121
27.62015,68189
27.62948,66437
27.63882,69662
27.64817,70589
27.65750,67423
27.66685,69709
27.67618,70502
27.68552,69191
27.69487,67499
27.70420,67845
27.71353,69464
27.72288,69912
27.73222,71509
27.74155,73124
27.75090,72205
27.76023,73801
27.76957,75315
27.77892,74516
27.78825,75850
27.79758,73464
27.80693,75291
27.81627,72763
27.82560,73167
27.83495,75463
27.84428,77696
27.85363,75566
27.86297,74234
27.87230,76904
27.88165,74695
27.89098,75753
27.90032,75758
27.90967,76827
27.91900,75566
27.92833,76860
27.93768,74642
27.94702,77760
27.95635,76367
27.96570,76796
27.97503,76431
27.98437,74672
27.99372,77225
28.00305,77128
28.01240,76604
28.02173,79054
28.03107,77370
28.04042,79503
28.04975,80035
28.05908,76904
28.06843,81299
28.07777,79359
28.08710,83095
28.09645,80345
28.10578,81914
28.11512,85988
28.12447,81996
28.13380,86437
28.14313,83236
28.15248,82806
28.16182,83114
28.17115,85553
28.18050,85402
28.18983,85871
28.19918,83963
28.20852,86225
28.21785,83597
28.22720,84541
28.23653,85545
28.24587,84192
28.25522,84803
28.26455,87140
28.27388,84330
28.28323,84230
28.29257,87011
28.30190,86934
28.31125,86404
28.32058,84897
28.32992,85200
28.33927,88488
28.34860,86068
28.35793,90276
28.36728,89477
28.37662,93412
28.38597,90807
28.39530,90180
28.40463,91651
28.41398,90953
28.42332,91857
28.43265,92781
28.44200,94757
28.45133,91277
28.46067,92978
28.47002,93436
28.47935,94282
28.48868,92257
28.49803,93558
28.50737,95180
28.51670,95389
28.52605,97551
28.53538,96585
28.54472,94793
28.55407,100962
28.56340,98668
28.57275,97493
28.58208,98831
28.59142,98163
28.60077,96080
28.61010,98426
28.61943,101007
28.62878,98676
28.63812,98037
28.64745,105599
28.65680,106028
28.66613,114382
28.67547,123408
28.68482,120994
28.69415,117168
28.70348,112921
28.71283,108986
28.72217,112126
28.73152,107905
28.74085,108064
28.75018,109747
28.75953,107316
28.76887,107140
28.77820,112703
28.78755,106847
28.79688,105294
28.80622,108538
28.81557,106494
28.82490,107410
28.83423,111388
28.84358,113878
28.85292,112700
28.86225,112215
28.87160,110065
28.88093,111018
28.89027,108596
28.89962,112531
28.90895,111907
28.91830,112910
28.92763,113794
28.93697,111941
28.94632,113878
28.95565,115611
28.96498,114052
28.97433,116474
28.98367,117030
28.99300,114696
29.00235,116676
29.01168,116402
29.02102,118392
29.03037,119794
29.03970,121269
29.04903,117191
29.05838,122445
29.06772,118789
29.07705,120622
29.08640,117391
29.09573,118824
29.10508,120905
29.11442,121803
29.12375,120524
29.13310,119652
29.14243,118147
29.15177,121731
29.16112,121753
29.17045,123155
29.17978,127194
29.18913,126094
29.19847,126047
29.20780,126372
29.21715,125929
29.22648,122672
29.23582,120927
29.24517,123746
29.25450,125312
29.26383,122591
29.27318,126658
29.28252,122414
29.29187,126595
29.30120,129083
29.31053,126797
29.31988,127487
29.32922,127200
29.33855,127639
29.34790,130468
29.35723,128872
29.36657,128820
29.37592,126904
29.38525,128259
29.39458,128671
29.40393,132789
29.41327,130477
29.42260,126650
29.43195,133355
29.44128,133305
29.45062,135582
29.45997,139542
29.46930,136639
29.47865,140175
29.48798,137655
29.49732,137664
29.50667,136443
29.51600,133200
29.52533,133896
29.53468,137103
29.54402,134902
29.55335,135996
29.56270,136317
29.57203,139132
29.58137,135692
29.59072,133852
29.60005,135122
29.60938,135295
29.61873,139412
29.62807,135979
29.63740,136810
29.64675,137804
29.65608,135509
29.66543,136893
29.67477,137291
29.68410,139311
29.69345,138561
29.70278,140803
29.71212,137463
29.72147,138239
29.73080,138793
29.74013,143177
29.74948,140425
29.75882,139056
29.76815,137860
29.77750,139853
29.78683,139624
29.79617,142970
29.80552,140004
29.81485,141865
29.82420,140309
29.83353,141906
29.84287,139449
29.85222,138783
29.86155,142532
29.87088,144824
29.88023,144546
29.88957,140464
29.89890,143694
29.90825,138783
29.91758,142978
29.92692,144260
29.93627,143324
29.94560,144761
29.95493,142033
29.96428,145076
29.97362,142249
29.98295,147223
29.99230,145971
30.00163,144658
30.01098,146608
30.02032,145603
30.02965,141087
30.03900,147152
30.04833,147291
30.05767,145594
30.06702,148766
30.07635,148998
30.08568,147689
30.09503,149685
30.10437,148281
30.11370,148249
30.12305,150822
30.13238,149140
30.14172,150006
30.15107,151727
30.16040,146963
30.16973,146478
30.17908,150880
30.18842,150377
30.19777,148203
30.20710,147391
30.21643,150325
30.22578,152104
30.23512,150933
30.24445,150505
30.25380,151219
30.26313,150819
30.27247,149770
30.28182,150791
30.29115,145226
30.30048,152151
30.30983,154422
30.31917,151688
30.32850,151387
30.33785,154927
30.34718,156308
30.35652,158332
30.36587,159551
30.37520,161748
30.38455,166431
30.39388,162032
30.40322,164818
30.41257,161859
30.42190,160381
30.43123,158776
30.44058,159394
30.44992,156048
30.45925,160320
30.46860,156968
30.47793,160598
30.48727,156570
30.49662,155762
30.50595,157660
30.51528,156969
30.52463,156851
30.53397,155806
30.54332,154465
30.55265,157269
30.56198,158263
30.57133,158056
30.58067,163221
30.59000,161670
30.59935,161917
30.60868,165661
30.61802,165344
30.62737,170077
30.63670,170192
30.64603,170919
30.65538,171627
30.66472,174702
30.67405,170851
30.68340,173099
30.69273,175372
30.70207,172052
30.71142,168088
30.72075,167363
30.73010,163687
30.73943,163424
30.74877,165952
30.75812,164727
30.76745,166155
30.77678,160249
30.78613,167048
30.79547,166514
30.80480,166097
30.81415,165145
30.82348,165417
30.83282,166922
30.84217,165696
30.85150,163604
30.86083,163972
30.87018,165773
30.87952,164224
30.88885,169315
30.89820,167228
30.90753,166769
30.91688,164915
30.92622,168284
30.93555,168910
30.94490,166917
30.95423,171610
30.96357,167810
30.97292,170855
30.98225,171517
30.99158,169744
31.00093,168720
31.01027,173717
31.01960,166600
31.02895,170056
31.03828,171916
31.04762,170779
31.05697,170294
31.06630,171390
31.07563,170909
31.08498,167482
31.09432,167672
31.10367,173431
31.11300,166804
31.12233,170370
31.13168,171336
31.14102,171359
31.15035,167178
31.15970,169265
31.16903,170263
31.17837,167705
31.18772,169345
31.19705,167569
31.20638,171530
31.21573,167701
31.22507,172131
31.23440,170696
31.24375,169369
31.25308,172991
31.26242,172759
31.27177,169716
31.28110,170690
31.29045,173621
31.29978,169528
31.30912,174266
31.31847,175631
31.32780,172047
31.33713,174289
31.34648,173307
31.35582,172807
31.36515,176822
