D:\数据\20220412\TEST5-SDHX-1.D Wed Apr 13 01:00:56 2022
Start of data points
0.09748,16210
0.10682,17496
0.11617,18453
0.12550,17532
0.13483,19112
0.14418,18019
0.15352,18312
0.16285,18386
0.17220,18268
0.18153,16801
0.19088,18413
0.20022,17388
0.20955,17663
0.21890,16840
0.22823,17191
0.23757,16679
0.24692,16485
0.25625,17925
0.26558,17635
0.27493,17230
0.28427,17724
0.29360,17144
0.30295,17060
0.31228,16434
0.32162,16993
0.33097,17112
0.34030,16419
0.34963,17569
0.35898,16234
0.36832,17542
0.37767,17712
0.38700,17506
0.39633,17240
0.40568,15337
0.41502,13230
0.42435,11185
0.43370,8372
0.44303,5431
0.45237,4028
0.46172,4558
0.47105,3966
0.48038,3921
0.48973,4302
0.49907,3418
0.50840,3904
0.51775,4384
0.52708,3987
0.53642,4401
0.54577,3298
0.55510,3888
0.56445,3587
0.57378,3483
0.58312,3455
0.59247,3394
0.60180,3826
0.61113,4223
0.62048,4118
0.62982,3587
0.63915,3777
0.64850,4065
0.65783,3556
0.66717,3758
0.67652,3324
0.68585,3142
0.69518,3157
0.70453,3136
0.71387,3540
0.72320,3376
0.73255,3021
0.74188,2788
0.75123,3461
0.76057,3668
0.76990,3172
0.77925,3848
0.78858,3196
0.79792,3098
0.80727,3851
0.81660,3435
0.82593,2989
0.83528,3425
0.84462,3359
0.85395,2993
0.86330,3580
0.87263,3067
0.88197,3167
0.89132,3168
0.90065,3418
0.91000,3168
0.91933,3461
0.92867,3162
0.93802,3519
0.94735,3589
0.95668,3397
0.96603,3492
0.97537,3239
0.98470,3206
0.99405,3140
1.00338,2945
1.01272,3354
1.02207,3100
1.03140,3214
1.04073,3493
1.05008,2963
1.05942,2892
1.06875,3514
1.07810,3088
1.08743,2787
1.09678,3438
1.10612,3495
1.11545,3265
1.12480,2369
1.13413,2916
1.14347,2875
1.15282,2738
1.16215,3111
1.17148,2679
1.18083,3791
1.19017,3095
1.19950,2752
1.20885,3373
1.21818,3300
1.22752,3244
1.23687,3730
1.24620,3154
1.25553,2749
1.26488,2961
1.27422,3427
1.28357,2764
1.29290,2872
1.30223,2882
1.31158,3484
1.32092,3040
1.33025,3263
1.33960,3652
1.34893,3295
1.35827,3100
1.36762,3346
1.37695,2712
1.38628,3232
1.39563,3061
1.40497,2965
1.41430,3155
1.42365,2599
1.43298,3183
1.44232,2924
1.45167,2983
1.46100,3139
1.47035,3172
1.47968,2580
1.48902,3218
1.49837,3342
1.50770,3420
1.51703,3234
1.52638,2925
1.53572,3012
1.54505,2756
1.55440,2781
1.56373,3070
1.57307,3209
1.58242,4533
1.59175,7539
1.60108,12725
1.61043,15704
1.61977,20894
1.62912,29957
1.63845,38725
1.64778,42660
1.65713,38082
1.66647,33505
1.67580,27421
1.68515,23155
1.69448,18535
1.70382,14009
1.71317,12514
1.72250,13145
1.73183,15435
1.74118,16944
1.75052,17524
1.75985,19070
1.76920,20011
1.77853,19431
1.78787,21206
1.79722,21197
1.80655,21413
1.81590,21243
1.82523,21061
1.83457,20896
1.84392,20873
1.85325,21084
1.86258,21161
1.87193,25226
1.88127,39848
1.89060,63878
1.89995,95158
1.90928,112633
1.91862,129687
1.92797,156821
1.93730,198810
1.94663,221987
1.95598,221601
1.96532,195966
1.97465,153839
1.98400,116394
1.99333,92350
2.00268,75196
2.01202,65904
2.02135,77301
2.03070,94103
2.04003,84911
2.04937,66143
2.05872,56867
2.06805,50021
2.07738,46526
2.08673,44632
2.09607,39230
2.10540,34976
2.11475,39306
2.12408,52049
2.13342,95084
2.14277,186489
2.15210,224538
2.16143,182434
2.17078,130638
2.18012,118410
2.18947,223791
2.19880,308236
2.20813,221064
2.21748,123853
2.22682,90983
2.23615,123364
2.24550,332208
2.25483,1490978
2.26417,3120540
2.27352,3263029
2.28285,2396903
2.29218,1465078
2.30153,992970
2.31087,1879804
2.32020,4313612
2.32955,4542566
2.33888,2649240
2.34822,1174622
2.35757,529858
2.36690,273931
2.37625,174536
2.38558,132613
2.39492,97503
2.40427,85018
2.41360,84674
2.42293,86811
2.43228,76520
2.44162,63952
2.45095,54406
2.46030,51758
2.46963,52966
2.47897,52481
2.48832,48936
2.49765,43748
2.50698,41184
2.51633,39375
2.52567,38620
2.53502,38034
2.54435,40378
2.55368,44723
2.56303,59352
2.57237,79898
2.58170,79622
2.59105,72263
2.60038,72228
2.60972,80910
2.61907,126182
2.62840,164596
2.63773,146968
2.64708,127275
2.65642,109891
2.66575,81845
2.67510,60469
2.68443,45835
2.69377,40546
2.70312,40093
2.71245,66057
2.72180,155057
2.73113,229519
2.74047,199027
2.74982,134292
2.75915,98809
2.76848,95646
2.77783,104720
2.78717,114653
2.79650,107410
2.80585,94859
2.81518,92711
2.82452,95158
2.83387,93766
2.84320,190521
2.85253,600193
2.86188,1145054
2.87122,1120501
2.88055,661219
2.88990,304559
2.89923,149845
2.90858,87086
2.91792,67075
2.92725,54136
2.93660,45831
2.94593,43104
2.95527,39762
2.96462,37479
2.97395,37224
2.98328,38495
2.99263,42834
3.00197,46514
3.01130,51715
3.02065,107543
3.02998,271810
3.03932,311083
3.04867,231560
3.05800,159729
3.06733,126680
3.07668,102097
3.08602,79030
3.09537,59229
3.10470,45527
3.11403,38586
3.12338,37697
3.13272,35900
3.14205,46558
3.15140,80166
3.16073,139307
3.17007,154068
3.17942,108428
3.18875,66237
3.19808,47401
3.20743,40061
3.21677,34683
3.22610,34435
3.23545,34249
3.24478,31116
3.25413,33284
3.26347,32481
3.27280,32284
3.28215,30737
3.29148,30875
3.30082,32209
3.31017,34784
3.31950,31848
3.32883,29771
3.33818,30010
3.34752,30764
3.35685,30284
3.36620,28501
3.37553,29281
3.38487,28573
3.39422,30020
3.40355,31167
3.41288,39212
3.42223,43565
3.43157,42310
3.44092,39860
3.45025,40789
3.45958,37373
3.46893,33244
3.47827,33298
3.48760,32763
3.49695,31747
3.50628,30758
3.51562,31082
3.52497,30404
3.53430,29623
3.54363,45351
3.55298,96568
3.56232,198486
3.57165,259807
3.58100,215907
3.59033,138527
3.59967,97718
3.60902,86089
3.61835,69072
3.62770,56788
3.63703,49477
3.64637,42112
3.65572,38493
3.66505,37440
3.67438,38305
3.68373,36788
3.69307,35267
3.70240,32184
3.71175,33633
3.72108,38745
3.73042,41000
3.73977,39181
3.74910,33794
3.75843,30990
3.76778,29440
3.77712,27222
3.78645,28429
3.79580,32913
3.80513,38915
3.81448,44539
3.82382,47826
3.83315,44541
3.84250,37809
3.85183,34875
3.86117,33198
3.87052,32621
3.87985,32124
3.88918,36638
3.89853,44788
3.90787,45596
3.91720,42245
3.92655,38581
3.93588,42307
3.94522,45818
3.95457,46628
3.96390,42219
3.97323,36011
3.98258,33069
3.99192,30571
4.00127,29056
4.01060,29927
4.01993,33267
4.02928,55274
4.03862,122806
4.04795,190576
4.05730,182378
4.06663,120497
4.07597,81595
4.08532,67051
4.09465,65675
4.10398,57221
4.11333,44995
4.12267,37782
4.13200,32678
4.14135,30860
4.15068,28785
4.16003,30243
4.16937,28392
4.17870,28664
4.18805,28965
4.19738,26942
4.20672,28355
4.21607,29746
4.22540,29603
4.23473,28544
4.24408,28396
4.25342,28406
4.26275,31693
4.27210,29381
4.28143,29599
4.29077,30211
4.30012,27689
4.30945,30442
4.31878,40009
4.32813,45550
4.33747,42509
4.34682,39441
4.35615,33618
4.36548,30048
4.37483,28226
4.38417,28117
4.39350,27826
4.40285,27102
4.41218,27379
4.42152,26064
4.43087,26084
4.44020,25107
4.44953,26624
4.45888,26717
4.46822,34249
4.47755,38527
4.48690,40714
4.49623,36298
4.50557,31987
4.51492,26878
4.52425,26391
4.53360,27308
4.54293,25835
4.55227,27621
4.56162,25184
4.57095,24720
4.58028,25722
4.58963,25190
4.59897,27868
4.60830,27978
4.61765,24962
4.62698,24828
4.63632,27564
4.64567,27423
4.65500,28423
4.66433,28375
4.67368,27721
4.68302,32389
4.69235,42251
4.70170,54295
4.71103,52786
4.72038,44733
4.72972,37117
4.73905,32763
4.74840,28909
4.75773,27917
4.76707,27474
4.77642,26772
4.78575,28703
4.79508,27612
4.80443,28571
4.81377,31708
4.82310,33358
4.83245,30786
4.84178,30165
4.85112,27976
4.86047,31815
4.86980,39423
4.87915,45148
4.88848,42926
4.89782,37276
4.90717,31878
4.91650,31816
4.92583,29107
4.93518,29699
4.94452,31168
4.95385,31184
4.96320,27528
4.97253,25952
4.98187,25272
4.99122,26744
5.00055,27201
5.00988,28588
5.01923,31502
5.02857,32588
5.03790,33298
5.04725,29689
5.05658,27000
5.06593,26367
5.07527,26567
5.08460,26143
5.09395,26964
5.10328,25516
5.11262,25090
5.12197,25093
5.13130,25547
5.14063,27024
5.14998,25533
5.15932,26275
5.16865,26372
5.17800,27304
5.18733,29922
5.19667,28444
5.20602,26430
5.21535,24859
5.22468,24311
5.23403,26529
5.24337,27358
5.25272,28703
5.26205,31710
5.27138,47992
5.28073,89933
5.29007,129668
5.29940,125814
5.30875,84071
5.31808,52912
5.32742,38264
5.33677,33804
5.34610,29539
5.35543,27517
5.36478,25900
5.37412,24589
5.38345,28405
5.39280,32003
5.40213,31251
5.41147,30694
5.42082,27281
5.43015,26149
5.43950,23746
5.44883,24445
5.45817,23628
5.46752,24739
5.47685,24432
5.48618,27520
5.49553,25426
5.50487,25627
5.51420,27752
5.52355,27576
5.53288,30036
5.54222,29813
5.55157,27599
5.56090,26564
5.57023,27417
5.57958,25748
5.58892,24794
5.59825,25268
5.60760,25198
5.61693,23787
5.62628,22898
5.63562,24372
5.64495,23835
5.65430,24377
5.66363,23407
5.67297,26202
5.68232,26534
5.69165,26440
5.70098,27903
5.71033,30854
5.71967,31456
5.72900,29774
5.73835,28208
5.74768,32374
5.75702,34893
5.76637,34115
5.77570,31195
5.78503,27887
5.79438,24906
5.80372,25904
5.81307,25340
5.82240,25447
5.83173,28083
5.84108,28562
5.85042,25707
5.85975,28081
5.86910,27614
5.87843,26099
5.88777,26765
5.89712,25077
5.90645,29892
5.91578,41923
5.92513,58671
5.93447,56876
5.94380,47771
5.95315,40277
5.96248,33392
5.97183,25768
5.98117,21565
5.99050,20799
5.99985,21201
6.00918,23473
6.01852,23677
6.02787,22979
6.03720,21452
6.04653,20847
6.05588,20248
6.06522,18514
6.07455,15912
6.08390,14422
6.09323,11952
6.10257,11599
6.11192,12303
6.12125,18027
6.13058,26354
6.13993,27821
6.14927,23913
6.15862,16049
6.16795,12192
6.17728,12157
6.18663,11800
6.19597,11167
6.20530,11457
6.21465,10687
6.22398,11942
6.23332,13373
6.24267,13333
6.25200,13505
6.26133,15989
6.27068,20961
6.28002,21870
6.28935,15082
6.29870,13156
6.30803,11040
6.31737,11150
6.32672,10533
6.33605,9549
6.34540,9647
6.35473,10567
6.36407,10696
6.37342,13624
6.38275,21651
6.39208,57538
6.40143,166485
6.41077,296049
6.42010,288232
6.42945,154469
6.43878,54370
6.44812,20828
6.45747,14965
6.46680,12539
6.47613,12279
6.48548,12997
6.49482,12223
6.50415,13003
6.51350,12136
6.52283,12104
6.53218,13287
6.54152,11068
6.55085,9840
6.56020,10341
6.56953,11345
6.57887,10083
6.58822,10767
6.59755,11932
6.60688,12057
6.61623,10645
6.62557,12877
6.63490,12397
6.64425,12688
6.65358,12370
6.66292,13536
6.67227,13766
6.68160,13565
6.69095,14361
6.70028,14302
6.70962,13143
6.71897,13396
6.72830,12590
6.73763,11649
6.74698,10699
6.75632,10631
6.76565,11512
6.77500,11538
6.78433,13648
6.79367,13591
6.80302,14860
6.81235,13679
6.82168,12141
6.83103,10795
6.84037,10118
6.84970,9826
6.85905,9455
6.86838,10692
6.87773,10612
6.88707,10500
6.89640,10457
6.90575,13086
6.91508,14195
6.92442,13694
6.93377,11546
6.94310,11174
6.95243,11045
6.96178,12773
6.97112,12207
6.98045,10515
6.98980,10962
6.99913,11131
7.00847,11530
7.01782,12758
7.02715,11471
7.03648,10250
7.04583,11017
7.05517,11076
7.06452,9520
7.07385,8952
7.08318,9565
7.09253,8924
7.10187,10456
7.11120,11755
7.12055,11838
7.12988,11719
7.13922,11346
7.14857,11911
7.15790,11194
7.16723,8723
7.17658,10286
7.18592,9125
7.19525,9706
7.20460,10693
7.21393,11526
7.22327,18182
7.23262,34015
7.24195,47500
7.25130,44692
7.26063,28252
7.26997,19982
7.27932,18216
7.28865,16935
7.29798,15048
7.30733,13692
7.31667,10454
7.32600,10076
7.33535,9692
7.34468,10284
7.35402,9199
7.36337,10022
7.37270,11251
7.38203,17801
7.39138,35390
7.40072,73111
7.41005,98907
7.41940,93603
7.42873,62083
7.43808,35007
7.44742,21081
7.45675,14209
7.46610,13240
7.47543,14707
7.48477,14592
7.49412,13583
7.50345,12675
7.51278,10983
7.52213,11301
7.53147,9074
7.54080,11437
7.55015,11180
7.55948,12366
7.56882,13401
7.57817,12396
7.58750,11437
7.59685,12223
7.60618,11693
7.61552,11529
7.62487,12147
7.63420,11796
7.64353,11615
7.65288,11310
7.66222,10030
7.67155,11768
7.68090,24695
7.69023,90023
7.69957,236725
7.70892,340717
7.71825,252160
7.72758,101171
7.73693,34726
7.74627,16739
7.75560,14968
7.76495,14421
7.77428,14399
7.78363,15077
7.79297,14871
7.80230,13154
7.81165,12333
7.82098,11762
7.83032,12371
7.83967,11872
7.84900,16586
7.85833,28425
7.86768,40398
7.87702,42091
7.88635,32365
7.89570,23715
7.90503,30526
7.91437,46991
7.92372,52502
7.93305,44469
7.94238,33199
7.95173,28627
7.96107,26913
7.97042,22631
7.97975,20713
7.98908,20142
7.99843,17629
8.00777,15221
8.01710,14741
8.02645,15866
8.03578,20138
8.04512,25537
8.05447,21619
8.06380,17315
8.07313,14014
8.08248,15220
8.09182,17168
8.10115,18857
8.11050,18458
8.11983,17404
8.12917,14743
8.13852,14031
8.14785,15015
8.15720,15080
8.16653,13339
8.17587,12790
8.18522,12691
8.19455,14276
8.20388,13782
8.21323,14115
8.22257,15483
8.23190,13971
8.24125,15357
8.25058,15837
8.25992,15283
8.26927,14442
8.27860,13543
8.28793,13468
8.29728,11720
8.30662,11993
8.31597,12118
8.32530,11272
8.33463,11088
8.34398,11526
8.35332,11405
8.36265,11775
8.37200,11226
8.38133,11320
8.39067,13207
8.40002,14138
8.40935,16461
8.41868,17057
8.42803,15846
8.43737,15830
8.44670,12914
8.45605,14750
8.46538,14972
8.47472,13934
8.48407,13671
8.49340,14635
8.50275,14610
8.51208,12934
8.52142,13481
8.53077,15219
8.54010,15111
8.54943,14843
8.55878,14985
8.56812,13658
8.57745,13993
8.58680,14316
8.59613,15658
8.60547,16358
8.61482,16520
8.62415,15969
8.63348,15695
8.64283,15583
8.65217,16117
8.66150,16759
8.67085,17078
8.68018,15208
8.68953,14578
8.69887,15944
8.70820,15814
8.71755,15265
8.72688,15414
8.73622,16673
8.74557,19952
8.75490,20874
8.76423,19888
8.77358,19109
8.78292,17270
8.79225,27314
8.80160,48374
8.81093,61989
8.82027,58308
8.82962,34008
8.83895,19957
8.84828,17077
8.85763,16337
8.86697,15033
8.87632,16313
8.88565,16496
8.89498,16590
8.90433,14395
8.91367,15573
8.92300,17434
8.93235,17111
8.94168,16722
8.95102,14333
8.96037,15471
8.96970,14171
8.97903,13669
8.98838,14252
8.99772,14410
9.00705,15040
9.01640,15857
9.02573,14434
9.03507,15420
9.04442,15905
9.05375,15786
9.06310,16488
9.07243,18001
9.08177,19024
9.09112,21039
9.10045,19172
9.10978,16174
9.11913,16922
9.12847,20952
9.13780,25637
9.14715,23224
9.15648,17878
9.16582,15693
9.17517,16003
9.18450,14837
9.19383,15872
9.20318,16459
9.21252,19502
9.22187,27517
9.23120,36484
9.24053,34827
9.24988,25297
9.25922,17927
9.26855,16006
9.27790,14940
9.28723,15002
9.29657,15024
9.30592,15626
9.31525,19501
9.32458,23802
9.33393,27598
9.34327,24956
9.35260,30339
9.36195,58478
9.37128,97152
9.38062,102077
9.38997,76361
9.39930,53389
9.40865,36462
9.41798,31165
9.42732,28387
9.43667,23503
9.44600,19004
9.45533,16974
9.46468,16452
9.47402,15043
9.48335,16796
9.49270,18232
9.50203,17617
9.51137,17328
9.52072,16884
9.53005,17617
9.53938,20679
9.54873,24092
9.55807,29113
9.56740,32263
9.57675,28619
9.58608,23747
9.59543,22662
9.60477,22816
9.61410,18130
9.62345,17781
9.63278,15802
9.64212,15848
9.65147,15924
9.66080,15418
9.67013,15631
9.67948,15666
9.68882,15695
9.69815,14686
9.70750,15673
9.71683,26264
9.72617,67467
9.73552,168492
9.74485,315190
9.75418,362642
9.76353,279813
9.77287,176724
9.78222,116231
9.79155,83533
9.80088,65547
9.81023,55290
9.81957,52620
9.82890,54626
9.83825,57090
9.84758,56360
9.85692,45794
9.86627,39575
9.87560,38329
9.88493,45325
9.89428,51377
9.90362,52773
9.91295,51350
9.92230,50056
9.93163,41698
9.94098,31730
9.95032,28751
9.95965,36960
9.96900,97260
9.97833,250930
9.98767,409661
9.99702,345738
10.00635,170515
10.01568,66226
10.02503,32432
10.03437,26853
10.04370,26075
10.05305,27614
10.06238,33270
10.07172,36784
10.08107,36567
10.09040,30644
10.09973,37574
10.10908,104372
10.11842,271188
10.12777,425492
10.13710,395941
10.14643,479281
10.15578,1065264
10.16512,1528176
10.17445,1093463
10.18380,395698
10.19313,96805
10.20247,36096
10.21182,28051
10.22115,25806
10.23048,27458
10.23983,30553
10.24917,31283
10.25850,24000
10.26785,21588
10.27718,22584
10.28652,21854
10.29587,22049
10.30520,20688
10.31455,20585
10.32388,19016
10.33322,18510
10.34257,17208
10.35190,18619
10.36123,18715
10.37058,18410
10.37992,16854
10.38925,15846
10.39860,16607
10.40793,17231
10.41727,21962
10.42662,21127
10.43595,24213
10.44528,29966
10.45463,41057
10.46397,44586
10.47330,36411
10.48265,23518
10.49198,18210
10.50133,17547
10.51067,17256
10.52000,17515
10.52935,16665
10.53868,17678
10.54802,17201
10.55737,18656
10.56670,18630
10.57603,17421
10.58538,18293
10.59472,16984
10.60405,16567
10.61340,16313
10.62273,18968
10.63207,20283
10.64142,20627
10.65075,17993
10.66008,17955
10.66943,19389
10.67877,20935
10.68812,20512
10.69745,22419
10.70678,31177
10.71613,39324
10.72547,35865
10.73480,27455
10.74415,33833
10.75348,60423
10.76282,98202
10.77217,104370
10.78150,94624
10.79083,111249
10.80018,152564
10.80952,146812
10.81885,86591
10.82820,45794
10.83753,26563
10.84687,22941
10.85622,23884
10.86555,25419
10.87490,28626
10.88423,27401
10.89357,27307
10.90292,23436
10.91225,23696
10.92158,26083
10.93093,26601
10.94027,28071
10.94960,24673
10.95895,22377
10.96828,20836
10.97762,17699
10.98697,17260
10.99630,16133
11.00563,16580
11.01498,16692
11.02432,15511
11.03367,16912
11.04300,16620
11.05233,15588
11.06168,15684
11.07102,15270
11.08035,16388
11.08970,15516
11.09903,17391
11.10837,17912
11.11772,17982
11.12705,17207
11.13638,18088
11.14573,16886
11.15507,16498
11.16440,17041
11.17375,16713
11.18308,14990
11.19242,16214
11.20177,17097
11.21110,18618
11.22045,19239
11.22978,16583
11.23912,16006
11.24847,18167
11.25780,18492
11.26713,17993
11.27648,17424
11.28582,15680
11.29515,16622
11.30450,16374
11.31383,15703
11.32317,17537
11.33252,22359
11.34185,25843
11.35118,31495
11.36053,27762
11.36987,22382
11.37920,20049
11.38855,21695
11.39788,25070
11.40723,31313
11.41657,28576
11.42590,23572
11.43525,19251
11.44458,17260
11.45392,20880
11.46327,24645
11.47260,26301
11.48193,22443
11.49128,17041
11.50062,15990
11.50995,16171
11.51930,16003
11.52863,15767
11.53797,15215
11.54732,16723
11.55665,24129
11.56598,37310
11.57533,47707
11.58467,45887
11.59402,38824
11.60335,30717
11.61268,26689
11.62203,22476
11.63137,21775
11.64070,21611
11.65005,25480
11.65938,31385
11.66872,33998
11.67807,32820
11.68740,28839
11.69673,25189
11.70608,24263
11.71542,24344
11.72475,23400
11.73410,23619
11.74343,22787
11.75278,23209
11.76212,19902
11.77145,20680
11.78080,22716
11.79013,22503
11.79947,21739
11.80882,21396
11.81815,22122
11.82748,20751
11.83683,19788
11.84617,18383
11.85550,18362
11.86485,19747
11.87418,20715
11.88352,20882
11.89287,19876
11.90220,18347
11.91153,19237
11.92088,19709
11.93022,25200
11.93957,31242
11.94890,30234
11.95823,27089
11.96758,21883
11.97692,19530
11.98625,19749
11.99560,22632
12.00493,27461
12.01427,30143
12.02362,27459
12.03295,23162
12.04228,21081
12.05163,19486
12.06097,18217
12.07030,16775
12.07965,15768
12.08898,17698
12.09832,16206
12.10767,17624
12.11700,16206
12.12635,16506
12.13568,16890
12.14502,17457
12.15437,23077
12.16370,33226
12.17303,44013
12.18238,42180
12.19172,28446
12.20105,21006
12.21040,19098
12.21973,21918
12.22907,24268
12.23842,23671
12.24775,19422
12.25708,23668
12.26643,35864
12.27577,55433
12.28510,60772
12.29445,45814
12.30378,31142
12.31313,24878
12.32247,21719
12.33180,22338
12.34115,22201
12.35048,23253
12.35982,20195
12.36917,18947
12.37850,19337
12.38783,19593
12.39718,18902
12.40652,18477
12.41585,17352
12.42520,18015
12.43453,18799
12.44387,16718
12.45322,18370
12.46255,20321
12.47188,20369
12.48123,18924
12.49057,18741
12.49992,19476
12.50925,19087
12.51858,19276
12.52793,19648
12.53727,19299
12.54660,20387
12.55595,22110
12.56528,23886
12.57462,20701
12.58397,19118
12.59330,17070
12.60263,16765
12.61198,17517
12.62132,21009
12.63065,23473
12.64000,27649
12.64933,26492
12.65868,24286
12.66802,21921
12.67735,17188
12.68670,14806
12.69603,14806
12.70537,15225
12.71472,17838
12.72405,17827
12.73338,17145
12.74273,17803
12.75207,18221
12.76140,17905
12.77075,17015
12.78008,16683
12.78942,16405
12.79877,16959
12.80810,16298
12.81743,15443
12.82678,16290
12.83612,17688
12.84547,17182
12.85480,16159
12.86413,16559
12.87348,15871
12.88282,15531
12.89215,16694
12.90150,17305
12.91083,15296
12.92017,15670
12.92952,15532
12.93885,16673
12.94818,17274
12.95753,17227
12.96687,15661
12.97620,14361
12.98555,14935
12.99488,15258
13.00422,16145
13.01357,15850
13.02290,20234
13.03225,21671
13.04158,19843
13.05092,17651
13.06027,15668
13.06960,17015
13.07893,17131
13.08828,18768
13.09762,16800
13.10695,16816
13.11630,16057
13.12563,17260
13.13497,19408
13.14432,18179
13.15365,17464
13.16298,18854
13.17233,17655
13.18167,22707
13.19100,39017
13.20035,83604
13.20968,109983
13.21903,89419
13.22837,55189
13.23770,41544
13.24705,39667
13.25638,33129
13.26572,24460
13.27507,22147
13.28440,22600
13.29373,22348
13.30308,24162
13.31242,24658
13.32175,24113
13.33110,23320
13.34043,21475
13.34977,19912
13.35912,20423
13.36845,18675
13.37780,20119
13.38713,21455
13.39647,24094
13.40582,22580
13.41515,19649
13.42448,17906
13.43383,19006
13.44317,20891
13.45250,19519
13.46185,21555
13.47118,20450
13.48052,20287
13.48987,19448
13.49920,19305
13.50853,26247
13.51788,41038
13.52722,46430
13.53655,37017
13.54590,25730
13.55523,19670
13.56458,18039
13.57392,18241
13.58325,16302
13.59260,16803
13.60193,17940
13.61127,17541
13.62062,16761
13.62995,16732
13.63928,17813
13.64863,19133
13.65797,20518
13.66730,20460
13.67665,18005
13.68598,16827
13.69532,16335
13.70467,14400
13.71400,14947
13.72333,14803
13.73268,14696
13.74202,15318
13.75137,16135
13.76070,15835
13.77003,16475
13.77938,15709
13.78872,18163
13.79805,20054
13.80740,22130
13.81673,17414
13.82607,16738
13.83542,17251
13.84475,17035
13.85408,16677
13.86343,17404
13.87277,20764
13.88210,28734
13.89145,48348
13.90078,84058
13.91012,130863
13.91947,138453
13.92880,87012
13.93815,41540
13.94748,27407
13.95682,24193
13.96617,22846
13.97550,21287
13.98483,21694
13.99418,21223
14.00352,20026
14.01285,21423
14.02220,18792
14.03153,40796
14.04087,223197
14.05022,1327702
14.05955,3774779
14.06888,4909994
14.07823,3192217
14.08757,991373
14.09690,180629
14.10625,53678
14.11558,35313
14.12493,28951
14.13427,29163
14.14360,30146
14.15295,32096
14.16228,32122
14.17162,31206
14.18097,31309
14.19030,37302
14.19963,36246
14.20898,31706
14.21832,25435
14.22765,22356
14.23700,20520
14.24633,17828
14.25567,22291
14.26502,22751
14.27435,20085
14.28368,20287
14.29303,18015
14.30237,19375
14.31172,25998
14.32105,34316
14.33038,37102
14.33973,29161
14.34907,25307
14.35840,19898
14.36775,18479
14.37708,19548
14.38642,20792
14.39577,20133
14.40510,18846
14.41443,16673
14.42378,18918
14.43312,17527
14.44245,20998
14.45180,30160
14.46113,39259
14.47048,42285
14.47982,34501
14.48915,26454
14.49850,22717
14.50783,19911
14.51717,18740
14.52652,19450
14.53585,18335
14.54518,21147
14.55453,19003
14.56387,21284
14.57320,18544
14.58255,18880
14.59188,18985
14.60122,17069
14.61057,17096
14.61990,18138
14.62923,18811
14.63858,21624
14.64792,28402
14.65727,30724
14.66660,27315
14.67593,25435
14.68528,24690
14.69462,20796
14.70395,20743
14.71330,19558
14.72263,20459
14.73197,21724
14.74132,22159
14.75065,21426
14.75998,20287
14.76933,19441
14.77867,19918
14.78800,19040
14.79735,20815
14.80668,20077
14.81602,21377
14.82537,19894
14.83470,21745
14.84405,27161
14.85338,36316
14.86272,40038
14.87207,32102
14.88140,27901
14.89073,20025
14.90008,18823
14.90942,20587
14.91875,20363
14.92810,19802
14.93743,16510
14.94677,18471
14.95612,19590
14.96545,23354
14.97478,24813
14.98413,23855
14.99347,25717
15.00280,28720
15.01215,29345
15.02148,25763
15.03083,25757
15.04017,31385
15.04950,29648
15.05885,29747
15.06818,29063
15.07752,24567
15.08687,20521
15.09620,19053
15.10553,20171
15.11488,27302
15.12422,32489
15.13355,33613
15.14290,29400
15.15223,20782
15.16157,18220
15.17092,17763
15.18025,19576
15.18960,26868
15.19893,38557
15.20827,49780
15.21762,54968
15.22695,46993
15.23628,33810
15.24563,26718
15.25497,24982
15.26430,24446
15.27365,22682
15.28298,23880
15.29232,20641
15.30167,19542
15.31100,23084
15.32033,26786
15.32968,28025
15.33902,27003
15.34835,24656
15.35770,26627
15.36703,30395
15.37638,27859
15.38572,23143
15.39505,20876
15.40440,21215
15.41373,23626
15.42307,22845
15.43242,21687
15.44175,22042
15.45108,21273
15.46043,21156
15.46977,21161
15.47910,22433
15.48845,23725
15.49778,30681
15.50712,42597
15.51647,48746
15.52580,42968
15.53513,29117
15.54448,22526
15.55382,20710
15.56317,21218
15.57250,21462
15.58183,20411
15.59118,21556
15.60052,21995
15.60985,22287
15.61920,24653
15.62853,28590
15.63787,30545
15.64722,30906
15.65655,33635
15.66588,29218
15.67523,23847
15.68457,26048
15.69390,30217
15.70325,33580
15.71258,31042
15.72192,28895
15.73127,27655
15.74060,31980
15.74995,35157
15.75928,34881
15.76862,30727
15.77797,28948
15.78730,28647
15.79663,28718
15.80598,37084
15.81532,61575
15.82465,114559
15.83400,168893
15.84333,172286
15.85267,121931
15.86202,74390
15.87135,58711
15.88068,54088
15.89003,54991
15.89937,54528
15.90870,49637
15.91805,40246
15.92738,34033
15.93673,30275
15.94607,29484
15.95540,29179
15.96475,32354
15.97408,37492
15.98342,49155
15.99277,49080
16.00210,40739
16.01143,32972
16.02078,29128
16.03012,28737
16.03945,30805
16.04880,31799
16.05813,35052
16.06747,31688
16.07682,31030
16.08615,28334
16.09550,27528
16.10483,30211
16.11417,32118
16.12352,32701
16.13285,30001
16.14218,28175
16.15153,28715
16.16087,26978
16.17020,26629
16.17955,24679
16.18888,26773
16.19822,27816
16.20757,31018
16.21690,33212
16.22623,33929
16.23558,36546
16.24492,36398
16.25425,34513
16.26360,33458
16.27293,41217
16.28228,70473
16.29162,116176
16.30095,129280
16.31030,93459
16.31963,52031
16.32897,35667
16.33832,28831
16.34765,24063
16.35698,23320
16.36633,23612
16.37567,22624
16.38500,24352
16.39435,26902
16.40368,27924
16.41302,31875
16.42237,30384
16.43170,28677
16.44103,29330
16.45038,32196
16.45972,33223
16.46907,28906
16.47840,29365
16.48773,27349
16.49708,28588
16.50642,28607
16.51575,27994
16.52510,26394
16.53443,26191
16.54377,24068
16.55312,24988
16.56245,24999
16.57178,25891
16.58113,27897
16.59047,25703
16.59980,26158
16.60915,28052
16.61848,31944
16.62782,33187
16.63717,30709
16.64650,27813
16.65585,25106
16.66518,25185
16.67452,28340
16.68387,31889
16.69320,33746
16.70253,32001
16.71188,28144
16.72122,28508
16.73055,35141
16.73990,54414
16.74923,65910
16.75857,53332
16.76792,34392
16.77725,26307
16.78658,24037
16.79593,25177
16.80527,26995
16.81462,29250
16.82395,32567
16.83328,33013
16.84263,31240
16.85197,26600
16.86130,24798
16.87065,25135
16.87998,23419
16.88932,28077
16.89867,32371
16.90800,42508
16.91733,46305
16.92668,39089
16.93602,38368
16.94535,38016
16.95470,40442
16.96403,38892
16.97337,33875
16.98272,27800
16.99205,27465
17.00140,26365
17.01073,31601
17.02007,43303
17.02942,50821
17.03875,49407
17.04808,37382
17.05743,33786
17.06677,30931
17.07610,30684
17.08545,27681
17.09478,28506
17.10412,29270
17.11347,27684
17.12280,30895
17.13213,35517
17.14148,33352
17.15082,27450
17.16015,27129
17.16950,25072
17.17883,25727
17.18818,24346
17.19752,24451
17.20685,24723
17.21620,25702
17.22553,22576
17.23487,25257
17.24422,25219
17.25355,29199
17.26288,30055
17.27223,30753
17.28157,27951
17.29090,27328
17.30025,25375
17.30958,31995
17.31892,32779
17.32827,33271
17.33760,28532
17.34693,26713
17.35628,28370
17.36562,42377
17.37497,74830
17.38430,100736
17.39363,83220
17.40298,52620
17.41232,39738
17.42165,36680
17.43100,35956
17.44033,33433
17.44967,31442
17.45902,29887
17.46835,32186
17.47768,57222
17.48703,238596
17.49637,1008995
17.50570,2108655
17.51505,1990755
17.52438,955631
17.53372,248231
17.54307,69868
17.55240,43436
17.56175,40403
17.57108,40104
17.58042,40938
17.58977,38995
17.59910,34875
17.60843,31146
17.61778,30236
17.62712,29030
17.63645,30602
17.64580,35744
17.65513,40522
17.66447,42268
17.67382,41111
17.68315,40632
17.69248,45557
17.70183,45232
17.71117,41105
17.72050,36544
17.72985,32995
17.73918,34863
17.74853,39792
17.75787,38673
17.76720,39584
17.77655,34183
17.78588,29681
17.79522,26598
17.80457,27941
17.81390,29411
17.82323,30105
17.83258,31264
17.84192,32675
17.85125,42394
17.86060,48126
17.86993,42915
17.87927,37927
17.88862,36900
17.89795,32918
17.90730,28856
17.91663,27468
17.92597,23652
17.93532,25226
17.94465,27411
17.95398,30168
17.96333,32099
17.97267,29978
17.98200,29945
17.99135,27156
18.00068,25181
18.01002,25033
18.01937,23116
18.02870,27119
18.03803,29881
18.04738,32947
18.05672,32239
18.06605,27758
18.07540,25424
18.08473,24646
18.09408,27514
18.10342,29934
18.11275,31589
18.12210,31956
18.13143,33477
18.14077,32115
18.15012,32317
18.15945,32573
18.16878,30264
18.17813,27650
18.18747,25638
18.19680,25457
18.20615,26685
18.21548,25294
18.22482,26938
18.23417,25066
18.24350,24401
18.25283,23108
18.26218,26025
18.27152,29725
18.28087,31539
18.29020,32506
18.29953,35783
18.30888,32033
18.31822,31499
18.32755,34137
18.33690,37744
18.34623,42517
18.35557,45692
18.36492,36817
18.37425,30827
18.38358,26450
18.39293,27113
18.40227,29104
18.41160,30597
18.42095,34189
18.43028,36168
18.43962,40583
18.44897,37772
18.45830,35022
18.46765,29807
18.47698,29866
18.48632,42680
18.49567,54935
18.50500,69218
18.51433,64268
18.52368,52629
18.53302,43428
18.54235,41928
18.55170,40934
18.56103,35228
18.57037,29140
18.57972,27183
18.58905,27347
18.59838,33084
18.60773,37329
18.61707,37659
18.62642,33882
18.63575,34734
18.64508,32080
18.65443,29106
18.66377,29816
18.67310,29556
18.68245,29031
18.69178,29565
18.70112,34399
18.71047,36919
18.71980,37457
18.72913,35608
18.73848,35367
18.74782,34194
18.75715,28993
18.76650,26521
18.77583,25862
18.78517,25605
18.79452,27114
18.80385,28420
18.81320,28392
18.82253,27625
18.83187,27748
18.84122,28886
18.85055,27646
18.85988,25869
18.86923,25365
18.87857,25359
18.88790,28126
18.89725,35607
18.90658,45654
18.91592,47044
18.92527,40327
18.93460,36843
18.94393,42343
18.95328,45300
18.96262,44283
18.97195,37703
18.98130,33587
18.99063,30702
18.99998,30122
19.00932,29071
19.01865,30741
19.02800,37064
19.03733,54058
19.04667,72614
19.05602,75967
19.06535,70277
19.07468,85381
19.08403,101806
19.09337,95343
19.10270,65474
19.11205,41635
19.12138,29442
19.13072,28000
19.14007,25380
19.14940,24833
19.15873,24687
19.16808,26494
19.17742,29192
19.18677,31289
19.19610,33579
19.20543,35204
19.21478,36383
19.22412,35300
19.23345,31083
19.24280,26619
19.25213,24826
19.26147,26125
19.27082,27454
19.28015,29767
19.28948,30538
19.29883,34491
19.30817,39053
19.31750,41145
19.32685,35709
19.33618,29871
19.34552,26418
19.35487,25442
19.36420,23595
19.37355,24777
19.38288,25098
19.39222,28993
19.40157,31071
19.41090,30300
19.42023,25684
19.42958,25092
19.43892,22024
19.44825,22772
19.45760,25785
19.46693,26140
19.47627,29450
19.48562,29284
19.49495,29270
19.50428,26776
19.51363,24661
19.52297,24405
19.53232,26666
19.54165,24144
19.55098,23144
19.56033,23785
19.56967,27714
19.57900,30035
19.58835,29824
19.59768,27524
19.60702,25368
19.61637,26668
19.62570,31994
19.63503,31744
19.64438,29069
19.65372,24801
19.66305,24141
19.67240,25796
19.68173,25862
19.69107,22200
19.70042,25352
19.70975,33734
19.71910,46012
19.72843,53467
19.73777,47364
19.74712,36424
19.75645,28638
19.76578,30648
19.77513,30226
19.78447,30517
19.79380,27842
19.80315,27496
19.81248,27086
19.82182,27881
19.83117,25435
19.84050,23903
19.84983,25798
19.85918,31822
19.86852,40132
19.87785,42538
19.88720,35265
19.89653,29817
19.90588,28514
19.91522,27624
19.92455,26918
19.93390,23979
19.94323,23765
19.95257,24340
19.96192,25917
19.97125,23248
19.98058,23056
19.98993,21614
19.99927,21563
20.00860,24666
20.01795,27405
20.02728,29100
20.03662,30652
20.04597,29150
20.05530,26721
20.06463,23776
20.07398,25416
20.08332,24976
20.09267,24962
20.10200,22118
20.11133,21717
20.12068,21209
20.13002,22498
20.13935,27500
20.14870,29970
20.15803,29567
20.16737,28516
20.17672,24028
20.18605,23416
20.19538,23079
20.20473,22764
20.21407,23880
20.22340,21548
20.23275,22947
20.24208,22510
20.25143,22141
20.26077,23583
20.27010,23793
20.27945,23128
20.28878,24220
20.29812,22171
20.30747,21905
20.31680,20800
20.32613,20944
20.33548,20819
20.34482,23227
20.35415,23290
20.36350,22782
20.37283,21193
20.38217,19481
20.39152,19959
20.40085,19471
20.41018,21203
20.41953,21184
20.42887,21612
20.43822,21259
20.44755,22051
20.45688,23868
20.46623,27632
20.47557,26415
20.48490,22565
20.49425,23987
20.50358,21754
20.51292,21807
20.52227,22449
20.53160,20459
20.54093,22895
20.55028,35506
20.55962,77709
20.56895,141580
20.57830,170864
20.58763,110352
20.59697,52287
20.60632,33855
20.61565,29648
20.62500,26466
20.63433,26862
20.64367,25681
20.65302,26691
20.66235,26992
20.67168,27976
20.68103,28435
20.69037,27309
20.69970,26526
20.70905,27220
20.71838,26076
20.72772,26007
20.73707,25619
20.74640,23389
20.75573,22438
20.76508,22073
20.77442,23789
20.78375,25233
20.79310,26856
20.80243,27006
20.81178,25008
20.82112,23594
20.83045,21252
20.83980,21576
20.84913,20365
20.85847,20534
20.86782,21138
20.87715,21901
20.88648,23149
20.89583,24630
20.90517,24647
20.91450,24006
20.92385,21794
20.93318,20420
20.94252,19618
20.95187,19729
20.96120,17533
20.97053,20179
20.97988,19524
20.98922,19201
20.99857,20636
21.00790,20055
21.01723,19039
21.02658,19935
21.03592,20122
21.04525,21033
21.05460,20242
21.06393,20798
21.07327,20498
21.08262,19544
21.09195,24193
21.10128,23228
21.11063,25762
21.11997,24033
21.12930,23453
21.13865,21611
21.14798,19398
21.15732,20994
21.16667,21352
21.17600,22658
21.18535,25686
21.19468,27080
21.20402,26776
21.21337,25581
21.22270,25068
21.23203,24711
21.24138,23128
21.25072,23850
21.26005,27135
21.26940,28358
21.27873,32424
21.28807,30334
21.29742,27410
21.30675,24736
21.31608,24775
21.32543,21445
21.33477,22461
21.34412,22613
21.35345,22589
21.36278,22670
21.37213,20449
21.38147,21410
21.39080,21391
21.40015,23931
21.40948,24244
21.41882,23810
21.42817,25092
21.43750,22620
21.44683,23004
21.45618,22149
21.46552,23557
21.47485,24559
21.48420,24249
21.49353,22613
21.50287,22847
21.51222,22302
21.52155,20317
21.53090,20668
21.54023,21012
21.54957,21197
21.55892,23120
21.56825,27814
21.57758,32340
21.58693,31651
21.59627,28325
21.60560,25394
21.61495,22812
21.62428,22430
21.63362,22355
21.64297,21560
21.65230,22085
21.66163,23753
21.67098,24822
21.68032,23329
21.68965,23445
21.69900,23654
21.70833,24837
21.71768,27511
21.72702,27906
21.73635,27676
21.74570,24686
21.75503,22750
21.76437,22411
21.77372,20652
21.78305,21865
21.79238,21718
21.80173,23695
21.81107,24004
21.82040,25035
21.82975,27340
21.83908,25604
21.84842,24472
21.85777,22104
21.86710,23966
21.87643,27862
21.88578,27711
21.89512,26806
21.90447,28612
21.91380,25384
21.92313,24675
21.93248,23330
21.94182,22787
21.95115,25180
21.96050,27428
21.96983,32416
21.97917,36282
21.98852,33820
21.99785,32011
22.00718,27216
22.01653,26170
22.02587,25253
22.03520,25689
22.04455,24252
22.05388,24797
22.06323,27779
22.07257,25799
22.08190,26572
22.09125,24892
22.10058,25461
22.10992,24321
22.11927,21698
22.12860,21602
22.13793,25033
22.14728,26862
22.15662,32169
22.16595,33908
22.17530,32798
22.18463,26817
22.19397,23887
22.20332,24070
22.21265,22046
22.22198,22940
22.23133,23757
22.24067,24091
22.25002,23819
22.25935,24204
22.26868,24593
22.27803,25555
22.28737,26810
22.29670,26950
22.30605,24180
22.31538,22996
22.32472,21382
22.33407,24226
22.34340,23517
22.35273,23551
22.36208,24559
22.37142,24313
22.38075,22639
22.39010,21472
22.39943,20703
22.40877,21694
22.41812,20775
22.42745,20312
22.43680,21615
22.44613,22050
22.45547,23064
22.46482,23558
22.47415,21711
22.48348,22152
22.49283,22209
22.50217,23013
22.51150,23306
22.52085,24457
22.53018,22796
22.53952,22281
22.54887,20080
22.55820,21445
22.56753,22395
22.57688,21203
22.58622,24444
22.59555,22418
22.60490,23051
22.61423,20738
22.62358,23890
22.63292,21617
22.64225,20459
22.65160,20581
22.66093,19273
22.67027,21429
22.67962,23161
22.68895,23371
22.69828,22366
22.70763,21673
22.71697,21433
22.72630,23239
22.73565,24849
22.74498,25140
22.75432,27816
22.76367,26280
22.77300,23157
22.78233,22918
22.79168,22066
22.80102,21930
22.81037,22381
22.81970,21174
22.82903,22986
22.83838,21672
22.84772,20954
22.85705,20438
22.86640,21704
22.87573,22883
22.88507,21510
22.89442,21783
22.90375,20308
22.91308,21585
22.92243,20284
22.93177,22047
22.94110,22997
22.95045,22132
22.95978,23009
22.96913,22619
22.97847,21048
22.98780,21468
22.99715,20395
23.00648,21597
23.01582,19271
23.02517,18659
23.03450,19460
23.04383,20171
23.05318,21068
23.06252,20966
23.07185,20710
23.08120,20617
23.09053,19374
23.09987,19548
23.10922,19046
23.11855,19271
23.12788,19127
23.13723,18991
23.14657,19335
23.15592,19070
23.16525,18928
23.17458,19178
23.18393,18948
23.19327,19823
23.20260,19638
23.21195,19262
23.22128,20112
23.23062,20598
23.23997,19183
23.24930,18859
23.25863,19796
23.26798,20186
23.27732,20104
23.28665,21861
23.29600,21091
23.30533,20508
23.31467,25087
23.32402,27679
23.33335,31453
23.34270,27817
23.35203,25506
23.36137,22168
23.37072,21452
23.38005,22323
23.38938,22514
23.39873,21650
23.40807,21903
23.41740,20855
23.42675,21498
23.43608,23121
23.44542,20834
23.45477,22335
23.46410,22692
23.47343,23508
23.48278,21261
23.49212,20207
23.50145,20798
23.51080,20252
23.52013,19373
23.52948,19965
23.53882,21071
23.54815,20575
23.55750,20681
23.56683,20090
23.57617,20555
23.58552,21167
23.59485,22161
23.60418,21036
23.61353,20155
23.62287,18378
23.63220,20569
23.64155,18504
23.65088,19117
23.66022,19051
23.66957,19775
23.67890,19832
23.68825,20502
23.69758,19993
23.70692,21640
23.71627,21388
23.72560,22672
23.73493,23306
23.74428,24050
23.75362,21837
23.76295,20015
23.77230,20658
23.78163,21431
23.79097,19675
23.80032,20638
23.80965,19285
23.81898,18719
23.82833,19472
23.83767,18750
23.84700,21778
23.85635,20257
23.86568,19185
23.87503,21012
23.88437,20461
23.89370,18697
23.90305,20586
23.91238,19328
23.92172,19864
23.93107,18920
23.94040,21195
23.94973,20797
23.95908,20088
23.96842,20737
23.97775,19727
23.98710,20100
23.99643,20884
24.00577,20272
24.01512,19276
24.02445,18464
24.03378,19436
24.04313,19143
24.05247,19391
24.06182,17857
24.07115,18240
24.08048,20176
24.08983,19256
24.09917,19333
24.10850,20298
24.11785,19709
24.12718,18319
24.13652,19709
24.14587,20257
24.15520,19910
24.16453,19426
24.17388,19550
24.18322,19396
24.19255,19967
24.20190,18731
24.21123,19071
24.22057,19658
24.22992,19708
24.23925,20673
24.24860,21061
24.25793,19888
24.26727,21524
24.27662,19848
24.28595,19069
24.29528,21122
24.30463,18559
24.31397,22431
24.32330,26710
24.33265,23679
24.34198,22339
24.35132,21234
24.36067,21542
24.37000,20789
24.37933,20228
24.38868,19869
24.39802,19599
24.40735,19761
24.41670,20054
24.42603,19450
24.43538,21408
24.44472,21443
24.45405,20793
24.46340,20414
24.47273,22166
24.48207,19826
24.49142,21579
24.50075,20638
24.51008,20808
24.51943,21853
24.52877,21296
24.53810,21080
24.54745,22159
24.55678,21116
24.56612,22012
24.57547,21281
24.58480,21318
24.59413,21617
24.60348,21824
24.61282,21673
24.62217,21503
24.63150,19749
24.64083,21211
24.65018,20771
24.65952,21596
24.66885,20969
24.67820,20639
24.68753,20138
24.69687,20102
24.70622,20922
24.71555,20195
24.72488,19580
24.73423,19792
24.74357,20567
24.75290,19854
24.76225,20996
24.77158,20513
24.78093,20126
24.79027,20377
24.79960,20769
24.80895,21935
24.81828,21509
24.82762,21212
24.83697,20809
24.84630,21532
24.85563,20529
24.86498,20248
24.87432,21751
24.88365,21291
24.89300,21648
24.90233,20957
24.91167,21791
24.92102,21820
24.93035,21488
24.93968,21474
24.94903,21797
24.95837,21306
24.96772,20908
24.97705,21271
24.98638,19703
24.99573,19788
25.00507,19752
25.01440,20340
25.02375,21777
25.03308,19578
25.04242,20610
25.05177,21747
25.06110,20232
25.07043,21168
25.07978,22185
25.08912,21264
25.09845,21689
25.10780,20836
25.11713,21648
25.12647,21215
25.13582,21297
25.14515,21054
25.15450,21198
25.16383,21289
25.17317,21118
25.18252,19959
25.19185,20617
25.20118,21346
25.21053,20384
25.21987,21672
25.22920,19906
25.23855,20850
25.24788,22048
25.25722,21539
25.26657,19600
25.27590,20819
25.28523,20080
25.29458,20463
25.30392,20002
25.31325,20604
25.32260,21007
25.33193,26716
25.34128,33297
25.35062,34765
25.35995,32766
25.36930,30842
25.37863,30139
25.38797,28372
25.39732,27558
25.40665,26896
25.41598,25313
25.42533,24462
25.43467,24141
25.44400,24936
25.45335,24297
25.46268,23897
25.47202,24334
25.48137,26333
25.49070,27368
25.50005,26038
25.50938,25951
25.51872,24875
25.52807,22692
25.53740,24778
25.54673,22470
25.55608,24409
25.56542,21657
25.57475,24199
25.58410,22812
25.59343,22986
25.60277,22450
25.61212,22959
25.62145,23324
25.63078,21841
25.64013,23190
25.64947,23935
25.65880,23445
25.66815,24853
25.67748,23054
25.68683,23009
25.69617,21792
25.70550,22163
25.71485,22453
25.72418,23018
25.73352,23336
25.74287,23937
25.75220,24376
25.76153,23868
25.77088,24296
25.78022,23552
25.78955,23862
25.79890,23932
25.80823,24164
25.81757,23689
25.82692,24449
25.83625,26446
25.84558,22610
25.85493,23086
25.86427,23318
25.87362,22869
25.88295,23114
25.89228,22929
25.90163,23764
25.91097,23854
25.92030,25148
25.92965,24819
25.93898,23363
25.94832,24027
25.95767,23770
25.96700,24390
25.97633,24238
25.98568,23767
25.99502,23825
26.00435,22854
26.01370,23135
26.02303,23226
26.03237,22183
26.04172,22474
26.05105,24074
26.06040,22706
26.06973,23235
26.07907,22147
26.08842,23493
26.09775,23189
26.10708,23289
26.11643,24462
26.12577,25501
26.13510,26144
26.14445,27019
26.15378,24956
26.16312,25123
26.17247,24203
26.18180,23263
26.19113,24617
26.20048,24213
26.20982,24005
26.21915,24217
26.22850,23808
26.23783,25251
26.24718,25553
26.25652,25081
26.26585,23966
26.27520,24025
26.28453,22937
26.29387,23396
26.30322,24658
26.31255,24018
26.32188,23845
26.33123,23284
26.34057,23905
26.34990,25052
26.35925,24806
26.36858,23283
26.37792,24844
26.38727,24287
26.39660,22335
26.40595,24106
26.41528,23855
26.42462,25443
26.43397,24462
26.44330,25444
26.45263,24702
26.46198,25598
26.47132,25444
26.48065,24803
26.49000,24199
26.49933,26111
26.50867,25415
26.51802,25640
26.52735,23573
26.53668,23972
26.54603,24077
26.55537,24229
26.56470,23219
26.57405,24707
26.58338,24864
26.59273,25889
26.60207,26246
26.61140,25659
26.62075,24869
26.63008,25743
26.63942,26761
26.64877,25253
26.65810,24967
26.66743,25095
26.67678,25394
26.68612,26120
26.69545,25275
26.70480,25068
26.71413,26989
26.72347,27673
26.73282,25322
26.74215,24989
26.75148,25065
26.76083,26431
26.77017,25907
26.77952,26429
26.78885,28992
26.79818,27160
26.80753,26702
26.81687,26766
26.82620,26382
26.83555,28702
26.84488,29129
26.85422,27894
26.86357,28261
26.87290,27741
26.88223,27368
26.89158,27596
26.90092,27868
26.91025,27371
26.91960,28382
26.92893,26096
26.93827,27581
26.94762,24675
26.95695,27066
26.96630,26601
26.97563,28633
26.98497,27927
26.99432,29061
27.00365,27170
27.01298,26994
27.02233,27578
27.03167,27911
27.04100,28410
27.05035,29173
27.05968,29569
27.06902,27294
27.07837,28359
27.08770,27264
27.09703,28088
27.10638,28593
27.11572,27896
27.12507,27703
27.13440,28306
27.14373,28503
27.15308,28356
27.16242,29673
27.17175,29052
27.18110,27782
27.19043,29036
27.19977,28335
27.20912,28935
27.21845,29426
27.22778,29455
27.23713,29203
27.24647,30653
27.25580,31289
27.26515,32649
27.27448,32328
27.28382,32058
27.29317,29902
27.30250,30947
27.31185,30442
27.32118,30354
27.33052,31146
27.33987,30896
27.34920,29412
27.35853,29471
27.36788,29713
27.37722,28886
27.38655,29914
27.39590,29251
27.40523,29058
27.41457,30220
27.42392,31183
27.43325,32966
27.44258,33469
27.45193,33321
27.46127,32252
27.47060,29732
27.47995,30187
27.48928,31345
27.49863,29680
27.50797,30569
27.51730,32478
27.52665,29855
27.53598,31079
27.54532,32299
27.55467,33084
27.56400,32867
27.57333,30522
27.58268,31487
27.59202,31289
27.60135,31075
27.61070,30949
27.62003,32855
27.62937,32886
27.63872,32966
27.64805,30750
27.65738,32767
27.66673,30040
27.67607,33065
27.68542,33505
27.69475,32825
27.70408,33653
27.71343,34876
27.72277,36964
27.73210,36018
27.74145,35656
27.75078,34133
27.76012,34587
27.76947,34473
27.77880,34037
27.78813,36669
27.79748,32989
27.80682,33270
27.81615,34297
27.82550,33722
27.83483,35032
27.84417,36852
27.85352,35053
27.86285,34413
27.87220,35312
27.88153,32683
27.89087,34674
27.90022,34868
27.90955,35476
27.91888,33134
27.92823,33203
27.93757,32834
27.94690,34432
27.95625,35669
27.96558,35685
27.97492,35237
27.98427,35370
27.99360,36379
28.00293,34662
28.01228,35050
28.02162,35282
28.03097,36309
28.04030,37338
28.04963,35677
28.05898,35161
28.06832,35208
28.07765,36220
28.08700,35793
28.09633,35648
28.10567,37155
28.11502,39338
28.12435,38700
28.13368,36609
28.14303,36646
28.15237,38158
28.16170,37677
28.17105,35547
28.18038,35648
28.18972,37416
28.19907,36993
28.20840,38099
28.21775,36561
28.22708,37168
28.23642,37432
28.24577,36468
28.25510,38282
28.26443,37305
28.27378,36940
28.28312,36376
28.29245,37275
28.30180,36420
28.31113,37953
28.32047,37885
28.32982,38888
28.33915,36887
28.34848,37108
28.35783,40884
28.36717,38634
28.37650,38569
28.38585,39350
28.39518,37848
28.40453,38185
28.41387,39715
28.42320,40544
28.43255,39630
28.44188,39590
28.45122,38720
28.46057,41325
28.46990,40459
28.47923,40868
28.48858,41126
28.49792,39236
28.50725,40048
28.51660,40146
28.52593,39032
28.53527,41606
28.54462,38590
28.55395,41931
28.56328,39250
28.57263,40298
28.58197,42092
28.59132,41286
28.60065,40894
28.60998,42880
28.61933,40553
28.62867,41625
28.63800,40005
28.64735,41384
28.65668,43084
28.66602,47640
28.67537,52085
28.68470,52731
28.69403,50349
28.70338,46537
28.71272,48561
28.72205,45977
28.73140,44934
28.74073,47168
28.75008,44741
28.75942,44506
28.76875,44691
28.77810,44467
28.78743,43195
28.79677,43787
28.80612,44146
28.81545,46009
28.82478,46611
28.83413,42553
28.84347,45529
28.85280,45103
28.86215,45249
28.87148,44714
28.88082,44295
28.89017,45075
28.89950,45540
28.90883,45961
28.91818,45676
28.92752,46379
28.93687,44055
28.94620,45968
28.95553,46239
28.96488,45072
28.97422,46577
28.98355,47401
28.99290,48346
29.00223,47213
29.01157,47724
29.02092,47390
29.03025,48632
29.03958,49756
29.04893,48104
29.05827,51739
29.06760,46840
29.07695,47401
29.08628,47897
29.09562,46770
29.10497,47643
29.11430,47542
29.12365,49692
29.13298,49017
29.14232,48011
29.15167,49545
29.16100,48923
29.17033,51596
29.17968,48682
29.18902,53266
29.19835,52502
29.20770,50260
29.21703,50001
29.22637,51653
29.23572,52396
29.24505,49764
29.25438,50903
29.26373,50694
29.27307,52882
29.28240,50085
29.29175,48576
29.30108,50667
29.31043,50599
29.31977,52727
29.32910,52699
29.33845,53501
29.34778,52483
29.35712,51971
29.36647,50261
29.37580,54717
29.38513,53888
29.39448,53043
29.40382,52143
29.41315,53015
29.42250,51470
29.43183,52710
29.44117,53290
29.45052,57351
29.45985,59592
29.46918,59854
29.47853,58400
29.48787,57166
29.49722,56755
29.50655,55879
29.51588,54826
29.52523,53076
29.53457,53815
29.54390,56238
29.55325,52033
29.56258,53461
29.57192,53472
29.58127,53139
29.59060,54400
29.59993,52432
29.60928,53073
29.61862,55604
29.62795,53412
29.63730,53401
29.64663,53061
29.65597,54795
29.66532,54954
29.67465,55026
29.68400,52979
29.69333,52577
29.70267,53716
29.71202,55365
29.72135,53742
29.73068,55053
29.74003,55093
29.74937,54638
29.75870,54219
29.76805,54609
29.77738,55907
29.78672,55596
29.79607,54520
29.80540,52820
29.81473,54222
29.82408,52426
29.83342,56517
29.84277,55096
29.85210,53111
29.86143,52778
29.87078,54137
29.88012,53530
29.88945,54712
29.89880,54613
29.90813,52302
29.91747,54962
29.92682,57120
29.93615,55691
29.94548,52497
29.95483,54587
29.96417,52743
29.97350,55168
29.98285,56326
29.99218,54324
30.00152,53313
30.01087,53063
30.02020,56436
30.02955,56760
30.03888,56027
30.04822,54734
30.05757,55943
30.06690,54828
30.07623,55028
30.08558,56011
30.09492,54626
30.10425,54907
30.11360,55861
30.12293,57368
30.13227,55918
30.14162,56676
30.15095,57771
30.16028,57428
30.16963,56674
30.17897,55817
30.18830,56080
30.19765,58404
30.20698,54633
30.21633,56373
30.22567,57825
30.23500,55836
30.24435,55144
30.25368,55168
30.26302,55063
30.27237,54647
30.28170,53567
30.29103,56291
30.30038,56445
30.30972,55789
30.31905,56311
30.32840,57896
30.33773,53456
30.34707,53813
30.35642,55251
30.36575,59035
30.37508,56921
30.38443,60187
30.39377,56375
30.40312,57908
30.41245,57558
30.42178,57477
30.43113,57209
30.44047,56480
30.44980,55724
30.45915,57498
30.46848,56665
30.47782,56603
30.48717,54627
30.49650,60186
30.50583,55584
30.51518,55210
30.52452,56954
30.53385,58316
30.54320,57642
30.55253,59305
30.56188,58861
30.57122,59005
30.58055,60787
30.58990,64252
30.59923,64489
30.60857,67674
30.61792,67485
30.62725,71232
30.63658,72027
30.64593,73146
30.65527,74193
30.66460,73406
30.67395,72310
30.68328,71170
30.69262,68200
30.70197,66273
30.71130,64535
30.72063,65395
30.72998,64475
30.73932,63252
30.74867,64731
30.75800,63921
30.76733,63796
30.77668,61325
30.78602,63456
30.79535,65959
30.80470,67051
30.81403,66009
30.82337,67093
30.83272,67895
30.84205,69231
30.85138,68101
30.86073,71319
30.87007,71944
30.87940,72262
30.88875,73552
30.89808,71958
30.90742,72690
30.91677,72713
30.92610,73448
30.93545,72317
30.94478,74201
30.95412,72735
30.96347,73346
30.97280,70776
30.98213,70061
30.99148,71200
31.00082,70546
31.01015,67994
31.01950,68888
31.02883,66640
31.03817,68649
31.04752,67092
31.05685,66006
31.06618,66377
31.07553,65015
31.08487,65781
31.09420,65622
31.10355,68565
31.11288,65617
31.12223,66080
31.13157,66644
31.14090,68290
31.15025,67446
31.15958,69669
31.16892,67690
31.17827,67984
31.18760,68654
31.19693,67926
31.20628,66525
31.21562,68399
31.22495,69660
31.23430,72851
31.24363,71830
31.25297,71770
31.26232,69205
31.27165,70174
31.28098,66853
31.29033,71221
31.29967,72270
31.30902,72028
31.31835,69811
31.32768,71620
31.33703,69047
31.34637,72007
31.35570,68239
31.36505,69096
