D:\数据\20220412\TEST4-SDHX-2.D Tue Apr 12 22:39:28 2022
Start of data points
0.09752,17539
0.10685,18413
0.11620,19299
0.12553,19196
0.13487,18850
0.14422,18824
0.15355,17714
0.16288,19822
0.17223,18586
0.18157,19204
0.19092,17403
0.20025,18356
0.20958,17526
0.21893,17738
0.22827,17509
0.23760,17593
0.24695,16458
0.25628,18749
0.26562,18409
0.27497,17860
0.28430,17227
0.29363,17911
0.30298,17456
0.31232,16700
0.32165,18163
0.33100,17069
0.34033,18226
0.34967,17857
0.35902,17668
0.36835,17984
0.37770,16708
0.38703,17367
0.39637,17426
0.40572,17134
0.41505,17938
0.42438,18115
0.43373,17288
0.44307,15437
0.45240,13913
0.46175,11504
0.47108,9739
0.48042,6151
0.48977,4522
0.49910,4712
0.50843,4128
0.51778,5418
0.52712,4352
0.53645,4338
0.54580,3772
0.55513,4507
0.56448,3913
0.57382,4214
0.58315,4077
0.59250,3847
0.60183,4142
0.61117,3727
0.62052,3528
0.62985,4006
0.63918,3221
0.64853,4157
0.65787,3967
0.66720,4000
0.67655,4030
0.68588,3855
0.69522,3460
0.70457,3079
0.71390,4137
0.72325,4070
0.73258,3792
0.74192,3130
0.75127,3496
0.76060,3448
0.76993,3295
0.77928,3311
0.78862,3664
0.79795,3419
0.80730,3822
0.81663,3006
0.82597,3233
0.83532,3211
0.84465,3294
0.85398,3794
0.86333,3588
0.87267,3138
0.88200,3344
0.89135,3556
0.90068,3455
0.91003,3474
0.91937,3484
0.92870,3626
0.93805,3278
0.94738,3742
0.95672,3233
0.96607,3066
0.97540,2805
0.98473,3603
0.99408,2729
1.00342,3284
1.01275,3035
1.02210,3439
1.03143,3447
1.04077,3219
1.05012,4056
1.05945,3529
1.06878,3078
1.07813,3416
1.08747,3409
1.09682,3695
1.10615,3380
1.11548,2729
1.12483,3226
1.13417,2788
1.14350,3213
1.15285,3379
1.16218,3494
1.17152,2962
1.18087,2991
1.19020,3229
1.19953,3089
1.20888,3285
1.21822,4019
1.22755,3327
1.23690,3341
1.24623,3160
1.25557,2826
1.26492,2898
1.27425,2785
1.28360,3189
1.29293,3504
1.30227,2990
1.31162,3203
1.32095,3031
1.33028,3556
1.33963,3518
1.34897,2977
1.35830,3155
1.36765,3913
1.37698,2692
1.38632,3493
1.39567,3278
1.40500,3484
1.41433,2888
1.42368,2845
1.43302,3003
1.44237,2969
1.45170,2900
1.46103,3313
1.47038,2710
1.47972,3708
1.48905,3051
1.49840,2908
1.50773,3166
1.51707,3445
1.52642,3421
1.53575,3785
1.54508,2661
1.55443,2796
1.56377,3200
1.57310,3072
1.58245,3124
1.59178,2761
1.60112,3358
1.61047,3019
1.61980,5374
1.62915,9776
1.63848,13832
1.64782,17290
1.65717,23835
1.66650,34134
1.67583,39744
1.68518,41305
1.69452,38098
1.70385,29772
1.71320,20525
1.72253,14988
1.73187,13540
1.74122,15173
1.75055,17133
1.75988,18776
1.76923,19469
1.77857,19132
1.78790,20479
1.79725,20317
1.80658,20648
1.81593,20907
1.82527,20666
1.83460,21930
1.84395,20805
1.85328,21052
1.86262,22264
1.87197,26884
1.88130,40715
1.89063,64023
1.89998,92408
1.90932,114072
1.91865,143697
1.92800,189882
1.93733,245715
1.94667,276613
1.95602,275664
1.96535,235744
1.97468,186778
1.98403,150255
1.99337,119630
2.00272,105475
2.01205,95062
2.02138,107585
2.03073,131422
2.04007,116996
2.04940,91927
2.05875,75594
2.06808,61648
2.07742,57489
2.08677,54196
2.09610,48530
2.10543,42378
2.11478,46619
2.12412,66154
2.13345,110082
2.14280,157688
2.15213,165286
2.16147,138632
2.17082,107281
2.18015,103845
2.18950,212528
2.19883,311107
2.20817,227276
2.21752,130872
2.22685,106877
2.23618,179370
2.24553,667282
2.25487,2587183
2.26420,4348445
2.27355,4254786
2.28288,3081172
2.29222,1911944
2.30157,1413112
2.31090,3281211
2.32023,7630614
2.32958,7994954
2.33892,4748053
2.34827,2148002
2.35760,936856
2.36693,456215
2.37628,269224
2.38562,182513
2.39495,135269
2.40430,111676
2.41363,103936
2.42297,97864
2.43232,85963
2.44165,74347
2.45098,66620
2.46033,69539
2.46967,78449
2.47900,72203
2.48835,63147
2.49768,54412
2.50702,49833
2.51637,48990
2.52570,45318
2.53505,47452
2.54438,53385
2.55372,71773
2.56307,136823
2.57240,180026
2.58173,164109
2.59108,130616
2.60042,110730
2.60975,115571
2.61910,151392
2.62843,183321
2.63777,166046
2.64712,149467
2.65645,129380
2.66578,95482
2.67513,70034
2.68447,54260
2.69380,48114
2.70315,47463
2.71248,80511
2.72183,182993
2.73117,255844
2.74050,212694
2.74985,156480
2.75918,141461
2.76852,163608
2.77787,196336
2.78720,210206
2.79653,187629
2.80588,152990
2.81522,135103
2.82455,112519
2.83390,111925
2.84323,237350
2.85257,697334
2.86192,1209634
2.87125,1092612
2.88058,618160
2.88993,287527
2.89927,145077
2.90862,93007
2.91795,70342
2.92728,59169
2.93663,54718
2.94597,47254
2.95530,46447
2.96465,42565
2.97398,41892
2.98332,46031
2.99267,56266
3.00200,71538
3.01133,78359
3.02068,104604
3.03002,232002
3.03935,289269
3.04870,218465
3.05803,149118
3.06738,108904
3.07672,86071
3.08605,70504
3.09540,54803
3.10473,45073
3.11407,40776
3.12342,40520
3.13275,42335
3.14208,49640
3.15143,84089
3.16077,142853
3.17010,158544
3.17945,113873
3.18878,72128
3.19812,50409
3.20747,41908
3.21680,39780
3.22613,36165
3.23548,34056
3.24482,34957
3.25417,34983
3.26350,33539
3.27283,32319
3.28218,33190
3.29152,35719
3.30085,37132
3.31020,38486
3.31953,35213
3.32887,33519
3.33822,33034
3.34755,33935
3.35688,32832
3.36623,35131
3.37557,33041
3.38490,30798
3.39425,33135
3.40358,35051
3.41292,41838
3.42227,48491
3.43160,47923
3.44095,47466
3.45028,43863
3.45962,40032
3.46897,38111
3.47830,34547
3.48763,34499
3.49698,33528
3.50632,33535
3.51565,32976
3.52500,30505
3.53433,33687
3.54367,51478
3.55302,111449
3.56235,218594
3.57168,268390
3.58103,213028
3.59037,135442
3.59970,101170
3.60905,85160
3.61838,67258
3.62773,55648
3.63707,47393
3.64640,43700
3.65575,39595
3.66508,40798
3.67442,40756
3.68377,38544
3.69310,35938
3.70243,33767
3.71178,37649
3.72112,41459
3.73045,42552
3.73980,40046
3.74913,35597
3.75847,32676
3.76782,30800
3.77715,30964
3.78648,31644
3.79583,33237
3.80517,43686
3.81452,58263
3.82385,63816
3.83318,56096
3.84253,42837
3.85187,35867
3.86120,35659
3.87055,34535
3.87988,34982
3.88922,42674
3.89857,46302
3.90790,48462
3.91723,45750
3.92658,52150
3.93592,67047
3.94525,69439
3.95460,64349
3.96393,55305
3.97327,44134
3.98262,37176
3.99195,35344
4.00130,31686
4.01063,32263
4.01997,35020
4.02932,61240
4.03865,128832
4.04798,186351
4.05733,172248
4.06667,111942
4.07600,75752
4.08535,71071
4.09468,67404
4.10402,58992
4.11337,46357
4.12270,38399
4.13203,34959
4.14138,33581
4.15072,34299
4.16007,33630
4.16940,31147
4.17873,32342
4.18808,30085
4.19742,32168
4.20675,33448
4.21610,33010
4.22543,31054
4.23477,31224
4.24412,31422
4.25345,33123
4.26278,32870
4.27213,33108
4.28147,35312
4.29080,31235
4.30015,31292
4.30948,37625
4.31882,44585
4.32817,48558
4.33750,45394
4.34685,39658
4.35618,35774
4.36552,32085
4.37487,32105
4.38420,30379
4.39353,30199
4.40288,28675
4.41222,26751
4.42155,27420
4.43090,27569
4.44023,28139
4.44957,29173
4.45892,30180
4.46825,36565
4.47758,41926
4.48693,41049
4.49627,36348
4.50560,31871
4.51495,30613
4.52428,30473
4.53363,31691
4.54297,29083
4.55230,28442
4.56165,28835
4.57098,27650
4.58032,29614
4.58967,28611
4.59900,28801
4.60833,29084
4.61768,28560
4.62702,28567
4.63635,31001
4.64570,33587
4.65503,35887
4.66437,33203
4.67372,32649
4.68305,34401
4.69238,40801
4.70173,45215
4.71107,45881
4.72042,42431
4.72975,37837
4.73908,35222
4.74843,31506
4.75777,28837
4.76710,30062
4.77645,30961
4.78578,31624
4.79512,32525
4.80447,29842
4.81380,33813
4.82313,35262
4.83248,32196
4.84182,29890
4.85115,30255
4.86050,28108
4.86983,30208
4.87918,31480
4.88852,32867
4.89785,32190
4.90720,30375
4.91653,30798
4.92587,30284
4.93522,32814
4.94455,32866
4.95388,31722
4.96323,28175
4.97257,26686
4.98190,26050
4.99125,26380
5.00058,28554
5.00992,29996
5.01927,30214
5.02860,34387
5.03793,33161
5.04728,29978
5.05662,28937
5.06597,28697
5.07530,31758
5.08463,34148
5.09398,32908
5.10332,28571
5.11265,30234
5.12200,27858
5.13133,27812
5.14067,27943
5.15002,28916
5.15935,28083
5.16868,28266
5.17803,28897
5.18737,29955
5.19670,28358
5.20605,28483
5.21538,26819
5.22472,26605
5.23407,29185
5.24340,30919
5.25275,31667
5.26208,33308
5.27142,57536
5.28077,106836
5.29010,138849
5.29943,125471
5.30878,82415
5.31812,52617
5.32745,41633
5.33680,37420
5.34613,33263
5.35547,30520
5.36482,27264
5.37415,28070
5.38348,31574
5.39283,33324
5.40217,34740
5.41150,31564
5.42085,29867
5.43018,30101
5.43953,26179
5.44887,25859
5.45820,27092
5.46755,26219
5.47688,28212
5.48622,27279
5.49557,28050
5.50490,28272
5.51423,30311
5.52358,38242
5.53292,41668
5.54225,40572
5.55160,39891
5.56093,33382
5.57027,30323
5.57962,27467
5.58895,27915
5.59828,27565
5.60763,25411
5.61697,25055
5.62632,25516
5.63565,25847
5.64498,26972
5.65433,26193
5.66367,27241
5.67300,28945
5.68235,29482
5.69168,28231
5.70102,30617
5.71037,35424
5.71970,36513
5.72903,32976
5.73838,33624
5.74772,37619
5.75705,39633
5.76640,39106
5.77573,33056
5.78508,30098
5.79442,27631
5.80375,26819
5.81310,27375
5.82243,30800
5.83177,29648
5.84112,29901
5.85045,30333
5.85978,28297
5.86913,25515
5.87847,23040
5.88780,21643
5.89715,21500
5.90648,27350
5.91582,47679
5.92517,64585
5.93450,63254
5.94383,47237
5.95318,43403
5.96252,37482
5.97187,31735
5.98120,27395
5.99053,24887
5.99988,22467
6.00922,19520
6.01855,15575
6.02790,17054
6.03723,15112
6.04657,14589
6.05592,17383
6.06525,18600
6.07458,17571
6.08393,16086
6.09327,13637
6.10260,13465
6.11195,15108
6.12128,21294
6.13062,28709
6.13997,30749
6.14930,25434
6.15865,17935
6.16798,14784
6.17732,13415
6.18667,14182
6.19600,13551
6.20533,11409
6.21468,12408
6.22402,13997
6.23335,16317
6.24270,16357
6.25203,15511
6.26137,15983
6.27072,19350
6.28005,20037
6.28938,15761
6.29873,12897
6.30807,11701
6.31740,10298
6.32675,10563
6.33608,11155
6.34543,10493
6.35477,10844
6.36410,12446
6.37345,17591
6.38278,31555
6.39212,100017
6.40147,287437
6.41080,483689
6.42013,438602
6.42948,221959
6.43882,79763
6.44815,26830
6.45750,16720
6.46683,15642
6.47617,13870
6.48552,13837
6.49485,13201
6.50420,13756
6.51353,15485
6.52287,15014
6.53222,13750
6.54155,11794
6.55088,11892
6.56023,11244
6.56957,11611
6.57890,11913
6.58825,12994
6.59758,13243
6.60692,13231
6.61627,13427
6.62560,12655
6.63493,12878
6.64428,13627
6.65362,12660
6.66295,14025
6.67230,15360
6.68163,13601
6.69098,12744
6.70032,15520
6.70965,14362
6.71900,14145
6.72833,12995
6.73767,13051
6.74702,12312
6.75635,12435
6.76568,11807
6.77503,13321
6.78437,13970
6.79370,14957
6.80305,16885
6.81238,15045
6.82172,13524
6.83107,11749
6.84040,12855
6.84973,13592
6.85908,11929
6.86842,13527
6.87777,11798
6.88710,12474
6.89643,13587
6.90578,14035
6.91512,16761
6.92445,13857
6.93380,13394
6.94313,13593
6.95247,13739
6.96182,13811
6.97115,13337
6.98048,13740
6.98983,13578
6.99917,12437
7.00850,12629
7.01785,13410
7.02718,12839
7.03652,10810
7.04587,11176
7.05520,10435
7.06455,11822
7.07388,10344
7.08322,11267
7.09257,11964
7.10190,13399
7.11123,13737
7.12058,13571
7.12992,12828
7.13925,11573
7.14860,11563
7.15793,11651
7.16727,11416
7.17662,11269
7.18595,11034
7.19528,11216
7.20463,11346
7.21397,13602
7.22330,21308
7.23265,37792
7.24198,51514
7.25133,43723
7.26067,29224
7.27000,24103
7.27935,20830
7.28868,17192
7.29802,16107
7.30737,15758
7.31670,13021
7.32603,10358
7.33538,10813
7.34472,11274
7.35405,11473
7.36340,11489
7.37273,12743
7.38207,17436
7.39142,34214
7.40075,74773
7.41010,102054
7.41943,95383
7.42877,61192
7.43812,32743
7.44745,21394
7.45678,16874
7.46613,14188
7.47547,16081
7.48480,15470
7.49415,14874
7.50348,13642
7.51282,13696
7.52217,11551
7.53150,11966
7.54083,11262
7.55018,13838
7.55952,14982
7.56885,14292
7.57820,15305
7.58753,13589
7.59688,12379
7.60622,13613
7.61555,13572
7.62490,14087
7.63423,13629
7.64357,12533
7.65292,12479
7.66225,13033
7.67158,13460
7.68093,24530
7.69027,82547
7.69960,213948
7.70895,303426
7.71828,232952
7.72762,95122
7.73697,33275
7.74630,19544
7.75563,16685
7.76498,14718
7.77432,15211
7.78367,17549
7.79300,17158
7.80233,14893
7.81168,14333
7.82102,13370
7.83035,15166
7.83970,17212
7.84903,32984
7.85837,78943
7.86772,137941
7.87705,140772
7.88638,91031
7.89573,48913
7.90507,36772
7.91440,52905
7.92375,57043
7.93308,46631
7.94242,32901
7.95177,28299
7.96110,23894
7.97045,23506
7.97978,23862
7.98912,23551
7.99847,20242
8.00780,18217
8.01713,16524
8.02648,19830
8.03582,23329
8.04515,27899
8.05450,25805
8.06383,20873
8.07317,16655
8.08252,17266
8.09185,18248
8.10118,19345
8.11053,18656
8.11987,16636
8.12922,16502
8.13855,16082
8.14788,15445
8.15723,14853
8.16657,14580
8.17590,15451
8.18525,15446
8.19458,16796
8.20392,16560
8.21327,17200
8.22260,15439
8.23193,14651
8.24128,15149
8.25062,15331
8.25995,15565
8.26930,14196
8.27863,13830
8.28797,12644
8.29732,13543
8.30665,14329
8.31600,12831
8.32533,11884
8.33467,12899
8.34402,14029
8.35335,12898
8.36268,13575
8.37203,13823
8.38137,12540
8.39070,13417
8.40005,14733
8.40938,16075
8.41872,18655
8.42807,17282
8.43740,17013
8.44673,14391
8.45608,15242
8.46542,15299
8.47475,15793
8.48410,16537
8.49343,16947
8.50278,14999
8.51212,14669
8.52145,15329
8.53080,14628
8.54013,15218
8.54947,16023
8.55882,16394
8.56815,15349
8.57748,15725
8.58683,15474
8.59617,16087
8.60550,16274
8.61485,17744
8.62418,18503
8.63352,16404
8.64287,15618
8.65220,15649
8.66153,15436
8.67088,15981
8.68022,16089
8.68957,15846
8.69890,17462
8.70823,16921
8.71758,17530
8.72692,16452
8.73625,16928
8.74560,21561
8.75493,24777
8.76427,23210
8.77362,19295
8.78295,19569
8.79228,27654
8.80163,47634
8.81097,63031
8.82030,52311
8.82965,33229
8.83898,21276
8.84832,17872
8.85767,16168
8.86700,15872
8.87635,16926
8.88568,17149
8.89502,19022
8.90437,16709
8.91370,16549
8.92303,16955
8.93238,18620
8.94172,17596
8.95105,15926
8.96040,15724
8.96973,14895
8.97907,15096
8.98842,15046
8.99775,14310
9.00708,16169
9.01643,15759
9.02577,15025
9.03510,15080
9.04445,16091
9.05378,18478
9.06313,18467
9.07247,21210
9.08180,23580
9.09115,22942
9.10048,21670
9.10982,18973
9.11917,19439
9.12850,22307
9.13783,24411
9.14718,21346
9.15652,17651
9.16585,16394
9.17520,16276
9.18453,15608
9.19387,16179
9.20322,17490
9.21255,20062
9.22190,28977
9.23123,36567
9.24057,35704
9.24992,28466
9.25925,19845
9.26858,16410
9.27793,16691
9.28727,15559
9.29660,15463
9.30595,16285
9.31528,19319
9.32462,26180
9.33397,28555
9.34330,26805
9.35263,31273
9.36198,58027
9.37132,90086
9.38065,93901
9.39000,70215
9.39933,47796
9.40868,35575
9.41802,31135
9.42735,28749
9.43670,23849
9.44603,19114
9.45537,16839
9.46472,16551
9.47405,16144
9.48338,17466
9.49273,18125
9.50207,18392
9.51140,17437
9.52075,17466
9.53008,18371
9.53942,20915
9.54877,24393
9.55810,29538
9.56743,31968
9.57678,26211
9.58612,22034
9.59547,21067
9.60480,22135
9.61413,19071
9.62348,16610
9.63282,16383
9.64215,17840
9.65150,17159
9.66083,17523
9.67017,17995
9.67952,17817
9.68885,18360
9.69818,16407
9.70753,16906
9.71687,35507
9.72620,136670
9.73555,444337
9.74488,841143
9.75422,852022
9.76357,547062
9.77290,306540
9.78225,188019
9.79158,127310
9.80092,99031
9.81027,82631
9.81960,76040
9.82893,78898
9.83828,77129
9.84762,72165
9.85695,61885
9.86630,52181
9.87563,54782
9.88497,64758
9.89432,72671
9.90365,65521
9.91298,64927
9.92233,59486
9.93167,47795
9.94102,36959
9.95035,34085
9.95968,39426
9.96903,89375
9.97837,222624
9.98770,344691
9.99705,310208
10.00638,158502
10.01572,62284
10.02507,36233
10.03440,30908
10.04373,29764
10.05308,30346
10.06242,34934
10.07175,39718
10.08110,40108
10.09043,34890
10.09977,41292
10.10912,113424
10.11845,319226
10.12780,518243
10.13713,468172
10.14647,458885
10.15582,914989
10.16515,1370987
10.17448,994100
10.18383,370114
10.19317,91082
10.20250,38463
10.21185,29178
10.22118,28223
10.23052,26027
10.23987,28281
10.24920,28272
10.25853,25007
10.26788,22395
10.27722,22873
10.28655,22486
10.29590,22081
10.30523,23196
10.31458,22227
10.32392,21141
10.33325,19571
10.34260,20121
10.35193,20250
10.36127,18938
10.37062,20149
10.37995,19753
10.38928,18969
10.39863,19591
10.40797,22305
10.41730,27437
10.42665,30203
10.43598,30021
10.44532,32816
10.45467,37776
10.46400,43650
10.47333,32813
10.48268,25233
10.49202,18541
10.50137,17073
10.51070,18520
10.52003,17704
10.52938,18970
10.53872,19077
10.54805,20087
10.55740,19878
10.56673,19423
10.57607,21765
10.58542,20430
10.59475,18581
10.60408,19189
10.61343,17459
10.62277,20291
10.63210,23589
10.64145,24092
10.65078,22352
10.66012,21110
10.66947,21140
10.67880,22891
10.68815,22238
10.69748,24409
10.70682,31612
10.71617,38715
10.72550,37492
10.73483,29395
10.74418,33726
10.75352,51997
10.76285,81106
10.77220,84709
10.78153,76611
10.79087,97577
10.80022,140047
10.80955,139715
10.81888,87018
10.82823,43545
10.83757,28591
10.84692,23830
10.85625,22761
10.86558,26625
10.87493,31340
10.88427,29918
10.89360,27387
10.90295,24538
10.91228,24063
10.92162,24862
10.93097,26279
10.94030,27028
10.94963,24774
10.95898,22954
10.96832,21440
10.97765,17490
10.98700,17822
10.99633,17994
11.00567,16594
11.01502,16538
11.02435,17290
11.03370,16659
11.04303,16397
11.05237,16322
11.06172,16148
11.07105,15613
11.08038,16769
11.08973,16011
11.09907,16954
11.10840,17659
11.11775,16360
11.12708,17442
11.13642,16113
11.14577,16483
11.15510,16867
11.16443,16535
11.17378,17143
11.18312,15992
11.19245,16258
11.20180,17495
11.21113,19811
11.22048,20866
11.22982,18675
11.23915,16178
11.24850,17428
11.25783,18907
11.26717,18570
11.27652,19285
11.28585,17928
11.29518,18857
11.30453,17093
11.31387,18191
11.32320,19415
11.33255,22932
11.34188,30832
11.35122,35325
11.36057,34594
11.36990,24201
11.37923,20444
11.38858,21228
11.39792,26193
11.40727,30281
11.41660,29428
11.42593,22100
11.43528,18377
11.44462,17420
11.45395,20514
11.46330,28724
11.47263,28375
11.48197,22311
11.49132,19318
11.50065,15889
11.50998,16539
11.51933,15469
11.52867,16314
11.53800,15199
11.54735,17966
11.55668,22443
11.56603,35368
11.57537,43725
11.58470,44302
11.59405,33657
11.60338,30948
11.61272,25608
11.62207,24280
11.63140,23092
11.64073,22301
11.65008,25146
11.65942,28851
11.66875,30703
11.67810,26140
11.68743,24193
11.69677,23192
11.70612,24243
11.71545,24217
11.72478,23964
11.73413,23489
11.74347,22583
11.75282,20383
11.76215,20928
11.77148,21394
11.78083,24133
11.79017,23612
11.79950,23220
11.80885,21538
11.81818,19945
11.82752,20125
11.83687,20123
11.84620,17113
11.85553,18545
11.86488,19014
11.87422,19674
11.88355,19079
11.89290,20286
11.90223,17560
11.91157,17155
11.92092,17561
11.93025,20393
11.93960,25250
11.94893,25629
11.95827,24489
11.96762,20699
11.97695,18709
11.98628,18967
11.99563,21816
12.00497,24805
12.01430,27417
12.02365,25980
12.03298,23519
12.04232,20529
12.05167,18582
12.06100,19974
12.07033,16908
12.07968,16727
12.08902,17648
12.09835,16629
12.10770,16769
12.11703,16716
12.12638,16317
12.13572,18026
12.14505,18920
12.15440,25901
12.16373,46905
12.17307,71639
12.18242,72216
12.19175,44842
12.20108,26372
12.21043,20981
12.21977,25398
12.22910,28940
12.23845,25651
12.24778,22667
12.25712,20535
12.26647,24896
12.27580,32244
12.28513,35431
12.29448,28001
12.30382,23192
12.31317,20813
12.32250,20603
12.33183,23025
12.34118,26317
12.35052,23856
12.35985,21437
12.36920,20316
12.37853,19033
12.38787,18505
12.39722,18774
12.40655,17395
12.41588,18555
12.42523,17234
12.43457,17349
12.44390,17655
12.45325,19264
12.46258,21024
12.47192,22351
12.48127,22051
12.49060,22954
12.49995,23077
12.50928,24274
12.51862,22872
12.52797,22265
12.53730,22539
12.54663,21360
12.55598,24512
12.56532,24902
12.57465,24290
12.58400,22215
12.59333,19937
12.60267,18979
12.61202,19400
12.62135,22095
12.63068,24060
12.64003,26538
12.64937,26172
12.65872,25783
12.66805,23500
12.67738,18266
12.68673,16062
12.69607,16798
12.70540,17284
12.71475,18669
12.72408,18996
12.73342,19134
12.74277,19681
12.75210,20521
12.76143,18883
12.77078,17581
12.78012,16452
12.78945,17006
12.79880,17655
12.80813,16874
12.81747,18139
12.82682,17634
12.83615,19052
12.84550,19268
12.85483,17552
12.86417,16959
12.87352,16648
12.88285,16068
12.89218,18114
12.90153,17596
12.91087,17152
12.92020,15056
12.92955,15811
12.93888,16260
12.94822,17827
12.95757,16620
12.96690,15943
12.97623,15974
12.98558,15075
12.99492,14939
13.00425,15655
13.01360,17186
13.02293,20387
13.03228,23603
13.04162,20488
13.05095,16873
13.06030,18206
13.06963,19594
13.07897,19326
13.08832,18137
13.09765,17317
13.10698,16680
13.11633,17231
13.12567,16546
13.13500,20205
13.14435,20957
13.15368,19521
13.16302,19478
13.17237,19585
13.18170,23300
13.19105,48949
13.20038,108987
13.20972,147597
13.21907,124234
13.22840,66878
13.23773,45420
13.24708,45443
13.25642,35226
13.26575,26013
13.27510,23067
13.28443,21302
13.29377,21683
13.30312,21631
13.31245,25674
13.32178,25296
13.33113,23626
13.34047,23994
13.34980,22746
13.35915,21200
13.36848,19827
13.37783,19421
13.38717,25892
13.39650,28896
13.40585,25853
13.41518,20950
13.42452,19539
13.43387,21291
13.44320,23254
13.45253,20060
13.46188,22274
13.47122,22797
13.48055,23082
13.48990,19096
13.49923,20877
13.50857,27619
13.51792,41788
13.52725,48361
13.53658,37632
13.54593,25691
13.55527,19464
13.56462,18845
13.57395,19246
13.58328,17495
13.59263,18337
13.60197,18443
13.61130,18952
13.62065,17151
13.62998,18335
13.63932,20308
13.64867,22714
13.65800,21934
13.66733,20891
13.67668,18097
13.68602,16327
13.69535,15174
13.70470,15913
13.71403,15693
13.72337,16139
13.73272,15407
13.74205,16508
13.75140,17298
13.76073,16474
13.77007,15730
13.77942,15261
13.78875,18594
13.79808,19973
13.80743,20057
13.81677,18671
13.82610,19688
13.83545,17806
13.84478,18773
13.85412,19634
13.86347,20122
13.87280,22353
13.88213,26272
13.89148,40730
13.90082,69988
13.91015,115230
13.91950,121132
13.92883,77186
13.93818,39879
13.94752,27527
13.95685,25264
13.96620,23010
13.97553,21263
13.98487,21732
13.99422,21208
14.00355,20140
14.01288,19126
14.02223,20564
14.03157,38190
14.04090,209912
14.05025,1170324
14.05958,3342841
14.06892,4464661
14.07827,2794571
14.08760,850130
14.09693,156077
14.10628,48574
14.11562,36494
14.12497,30647
14.13430,28024
14.14363,30811
14.15298,29603
14.16232,32002
14.17165,30018
14.18100,29321
14.19033,33994
14.19967,34108
14.20902,28756
14.21835,26211
14.22768,21872
14.23703,20590
14.24637,21676
14.25570,21668
14.26505,24133
14.27438,22496
14.28373,22556
14.29307,20873
14.30240,23721
14.31175,30076
14.32108,39636
14.33042,38718
14.33977,34256
14.34910,25048
14.35843,22187
14.36778,20751
14.37712,22151
14.38645,23672
14.39580,23229
14.40513,20760
14.41447,20558
14.42382,19566
14.43315,19858
14.44248,24981
14.45183,38341
14.46117,46863
14.47052,51476
14.47985,39286
14.48918,28900
14.49853,23966
14.50787,21498
14.51720,21017
14.52655,21171
14.53588,20952
14.54522,21595
14.55457,23866
14.56390,23456
14.57323,23600
14.58258,23260
14.59192,21149
14.60125,19417
14.61060,20904
14.61993,19689
14.62927,21288
14.63862,25898
14.64795,31580
14.65730,34504
14.66663,32043
14.67597,28486
14.68532,26890
14.69465,24723
14.70398,23045
14.71333,22276
14.72267,23143
14.73200,23273
14.74135,24385
14.75068,22572
14.76002,22126
14.76937,20561
14.77870,22594
14.78803,23562
14.79738,22786
14.80672,22850
14.81605,24517
14.82540,23540
14.83473,24367
14.84408,33824
14.85342,41220
14.86275,44248
14.87210,39646
14.88143,28601
14.89077,21943
14.90012,22123
14.90945,21174
14.91878,23338
14.92813,22737
14.93747,21769
14.94680,21144
14.95615,22262
14.96548,25655
14.97482,25991
14.98417,24474
14.99350,27187
15.00285,35067
15.01218,37177
15.02152,31008
15.03087,32891
15.04020,35777
15.04953,39916
15.05888,35006
15.06822,33036
15.07755,27741
15.08690,23783
15.09623,21853
15.10557,26385
15.11492,32031
15.12425,42527
15.13358,42424
15.14293,35523
15.15227,25405
15.16160,21806
15.17095,20867
15.18028,23278
15.18963,30023
15.19897,46587
15.20830,62940
15.21765,65145
15.22698,52088
15.23632,39063
15.24567,29818
15.25500,27945
15.26433,25761
15.27368,26444
15.28302,27162
15.29235,25173
15.30170,23144
15.31103,30303
15.32037,37913
15.32972,42253
15.33905,37817
15.34838,30490
15.35773,32279
15.36707,35416
15.37642,35428
15.38575,28067
15.39508,23574
15.40443,22209
15.41377,26404
15.42310,27372
15.43245,24880
15.44178,24281
15.45112,22067
15.46047,22899
15.46980,22911
15.47913,24723
15.48848,26455
15.49782,34519
15.50715,46647
15.51650,53750
15.52583,44823
15.53517,31630
15.54452,25871
15.55385,23403
15.56320,22889
15.57253,23124
15.58187,23365
15.59122,24166
15.60055,24098
15.60988,25421
15.61923,26703
15.62857,31239
15.63790,35055
15.64725,36382
15.65658,34877
15.66592,32382
15.67527,29831
15.68460,29531
15.69393,34025
15.70328,39155
15.71262,39332
15.72195,32610
15.73130,31390
15.74063,34930
15.74998,37992
15.75932,36828
15.76865,35169
15.77800,30617
15.78733,29892
15.79667,30527
15.80602,36262
15.81535,66823
15.82468,158483
15.83403,301169
15.84337,328128
15.85270,208918
15.86205,98572
15.87138,59501
15.88072,54102
15.89007,55971
15.89940,57765
15.90873,52341
15.91808,42821
15.92742,35864
15.93677,32402
15.94610,32000
15.95543,32404
15.96478,36389
15.97412,42724
15.98345,50814
15.99280,48475
16.00213,41010
16.01147,34445
16.02082,34957
16.03015,33114
16.03948,36606
16.04883,38773
16.05817,39316
16.06750,38248
16.07685,36077
16.08618,35450
16.09553,31085
16.10487,32454
16.11420,37338
16.12355,38690
16.13288,35782
16.14222,33799
16.15157,35677
16.16090,33889
16.17023,31890
16.17958,28340
16.18892,26304
16.19825,31680
16.20760,33513
16.21693,36259
16.22627,37062
16.23562,42572
16.24495,40055
16.25428,37737
16.26363,42085
16.27297,51008
16.28232,95656
16.29165,148915
16.30098,151572
16.31033,103457
16.31967,59352
16.32900,41314
16.33835,33767
16.34768,27141
16.35702,23936
16.36637,25779
16.37570,26968
16.38503,29435
16.39438,33327
16.40372,36169
16.41305,38464
16.42240,37319
16.43173,33979
16.44107,34799
16.45042,37565
16.45975,36617
16.46910,33445
16.47843,31554
16.48777,31045
16.49712,32349
16.50645,31172
16.51578,34294
16.52513,32569
16.53447,32523
16.54380,31406
16.55315,32410
16.56248,34000
16.57182,35934
16.58117,36451
16.59050,33837
16.59983,32081
16.60918,33366
16.61852,40439
16.62785,41293
16.63720,39611
16.64653,36636
16.65588,34663
16.66522,32813
16.67455,36991
16.68390,40403
16.69323,48679
16.70257,47045
16.71192,38777
16.72125,33462
16.73058,41348
16.73993,61042
16.74927,75249
16.75860,61470
16.76795,39748
16.77728,29982
16.78662,29513
16.79597,28875
16.80530,30310
16.81465,34692
16.82398,42516
16.83332,45680
16.84267,40079
16.85200,31288
16.86133,30107
16.87068,30214
16.88002,29069
16.88935,33884
16.89870,41088
16.90803,55280
16.91737,56887
16.92672,52792
16.93605,45201
16.94538,47377
16.95473,46665
16.96407,43494
16.97340,37203
16.98275,30952
16.99208,29958
17.00143,30841
17.01077,38153
17.02010,53564
17.02945,71715
17.03878,66628
17.04812,47746
17.05747,38627
17.06680,36401
17.07613,33825
17.08548,33289
17.09482,34155
17.10415,32864
17.11350,34415
17.12283,39864
17.13217,43486
17.14152,39807
17.15085,34234
17.16018,29718
17.16953,30234
17.17887,27485
17.18822,30071
17.19755,29333
17.20688,30219
17.21623,29725
17.22557,28012
17.23490,27006
17.24425,28069
17.25358,29210
17.26292,31586
17.27227,35479
17.28160,34220
17.29093,29944
17.30028,31186
17.30962,33878
17.31895,40094
17.32830,37970
17.33763,36430
17.34697,34006
17.35632,35373
17.36565,51584
17.37500,92764
17.38433,126340
17.39367,104611
17.40302,63285
17.41235,50427
17.42168,45635
17.43103,42507
17.44037,42024
17.44970,42947
17.45905,38687
17.46838,37504
17.47772,63439
17.48707,283787
17.49640,1139122
17.50573,2367408
17.51508,2371797
17.52442,1222368
17.53375,320794
17.54310,82735
17.55243,51391
17.56178,44702
17.57112,44744
17.58045,45460
17.58980,45668
17.59913,43010
17.60847,38362
17.61782,35117
17.62715,35614
17.63648,36956
17.64583,39681
17.65517,45154
17.66450,46076
17.67385,45387
17.68318,48771
17.69252,48302
17.70187,46035
17.71120,42562
17.72055,38488
17.72988,37791
17.73922,37807
17.74857,41792
17.75790,45769
17.76723,45768
17.77658,38679
17.78592,34319
17.79525,28183
17.80460,30931
17.81393,33306
17.82327,35542
17.83262,37565
17.84195,37375
17.85128,44352
17.86063,48897
17.86997,45131
17.87930,44450
17.88865,39444
17.89798,36741
17.90733,32304
17.91667,29175
17.92600,29349
17.93535,30234
17.94468,34719
17.95402,36776
17.96337,38227
17.97270,34922
17.98203,33607
17.99138,32537
18.00072,30383
18.01005,30793
18.01940,30130
18.02873,29555
18.03807,33726
18.04742,37739
18.05675,38279
18.06608,35246
18.07543,30703
18.08477,28476
18.09412,31569
18.10345,33923
18.11278,34348
18.12213,35939
18.13147,37350
18.14080,40567
18.15015,38348
18.15948,39175
18.16882,37916
18.17817,32591
18.18750,31803
18.19683,28602
18.20618,30339
18.21552,30411
18.22485,31611
18.23420,31961
18.24353,29249
18.25287,30807
18.26222,32438
18.27155,36903
18.28090,41145
18.29023,41557
18.29957,44018
18.30892,44475
18.31825,43956
18.32758,49887
18.33693,54792
18.34627,61292
18.35560,56737
18.36495,43969
18.37428,34133
18.38362,33166
18.39297,34176
18.40230,34050
18.41163,36837
18.42098,40245
18.43032,44493
18.43967,45314
18.44900,45535
18.45833,39179
18.46768,34814
18.47702,37559
18.48635,46595
18.49570,61534
18.50503,74090
18.51437,70748
18.52372,60755
18.53305,46668
18.54238,44459
18.55173,42409
18.56107,38119
18.57040,33197
18.57975,28948
18.58908,31945
18.59842,36737
18.60777,39815
18.61710,42173
18.62645,43853
18.63578,45276
18.64512,41021
18.65447,36846
18.66380,36669
18.67313,34071
18.68248,34793
18.69182,37427
18.70115,41589
18.71050,44216
18.71983,45319
18.72917,44637
18.73852,40062
18.74785,38806
18.75718,34929
18.76653,29949
18.77587,30988
18.78520,31853
18.79455,35818
18.80388,34686
18.81323,35063
18.82257,33336
18.83190,33921
18.84125,31329
18.85058,31842
18.85992,28838
18.86927,28945
18.87860,30054
18.88793,32112
18.89728,40614
18.90662,46148
18.91595,45865
18.92530,43078
18.93463,41882
18.94397,46055
18.95332,48386
18.96265,52167
18.97198,46261
18.98133,41714
18.99067,37169
19.00002,36091
19.00935,33723
19.01868,34911
19.02803,42366
19.03737,55293
19.04670,72149
19.05605,76521
19.06538,88613
19.07472,136804
19.08407,165027
19.09340,137082
19.10273,81338
19.11208,50363
19.12142,38479
19.13075,36803
19.14010,34144
19.14943,31968
19.15877,30939
19.16812,32399
19.17745,37689
19.18680,39851
19.19613,42232
19.20547,45406
19.21482,47484
19.22415,45805
19.23348,38986
19.24283,34040
19.25217,32453
19.26150,35103
19.27085,35543
19.28018,36801
19.28952,38358
19.29887,43428
19.30820,50192
19.31753,50246
19.32688,43485
19.33622,38767
19.34555,36484
19.35490,34562
19.36423,33045
19.37358,33788
19.38292,34841
19.39225,43536
19.40160,45593
19.41093,43149
19.42027,38040
19.42962,30023
19.43895,29508
19.44828,28735
19.45763,31074
19.46697,33097
19.47630,35556
19.48565,36018
19.49498,34962
19.50432,33005
19.51367,30679
19.52300,30398
19.53235,30929
19.54168,30319
19.55102,28294
19.56037,28820
19.56970,32815
19.57903,33803
19.58838,33471
19.59772,32423
19.60705,33273
19.61640,32990
19.62573,34627
19.63507,39186
19.64442,33878
19.65375,30380
19.66308,31686
19.67243,30489
19.68177,30287
19.69110,29048
19.70045,33589
19.70978,42563
19.71913,51490
19.72847,55666
19.73780,49535
19.74715,39758
19.75648,34861
19.76582,34691
19.77517,38333
19.78450,38927
19.79383,39567
19.80318,38116
19.81252,36293
19.82185,37651
19.83120,33648
19.84053,31050
19.84987,32899
19.85922,42769
19.86855,54582
19.87788,54999
19.88723,44642
19.89657,35911
19.90592,34955
19.91525,36105
19.92458,36635
19.93393,35311
19.94327,34218
19.95260,35064
19.96195,35108
19.97128,32821
19.98062,30388
19.98997,28518
19.99930,28589
20.00863,29863
20.01798,33744
20.02732,40076
20.03665,42475
20.04600,39496
20.05533,34616
20.06467,33260
20.07402,37037
20.08335,35362
20.09270,31964
20.10203,29713
20.11137,27049
20.12072,26829
20.13005,31512
20.13938,43950
20.14873,54101
20.15807,50581
20.16740,40760
20.17675,32880
20.18608,29153
20.19542,29171
20.20477,28496
20.21410,28494
20.22343,30021
20.23278,27861
20.24212,28195
20.25147,28139
20.26080,27318
20.27013,28681
20.27948,30335
20.28882,30405
20.29815,28623
20.30750,26408
20.31683,25691
20.32617,28923
20.33552,25946
20.34485,28153
20.35418,28757
20.36353,29729
20.37287,30237
20.38220,28635
20.39155,26628
20.40088,24869
20.41022,26045
20.41957,26884
20.42890,29775
20.43825,27668
20.44758,31523
20.45692,37279
20.46627,43224
20.47560,44690
20.48493,35681
20.49428,31218
20.50362,28741
20.51295,29398
20.52230,29905
20.53163,29526
20.54097,33675
20.55032,59099
20.55965,149110
20.56898,334505
20.57833,373388
20.58767,219333
20.59700,91690
20.60635,49702
20.61568,44018
20.62503,39295
20.63437,41099
20.64370,39246
20.65305,42610
20.66238,44130
20.67172,41933
20.68107,42171
20.69040,41385
20.69973,36965
20.70908,38213
20.71842,36461
20.72775,32957
20.73710,33082
20.74643,30928
20.75577,31854
20.76512,30214
20.77445,27611
20.78378,31074
20.79313,34101
20.80247,33262
20.81182,33220
20.82115,32122
20.83048,28051
20.83983,27705
20.84917,27575
20.85850,27835
20.86785,28092
20.87718,28640
20.88652,30339
20.89587,30101
20.90520,31010
20.91453,29070
20.92388,29209
20.93322,27661
20.94255,29215
20.95190,27389
20.96123,26659
20.97057,25662
20.97992,26810
20.98925,26194
20.99860,28092
21.00793,26158
21.01727,25662
21.02662,25207
21.03595,26601
21.04528,27682
21.05463,26429
21.06397,26896
21.07330,27450
21.08265,27836
21.09198,30912
21.10132,32247
21.11067,30913
21.12000,34989
21.12933,34564
21.13868,35139
21.14802,31828
21.15735,30551
21.16670,29730
21.17603,33832
21.18538,36039
21.19472,39209
21.20405,35531
21.21340,35358
21.22273,34817
21.23207,32365
21.24142,32789
21.25075,37292
21.26008,42940
21.26943,57454
21.27877,64993
21.28810,64661
21.29745,50496
21.30678,40754
21.31612,35361
21.32547,31722
21.33480,30798
21.34415,30100
21.35348,29801
21.36282,31399
21.37217,28982
21.38150,29519
21.39083,33738
21.40018,39849
21.40952,47350
21.41885,47281
21.42820,42024
21.43753,34780
21.44687,30792
21.45622,31974
21.46555,36344
21.47488,43028
21.48423,44369
21.49357,41695
21.50290,36305
21.51225,32313
21.52158,29939
21.53093,28419
21.54027,25656
21.54960,29598
21.55895,34236
21.56828,36352
21.57762,39218
21.58697,40481
21.59630,38053
21.60563,32723
21.61498,31797
21.62432,30820
21.63365,28004
21.64300,28695
21.65233,28822
21.66167,28881
21.67102,32280
21.68035,29994
21.68968,29861
21.69903,29458
21.70837,32211
21.71772,31131
21.72705,30777
21.73638,28572
21.74573,27069
21.75507,27472
21.76440,26934
21.77375,26558
21.78308,28658
21.79242,28438
21.80177,29769
21.81110,32095
21.82043,33695
21.82978,32075
21.83912,28188
21.84845,28898
21.85780,28758
21.86713,30505
21.87647,35509
21.88582,36065
21.89515,38220
21.90450,33630
21.91383,31452
21.92317,31797
21.93252,30900
21.94185,30918
21.95118,31885
21.96053,34096
21.96987,50472
21.97920,67412
21.98855,78284
21.99788,61151
22.00722,41413
22.01657,33335
22.02590,32875
22.03523,33469
22.04458,32649
22.05392,35625
22.06327,37882
22.07260,40327
22.08193,37570
22.09128,37689
22.10062,34779
22.10995,36687
22.11930,33938
22.12863,31896
22.13797,31676
22.14732,35455
22.15665,41756
22.16598,41744
22.17533,38359
22.18467,33501
22.19400,31392
22.20335,29000
22.21268,30872
22.22202,31408
22.23137,31039
22.24070,30756
22.25005,29220
22.25938,28906
22.26872,31962
22.27807,35562
22.28740,37300
22.29673,34531
22.30608,34316
22.31542,32589
22.32475,28976
22.33410,27931
22.34343,29924
22.35277,30806
22.36212,31956
22.37145,30474
22.38078,29042
22.39013,30731
22.39947,30945
22.40880,29953
22.41815,27562
22.42748,33276
22.43683,35634
22.44617,35993
22.45550,34069
22.46485,31039
22.47418,29480
22.48352,28701
22.49287,27649
22.50220,27502
22.51153,26313
22.52088,27072
22.53022,28142
22.53955,27200
22.54890,26218
22.55823,29490
22.56757,35283
22.57692,36315
22.58625,39125
22.59558,39367
22.60493,38162
22.61427,38160
22.62362,36062
22.63295,35336
22.64228,32060
22.65163,27983
22.66097,28342
22.67030,30519
22.67965,35478
22.68898,37913
22.69832,36798
22.70767,31876
22.71700,30162
22.72633,32125
22.73568,32390
22.74502,34299
22.75435,34172
22.76370,34766
22.77303,33281
22.78237,31773
22.79172,30123
22.80105,31547
22.81040,30007
22.81973,28332
22.82907,32786
22.83842,35067
22.84775,34166
22.85708,33472
22.86643,33406
22.87577,33090
22.88510,31661
22.89445,29598
22.90378,31788
22.91312,30392
22.92247,30775
22.93180,30911
22.94113,35113
22.95048,39437
22.95982,38653
22.96917,31940
22.97850,30010
22.98783,28342
22.99718,28130
23.00652,27943
23.01585,27214
23.02520,27079
23.03453,26320
23.04387,26454
23.05322,26881
23.06255,26858
23.07188,26287
23.08123,26567
23.09057,25347
23.09990,26643
23.10925,26795
23.11858,27038
23.12792,26405
23.13727,26577
23.14660,25319
23.15595,27642
23.16528,28794
23.17462,27311
23.18397,27522
23.19330,26723
23.20263,27968
23.21198,25534
23.22132,26116
23.23065,28317
23.24000,30503
23.24933,29824
23.25867,28309
23.26802,28567
23.27735,29572
23.28668,29694
23.29603,29794
23.30537,34014
23.31470,47037
23.32405,64651
23.33338,74288
23.34273,56902
23.35207,39335
23.36140,33448
23.37075,30441
23.38008,34100
23.38942,31415
23.39877,33060
23.40810,34526
23.41743,32394
23.42678,33496
23.43612,35326
23.44545,36504
23.45480,36843
23.46413,37936
23.47347,34408
23.48282,33014
23.49215,31213
23.50148,31354
23.51083,30918
23.52017,30584
23.52952,32287
23.53885,32935
23.54818,31986
23.55753,29839
23.56687,31881
23.57620,31745
23.58555,28383
23.59488,30645
23.60422,29883
23.61357,28633
23.62290,27654
23.63223,28273
23.64158,25817
23.65092,28358
23.66025,27637
23.66960,29824
23.67893,30125
23.68828,28089
23.69762,29869
23.70695,29415
23.71630,29257
23.72563,29081
23.73497,32454
23.74432,30324
23.75365,27312
23.76298,28238
23.77233,29127
23.78167,30832
23.79100,28924
23.80035,28904
23.80968,28196
23.81902,28367
23.82837,26768
23.83770,28769
23.84703,29595
23.85638,28477
23.86572,32419
23.87507,33566
23.88440,33647
23.89373,32070
23.90308,31138
23.91242,29944
23.92175,29997
23.93110,29618
23.94043,32364
23.94977,32070
23.95912,31980
23.96845,30387
23.97778,27919
23.98713,31526
23.99647,33019
24.00580,31595
24.01515,28624
24.02448,26509
24.03382,26276
24.04317,26050
24.05250,27013
24.06185,26716
24.07118,29384
24.08052,29051
24.08987,30020
24.09920,28446
24.10853,29235
24.11788,28551
24.12722,30194
24.13655,29611
24.14590,32543
24.15523,33049
24.16457,34688
24.17392,36725
24.18325,37313
24.19258,32990
24.20193,30659
24.21127,30430
24.22060,32138
24.22995,30924
24.23928,32769
24.24863,33763
24.25797,32730
24.26730,30325
24.27665,30463
24.28598,30476
24.29532,29815
24.30467,31340
24.31400,30818
24.32333,33185
24.33268,31821
24.34202,30032
24.35135,30062
24.36070,32356
24.37003,29637
24.37937,32266
24.38872,30692
24.39805,29999
24.40738,29384
24.41673,28255
24.42607,29783
24.43542,31249
24.44475,28834
24.45408,29544
24.46343,30904
24.47277,31073
24.48210,31077
24.49145,31081
24.50078,31498
24.51012,31383
24.51947,30820
24.52880,30705
24.53813,29869
24.54748,31908
24.55682,30660
24.56615,30885
24.57550,31088
24.58483,31150
24.59418,32146
24.60352,35174
24.61285,35806
24.62220,33713
24.63153,31284
24.64087,33068
24.65022,32864
24.65955,32096
24.66888,30701
24.67823,30989
24.68757,31336
24.69690,31656
24.70625,31546
24.71558,34160
24.72492,31982
24.73427,30829
24.74360,33523
24.75293,31712
24.76228,30541
24.77162,30837
24.78097,30889
24.79030,31631
24.79963,30616
24.80898,29757
24.81832,28754
24.82765,31685
24.83700,32615
24.84633,30210
24.85567,30010
24.86502,31525
24.87435,30116
24.88368,31475
24.89303,31083
24.90237,31861
24.91170,33136
24.92105,30698
24.93038,31544
24.93972,33132
24.94907,33194
24.95840,32615
24.96775,32268
24.97708,32405
24.98642,33639
24.99577,32324
25.00510,33664
25.01443,31466
25.02378,32766
25.03312,34275
25.04245,33930
25.05180,34321
25.06113,33828
25.07047,31653
25.07982,31116
25.08915,33145
25.09848,36682
25.10783,37430
25.11717,38058
25.12650,36641
25.13585,37861
25.14518,36580
25.15453,36775
25.16387,37833
25.17320,36505
25.18255,38806
25.19188,36903
25.20122,35960
25.21057,35191
25.21990,33458
25.22923,35404
25.23858,36208
25.24792,36171
25.25725,36310
25.26660,33645
25.27593,33744
25.28527,32822
25.29462,34793
25.30395,31690
25.31330,36665
25.32263,41889
25.33197,51374
25.34132,54156
25.35065,53150
25.35998,49961
25.36933,47213
25.37867,45463
25.38800,41823
25.39735,41034
25.40668,38188
25.41602,37369
25.42537,37965
25.43470,40375
25.44403,39379
25.45338,37794
25.46272,36979
25.47205,37559
25.48140,40015
25.49073,44246
25.50008,43620
25.50942,41994
25.51875,41941
25.52810,37241
25.53743,39244
25.54677,36909
25.55612,37760
25.56545,36986
25.57478,38189
25.58413,36458
25.59347,36833
25.60280,37421
25.61215,38195
25.62148,40547
25.63082,40177
25.64017,40235
25.64950,40705
25.65883,42474
25.66818,40558
25.67752,37081
25.68687,38642
25.69620,36142
25.70553,39231
25.71488,37895
25.72422,37141
25.73355,37855
25.74290,38725
25.75223,38906
25.76157,39143
25.77092,39604
25.78025,37991
25.78958,40091
25.79893,39521
25.80827,40963
25.81760,41390
25.82695,46052
25.83628,46842
25.84562,42138
25.85497,41706
25.86430,40399
25.87365,40117
25.88298,43159
25.89232,40331
25.90167,39077
25.91100,42335
25.92033,41487
25.92968,42826
25.93902,42077
25.94835,41422
25.95770,41994
25.96703,43102
25.97637,39978
25.98572,39814
25.99505,40482
26.00438,40967
26.01373,39502
26.02307,40828
26.03240,38715
26.04175,41914
26.05108,40014
26.06043,39479
26.06977,39571
26.07910,39493
26.08845,40230
26.09778,41583
26.10712,41071
26.11647,38521
26.12580,40844
26.13513,43679
26.14448,40601
26.15382,41153
26.16315,39668
26.17250,38449
26.18183,38104
26.19117,40837
26.20052,39298
26.20985,38586
26.21918,39437
26.22853,41333
26.23787,41312
26.24722,40347
26.25655,38255
26.26588,39463
26.27523,40208
26.28457,44209
26.29390,44615
26.30325,44790
26.31258,42756
26.32192,41848
26.33127,40670
26.34060,41627
26.34993,41984
26.35928,40054
26.36862,41092
26.37795,42685
26.38730,40798
26.39663,39189
26.40598,39863
26.41532,40043
26.42465,41558
26.43400,41471
26.44333,43075
26.45267,43758
26.46202,41049
26.47135,40648
26.48068,43292
26.49003,42264
26.49937,40932
26.50870,42040
26.51805,39958
26.52738,38364
26.53672,39913
26.54607,40510
26.55540,40493
26.56473,41354
26.57408,42709
26.58342,44893
26.59277,40930
26.60210,41422
26.61143,41567
26.62078,45681
26.63012,50308
26.63945,50618
26.64880,53089
26.65813,51262
26.66747,49581
26.67682,48168
26.68615,44304
26.69548,41977
26.70483,43792
26.71417,43462
26.72350,43231
26.73285,43336
26.74218,44051
26.75152,42107
26.76087,42940
26.77020,41359
26.77955,40645
26.78888,41686
26.79822,41111
26.80757,40539
26.81690,38056
26.82623,39474
26.83558,39741
26.84492,39441
26.85425,40033
26.86360,40375
26.87293,40937
26.88227,41400
26.89162,39797
26.90095,41373
26.91028,42074
26.91963,42078
26.92897,42798
26.93830,40509
26.94765,38847
26.95698,40531
26.96633,40425
26.97567,40252
26.98500,40096
26.99435,41001
27.00368,41942
27.01302,40859
27.02237,43094
27.03170,41654
27.04103,40952
27.05038,42995
27.05972,40458
27.06905,40296
27.07840,41510
27.08773,40498
27.09707,40066
27.10642,40827
27.11575,40335
27.12510,42569
27.13443,40890
27.14377,41809
27.15312,42623
27.16245,41570
27.17178,41579
27.18113,42159
27.19047,41829
27.19980,38973
27.20915,40172
27.21848,40441
27.22782,41450
27.23717,41657
27.24650,40933
27.25583,42459
27.26518,41837
27.27452,42494
27.28385,45542
27.29320,47361
27.30253,51732
27.31188,48712
27.32122,45174
27.33055,42452
27.33990,42841
27.34923,42784
27.35857,43309
27.36792,44874
27.37725,42193
27.38658,42719
27.39593,41414
27.40527,40982
27.41460,44741
27.42395,43445
27.43328,44878
27.44262,42452
27.45197,44954
27.46130,44647
27.47063,43569
27.47998,41852
27.48932,43361
27.49867,41790
27.50800,43790
27.51733,43838
27.52668,41174
27.53602,44261
27.54535,42192
27.55470,42917
27.56403,43015
27.57337,42154
27.58272,42799
27.59205,40830
27.60138,43941
27.61073,42044
27.62007,42520
27.62940,40496
27.63875,42044
27.64808,42349
27.65742,42642
27.66677,44550
27.67610,43476
27.68545,43560
27.69478,43984
27.70412,48134
27.71347,47403
27.72280,46146
27.73213,47494
27.74148,46437
27.75082,46410
27.76015,46376
27.76950,46146
27.77883,49017
27.78817,49138
27.79752,49267
27.80685,49837
27.81618,47034
27.82553,45580
27.83487,47734
27.84420,46734
27.85355,45426
27.86288,44730
27.87223,43827
27.88157,45739
27.89090,44877
27.90025,44638
27.90958,45555
27.91892,44742
27.92827,44089
27.93760,45908
27.94693,43941
27.95628,44306
27.96562,43734
27.97495,44791
27.98430,40632
27.99363,45494
28.00297,43131
28.01232,45321
28.02165,45617
28.03100,46856
28.04033,50630
28.04967,53708
28.05902,53259
28.06835,51667
28.07768,47080
28.08703,47255
28.09637,49524
28.10570,48507
28.11505,51039
28.12438,47001
28.13372,46735
28.14307,46087
28.15240,47005
28.16173,46982
28.17108,46814
28.18042,48021
28.18975,49257
28.19910,47251
28.20843,48909
28.21778,44942
28.22712,47920
28.23645,46859
28.24580,48141
28.25513,45900
28.26447,46100
28.27382,47000
28.28315,46932
28.29248,45786
28.30183,48098
28.31117,47513
28.32050,46830
28.32985,47865
28.33918,49723
28.34852,45644
28.35787,49098
28.36720,48498
28.37653,47881
28.38588,47960
28.39522,46020
28.40457,48330
28.41390,48857
28.42323,48918
28.43258,47108
28.44192,48839
28.45125,47743
28.46060,49175
28.46993,49585
28.47927,50888
28.48862,47980
28.49795,49755
28.50728,49150
28.51663,48946
28.52597,50009
28.53530,50093
28.54465,50513
28.55398,50059
28.56332,50244
28.57267,51754
28.58200,50319
28.59135,51930
28.60068,51675
28.61002,48079
28.61937,52538
28.62870,50779
28.63803,52091
28.64738,50503
28.65672,52644
28.66605,59743
28.67540,65409
28.68473,64133
28.69407,61459
28.70342,58717
28.71275,55334
28.72208,54813
28.73143,52701
28.74077,54113
28.75012,53724
28.75945,53729
28.76878,53389
28.77813,55541
28.78747,52597
28.79680,53265
28.80615,54178
28.81548,52598
28.82482,52755
28.83417,53080
28.84350,53728
28.85283,54581
28.86218,54069
28.87152,54249
28.88085,55363
28.89020,56403
28.89953,55967
28.90887,55145
28.91822,55271
28.92755,54911
28.93690,55917
28.94623,57155
28.95557,54882
28.96492,54529
28.97425,54968
28.98358,54964
28.99293,55115
29.00227,53786
29.01160,56552
29.02095,58751
29.03028,55730
29.03962,57839
29.04897,54927
29.05830,55772
29.06763,55344
29.07698,59594
29.08632,57329
29.09565,55078
29.10500,56101
29.11433,57435
29.12368,55472
29.13302,56760
29.14235,57853
29.15170,57943
29.16103,56819
29.17037,57515
29.17972,58325
29.18905,61319
29.19838,59073
29.20773,58822
29.21707,58211
29.22640,59906
29.23575,58249
29.24508,58446
29.25442,61531
29.26377,57172
29.27310,58972
29.28243,58050
29.29178,60786
29.30112,58142
29.31047,60170
29.31980,58291
29.32913,57153
29.33848,59338
29.34782,59887
29.35715,58177
29.36650,59351
29.37583,59189
29.38517,61205
29.39452,60593
29.40385,57557
29.41318,59289
29.42253,58532
29.43187,58614
29.44120,61085
29.45055,63583
29.45988,65839
29.46922,63992
29.47857,62469
29.48790,61928
29.49725,60650
29.50658,61891
29.51592,60445
29.52527,62433
29.53460,60139
29.54393,60851
29.55328,59017
29.56262,65613
29.57195,60183
29.58130,60518
29.59063,61704
29.59997,62168
29.60932,61950
29.61865,61752
29.62798,63049
29.63733,60971
29.64667,59406
29.65600,62018
29.66535,60758
29.67468,60259
29.68403,61541
29.69337,62720
29.70270,61200
29.71205,60883
29.72138,61392
29.73072,61290
29.74007,61594
29.74940,60530
29.75873,59261
29.76808,61580
29.77742,60828
29.78675,59718
29.79610,60135
29.80543,59572
29.81477,62320
29.82412,63293
29.83345,61409
29.84280,63089
29.85213,62481
29.86147,62517
29.87082,61881
29.88015,62117
29.88948,58787
29.89883,59495
29.90817,62935
29.91750,62337
29.92685,65193
29.93618,63389
29.94552,62607
29.95487,62979
29.96420,61907
29.97353,63372
29.98288,62611
29.99222,61712
30.00155,63385
30.01090,63503
30.02023,62247
30.02958,63037
30.03892,60687
30.04825,62118
30.05760,62979
30.06693,61254
30.07627,64501
30.08562,64881
30.09495,64821
30.10428,63789
30.11363,61762
30.12297,65736
30.13230,66054
30.14165,62419
30.15098,62765
30.16032,64370
30.16967,64170
30.17900,66067
30.18833,62017
30.19768,62741
30.20702,64410
30.21637,64162
30.22570,63809
30.23503,63430
30.24438,63383
30.25372,63891
30.26305,62762
30.27240,66063
30.28173,66567
30.29107,64599
30.30042,64822
30.30975,64606
30.31908,66136
30.32843,64810
30.33777,65978
30.34710,64275
30.35645,68876
30.36578,67520
30.37512,70942
30.38447,68739
30.39380,67078
30.40315,67435
30.41248,68053
30.42182,63493
30.43117,65508
30.44050,67473
30.44983,66382
30.45918,63210
30.46852,64351
30.47785,64292
30.48720,64710
30.49653,65324
30.50587,65742
30.51522,66800
30.52455,66599
30.53388,64487
30.54323,66045
30.55257,65079
30.56192,68607
30.57125,67858
30.58058,71287
30.58993,68671
30.59927,75424
30.60860,74234
30.61795,77173
30.62728,80865
30.63662,79888
30.64597,81717
30.65530,82973
30.66463,83539
30.67398,80797
30.68332,76573
30.69265,77816
30.70200,76353
30.71133,75212
30.72067,72120
30.73002,71659
30.73935,71570
30.74870,68294
30.75803,69312
30.76737,70644
30.77672,70905
30.78605,69906
30.79538,69629
30.80473,71359
30.81407,71468
30.82340,71374
30.83275,72889
30.84208,73136
30.85142,75068
30.86077,74530
30.87010,77907
30.87943,75876
30.88878,79085
30.89812,81754
30.90745,77092
30.91680,76630
30.92613,78575
30.93548,76884
30.94482,76919
30.95415,77429
30.96350,76329
30.97283,76363
30.98217,76576
30.99152,74122
31.00085,75329
31.01018,75179
31.01953,72571
31.02887,73561
31.03820,71592
31.04755,71687
31.05688,70265
31.06622,70811
31.07557,72476
31.08490,71043
31.09423,72745
31.10358,72483
31.11292,73282
31.12227,73858
31.13160,73067
31.14093,75582
31.15028,72778
31.15962,77374
31.16895,75071
31.17830,75926
31.18763,72782
31.19697,75154
31.20632,75304
31.21565,75808
31.22498,76930
31.23433,78545
31.24367,72777
31.25300,75055
31.26235,76296
31.27168,75993
31.28102,73652
31.29037,76455
31.29970,79802
31.30905,79991
31.31838,83187
31.32772,80909
31.33707,77378
31.34640,76010
31.35573,77323
31.36508,77046
