D:\数据\20220412\TEST3-ZRHX-2.D Tue Apr 12 17:58:24 2022
Start of data points
0.09763,20096
0.10697,19337
0.11632,21128
0.12565,20215
0.13498,21527
0.14433,20456
0.15367,20858
0.16300,20935
0.17235,21811
0.18168,20041
0.19102,21058
0.20037,19795
0.20970,19481
0.21903,19432
0.22838,20039
0.23772,19890
0.24705,18760
0.25640,18606
0.26573,19561
0.27507,19289
0.28442,18369
0.29375,18050
0.30310,18714
0.31243,19192
0.32177,19511
0.33112,18686
0.34045,19649
0.34978,19217
0.35913,18097
0.36847,18636
0.37780,18817
0.38715,18144
0.39648,18505
0.40582,15496
0.41517,14187
0.42450,13365
0.43383,11648
0.44318,8165
0.45252,5490
0.46185,5777
0.47120,4574
0.48053,5419
0.48988,5399
0.49922,5109
0.50855,5050
0.51790,5140
0.52723,4813
0.53657,4837
0.54592,4337
0.55525,4465
0.56458,4489
0.57393,5098
0.58327,4927
0.59260,4892
0.60195,4490
0.61128,3619
0.62062,4548
0.62997,4997
0.63930,4375
0.64863,5180
0.65798,3886
0.66732,4176
0.67667,4695
0.68600,4358
0.69533,4156
0.70468,4316
0.71402,4198
0.72335,4097
0.73270,4283
0.74203,4180
0.75137,4177
0.76072,3767
0.77005,4548
0.77938,4292
0.78873,3394
0.79807,3730
0.80740,4499
0.81675,4001
0.82608,4026
0.83542,3802
0.84477,3967
0.85410,4257
0.86345,4044
0.87278,4002
0.88212,4401
0.89147,3971
0.90080,4191
0.91013,3373
0.91948,3901
0.92882,4506
0.93815,4019
0.94750,3720
0.95683,4321
0.96617,4096
0.97552,4522
0.98485,3796
0.99418,3975
1.00353,3675
1.01287,3972
1.02222,3923
1.03155,3343
1.04088,4445
1.05023,3690
1.05957,4103
1.06890,4041
1.07825,3804
1.08758,4426
1.09692,3987
1.10627,3325
1.11560,3703
1.12493,4720
1.13428,3945
1.14362,3817
1.15295,3925
1.16230,4401
1.17163,4083
1.18097,3624
1.19032,3759
1.19965,3532
1.20900,4043
1.21833,4007
1.22767,3707
1.23702,3527
1.24635,4049
1.25568,3968
1.26503,4009
1.27437,3730
1.28370,3744
1.29305,4251
1.30238,4743
1.31172,4055
1.32107,4195
1.33040,3869
1.33973,4273
1.34908,3902
1.35842,3894
1.36775,3587
1.37710,3242
1.38643,3763
1.39578,3660
1.40512,3891
1.41445,3892
1.42380,3765
1.43313,3449
1.44247,3604
1.45182,3927
1.46115,4186
1.47048,3302
1.47983,3278
1.48917,3279
1.49850,3962
1.50785,4533
1.51718,3411
1.52652,2927
1.53587,3667
1.54520,3389
1.55453,3167
1.56388,3847
1.57322,3506
1.58257,4795
1.59190,10139
1.60123,15441
1.61058,19066
1.61992,21391
1.62925,25613
1.63860,32683
1.64793,36243
1.65727,37930
1.66662,33573
1.67595,27755
1.68528,25417
1.69463,20947
1.70397,15956
1.71330,15112
1.72265,15941
1.73198,18398
1.74133,19740
1.75067,20319
1.76000,22029
1.76935,22615
1.77868,24083
1.78802,22281
1.79737,23089
1.80670,24341
1.81603,23070
1.82538,21547
1.83472,23999
1.84405,22061
1.85340,22925
1.86273,25233
1.87207,30521
1.88142,51602
1.89075,88263
1.90008,128282
1.90943,152860
1.91877,173545
1.92812,195600
1.93745,221528
1.94678,224310
1.95613,215315
1.96547,190626
1.97480,155884
1.98415,124310
1.99348,104837
2.00282,88451
2.01217,83913
2.02150,97403
2.03083,118906
2.04018,106315
2.04952,83634
2.05885,66930
2.06820,57869
2.07753,53934
2.08687,50052
2.09622,48275
2.10555,43808
2.11490,47510
2.12423,56643
2.13357,69590
2.14292,83709
2.15225,95851
2.16158,93734
2.17093,80660
2.18027,90299
2.18960,206990
2.19895,300712
2.20828,221657
2.21762,123734
2.22697,95523
2.23630,150893
2.24563,332285
2.25498,799086
2.26432,2102831
2.27365,2895583
2.28300,2454062
2.29233,1611768
2.30168,1118492
2.31102,2132242
2.32035,4917776
2.32970,5277744
2.33903,3091342
2.34837,1375870
2.35772,612056
2.36705,306884
2.37638,194608
2.38573,146329
2.39507,113741
2.40440,96528
2.41375,94418
2.42308,85313
2.43242,78934
2.44177,70094
2.45110,62798
2.46043,59724
2.46978,59916
2.47912,57267
2.48847,53374
2.49780,47475
2.50713,46919
2.51648,45437
2.52582,45007
2.53515,43190
2.54450,48007
2.55383,54497
2.56317,60063
2.57252,72236
2.58185,88315
2.59118,97554
2.60053,101736
2.60987,107838
2.61920,143685
2.62855,166595
2.63788,144214
2.64723,140457
2.65657,138219
2.66590,111722
2.67525,77571
2.68458,58664
2.69392,45646
2.70327,45591
2.71260,75589
2.72193,171244
2.73128,251446
2.74062,202130
2.74995,137326
2.75930,106061
2.76863,93903
2.77797,102525
2.78732,110140
2.79665,107190
2.80598,97636
2.81533,95076
2.82467,87392
2.83402,91937
2.84335,206703
2.85268,627934
2.86203,1151227
2.87137,1065608
2.88070,615155
2.89005,292320
2.89938,143762
2.90872,92404
2.91807,69894
2.92740,59278
2.93673,52676
2.94608,46471
2.95542,44693
2.96475,43349
2.97410,41901
2.98343,45853
2.99277,60111
3.00212,72972
3.01145,79983
3.02080,81022
3.03013,169689
3.03947,282977
3.04882,265372
3.05815,199314
3.06748,155969
3.07683,124227
3.08617,96797
3.09550,66990
3.10485,51249
3.11418,43806
3.12352,41406
3.13287,41690
3.14220,48348
3.15153,80876
3.16088,138805
3.17022,164156
3.17955,117990
3.18890,74991
3.19823,50983
3.20758,42755
3.21692,39385
3.22625,36884
3.23560,35414
3.24493,34827
3.25427,36887
3.26362,37991
3.27295,36505
3.28228,35485
3.29163,36200
3.30097,39001
3.31030,39175
3.31965,36659
3.32898,35386
3.33832,35001
3.34767,32880
3.35700,34008
3.36635,32754
3.37568,34186
3.38502,32769
3.39437,32837
3.40370,35718
3.41303,39593
3.42238,46872
3.43172,45926
3.44105,45647
3.45040,42815
3.45973,41932
3.46907,39859
3.47842,35898
3.48775,36665
3.49708,35681
3.50643,36328
3.51577,34501
3.52510,34437
3.53445,34747
3.54378,52228
3.55313,112073
3.56247,210850
3.57180,257077
3.58115,201242
3.59048,126422
3.59982,94834
3.60917,82193
3.61850,65157
3.62783,57233
3.63718,50637
3.64652,44796
3.65585,42162
3.66520,43130
3.67453,43671
3.68387,43084
3.69322,39599
3.70255,36815
3.71188,37835
3.72123,40810
3.73057,42668
3.73992,40355
3.74925,36036
3.75858,33769
3.76793,32633
3.77727,32265
3.78660,32373
3.79595,38216
3.80528,39865
3.81462,43734
3.82397,45217
3.83330,41335
3.84263,39844
3.85198,35808
3.86132,35040
3.87065,34457
3.88000,37035
3.88933,41288
3.89867,49419
3.90802,49183
3.91735,46308
3.92670,47464
3.93603,60636
3.94537,67739
3.95472,62912
3.96405,57091
3.97338,46745
3.98273,37967
3.99207,33738
4.00140,33347
4.01075,33437
4.02008,35686
4.02942,54498
4.03877,111706
4.04810,177016
4.05743,171304
4.06678,117777
4.07612,82736
4.08545,72252
4.09480,66311
4.10413,58059
4.11348,46647
4.12282,38481
4.13215,35028
4.14150,33822
4.15083,34123
4.16017,34861
4.16952,33286
4.17885,30933
4.18818,29741
4.19753,32400
4.20687,33156
4.21620,33591
4.22555,33412
4.23488,33118
4.24422,29520
4.25357,31652
4.26290,32315
4.27225,33382
4.28158,34650
4.29092,30993
4.30027,33168
4.30960,39311
4.31893,58594
4.32828,70003
4.33762,61302
4.34695,47794
4.35630,39052
4.36563,34366
4.37497,34225
4.38432,32612
4.39365,31362
4.40298,29574
4.41233,29038
4.42167,28143
4.43100,28712
4.44035,28595
4.44968,29669
4.45903,34330
4.46837,41891
4.47770,48748
4.48705,48317
4.49638,41974
4.50572,35422
4.51507,33113
4.52440,31174
4.53373,30985
4.54308,30155
4.55242,30928
4.56175,29275
4.57110,28316
4.58043,28908
4.58977,30141
4.59912,30002
4.60845,30928
4.61778,28237
4.62713,29416
4.63647,32356
4.64582,33398
4.65515,34745
4.66448,33497
4.67383,33644
4.68317,38912
4.69250,52261
4.70185,65052
4.71118,61970
4.72052,47220
4.72987,37772
4.73920,32622
4.74853,30598
4.75788,31593
4.76722,32714
4.77655,32043
4.78590,30252
4.79523,31751
4.80457,32569
4.81392,34380
4.82325,35388
4.83260,36005
4.84193,33220
4.85127,31541
4.86062,29645
4.86995,30552
4.87928,30683
4.88863,32157
4.89797,33215
4.90730,34710
4.91665,33179
4.92598,32337
4.93532,33604
4.94467,35251
4.95400,34633
4.96333,31019
4.97268,29100
4.98202,30160
4.99137,30457
5.00070,27446
5.01003,31157
5.01938,32252
5.02872,37373
5.03805,35737
5.04740,31686
5.05673,30249
5.06607,29084
5.07542,28506
5.08475,30334
5.09408,30403
5.10343,30017
5.11277,27934
5.12210,27514
5.13145,30551
5.14078,29335
5.15012,31983
5.15947,29780
5.16880,29956
5.17815,31212
5.18748,33543
5.19682,31334
5.20617,29137
5.21550,28880
5.22483,28145
5.23418,30464
5.24352,31978
5.25285,33510
5.26220,41513
5.27153,72202
5.28087,119668
5.29022,144942
5.29955,126822
5.30888,85235
5.31823,55206
5.32757,48528
5.33690,40365
5.34625,34047
5.35558,30266
5.36493,29229
5.37427,29507
5.38360,33604
5.39295,38407
5.40228,37475
5.41162,36661
5.42097,31342
5.43030,30702
5.43963,29102
5.44898,29099
5.45832,28008
5.46765,27583
5.47700,27684
5.48633,28345
5.49567,30034
5.50502,29194
5.51435,30873
5.52368,36082
5.53303,39433
5.54237,37940
5.55172,35370
5.56105,31386
5.57038,30730
5.57973,29037
5.58907,28024
5.59840,27851
5.60775,27404
5.61708,26543
5.62642,26947
5.63577,27793
5.64510,26353
5.65443,28431
5.66378,29591
5.67312,30635
5.68245,30037
5.69180,30929
5.70113,30680
5.71047,33394
5.71982,35052
5.72915,32198
5.73850,34429
5.74783,39789
5.75717,46062
5.76652,41374
5.77585,37548
5.78518,31351
5.79453,30230
5.80387,26897
5.81320,29512
5.82255,31403
5.83188,32292
5.84122,32561
5.85057,31112
5.85990,30445
5.86923,30835
5.87858,29380
5.88792,28802
5.89725,28303
5.90660,35312
5.91593,55655
5.92528,79314
5.93462,77612
5.94395,57146
5.95330,45157
5.96263,37674
5.97197,32109
5.98132,28333
5.99065,27428
5.99998,29104
6.00933,28869
6.01867,27658
6.02800,26271
6.03735,24621
6.04668,22115
6.05602,20952
6.06537,19475
6.07470,17228
6.08405,16741
6.09338,14032
6.10272,14945
6.11207,14788
6.12140,19304
6.13073,27946
6.14008,29853
6.14942,25026
6.15875,16016
6.16810,14736
6.17743,13253
6.18677,14587
6.19612,13558
6.20545,14868
6.21478,15342
6.22413,17510
6.23347,20972
6.24280,21717
6.25215,21391
6.26148,21597
6.27083,23573
6.28017,22599
6.28950,16482
6.29885,14664
6.30818,12659
6.31752,12417
6.32687,11857
6.33620,11673
6.34553,11731
6.35488,13275
6.36422,14940
6.37355,26445
6.38290,39901
6.39223,57876
6.40157,94090
6.41092,134951
6.42025,124397
6.42958,67880
6.43893,30234
6.44827,18602
6.45762,15509
6.46695,15581
6.47628,15641
6.48563,14441
6.49497,13749
6.50430,15099
6.51365,15566
6.52298,16251
6.53232,14274
6.54167,13072
6.55100,13979
6.56033,13538
6.56968,11976
6.57902,12388
6.58835,14119
6.59770,14306
6.60703,14215
6.61637,15454
6.62572,14806
6.63505,16537
6.64440,15149
6.65373,17346
6.66307,18345
6.67242,17553
6.68175,17721
6.69108,17783
6.70043,17727
6.70977,17120
6.71910,15320
6.72845,15911
6.73778,13676
6.74712,12952
6.75647,14058
6.76580,12646
6.77513,16256
6.78448,25820
6.79382,46942
6.80317,61078
6.81250,50430
6.82183,27626
6.83118,18485
6.84052,16296
6.84985,14978
6.85920,13820
6.86853,13298
6.87787,13903
6.88722,13961
6.89655,16540
6.90588,20758
6.91523,21275
6.92457,16536
6.93390,15293
6.94325,15028
6.95258,14198
6.96192,13686
6.97127,14143
6.98060,13492
6.98995,12714
6.99928,14459
7.00862,13638
7.01797,15163
7.02730,13943
7.03663,13417
7.04598,11479
7.05532,11534
7.06465,12079
7.07400,13348
7.08333,13820
7.09267,14565
7.10202,15941
7.11135,15723
7.12068,16193
7.13003,15650
7.13937,14491
7.14870,12013
7.15805,11992
7.16738,12198
7.17673,12618
7.18607,12462
7.19540,12352
7.20475,13516
7.21408,14434
7.22342,21564
7.23277,38272
7.24210,50799
7.25143,43401
7.26078,32273
7.27012,26962
7.27945,25797
7.28880,21390
7.29813,18627
7.30747,16051
7.31682,13165
7.32615,12117
7.33548,11797
7.34483,11785
7.35417,12672
7.36352,12106
7.37285,12721
7.38218,17214
7.39153,37309
7.40087,72240
7.41020,95929
7.41955,87987
7.42888,57131
7.43822,30938
7.44757,20069
7.45690,15239
7.46623,16129
7.47558,16452
7.48492,15313
7.49425,15974
7.50360,14803
7.51293,13954
7.52227,12270
7.53162,13022
7.54095,13241
7.55030,13542
7.55963,15642
7.56897,16290
7.57832,16530
7.58765,15362
7.59698,14799
7.60633,14556
7.61567,15795
7.62500,16444
7.63435,15474
7.64368,14525
7.65302,14299
7.66237,14270
7.67170,16724
7.68103,33073
7.69038,109090
7.69972,283272
7.70907,389676
7.71840,288188
7.72773,119854
7.73708,38681
7.74642,21204
7.75575,18919
7.76510,16915
7.77443,18722
7.78377,18505
7.79312,18520
7.80245,16426
7.81178,15473
7.82113,14622
7.83047,15647
7.83980,16500
7.84915,23093
7.85848,37893
7.86782,52398
7.87717,50185
7.88650,36585
7.89585,28177
7.90518,32132
7.91452,49357
7.92387,56191
7.93320,43395
7.94253,34339
7.95188,28875
7.96122,27238
7.97055,23627
7.97990,24817
7.98923,23699
7.99857,21222
8.00792,18787
8.01725,20403
8.02658,23940
8.03593,27208
8.04527,32903
8.05460,27545
8.06395,19054
8.07328,16760
8.08263,18773
8.09197,24192
8.10130,24159
8.11065,21699
8.11998,18056
8.12932,17349
8.13867,17703
8.14800,17566
8.15733,17949
8.16668,16414
8.17602,17699
8.18535,16639
8.19470,17279
8.20403,17310
8.21337,16342
8.22272,17649
8.23205,17399
8.24138,16621
8.25073,16573
8.26007,16466
8.26942,14122
8.27875,14984
8.28808,14396
8.29743,15100
8.30677,14994
8.31610,14368
8.32545,13625
8.33478,14497
8.34412,13298
8.35347,13820
8.36280,14587
8.37213,13856
8.38148,17650
8.39082,19834
8.40015,20608
8.40950,18549
8.41883,20738
8.42818,19419
8.43752,17600
8.44685,17487
8.45620,16994
8.46553,18263
8.47487,17245
8.48422,17467
8.49355,17200
8.50288,17089
8.51223,16003
8.52157,15775
8.53090,16438
8.54025,18333
8.54958,23207
8.55892,22976
8.56827,21189
8.57760,18207
8.58693,19014
8.59628,22127
8.60562,22021
8.61497,20700
8.62430,17659
8.63363,16722
8.64298,20477
8.65232,26286
8.66165,27168
8.67100,23089
8.68033,21429
8.68967,19026
8.69902,19907
8.70835,20059
8.71768,19099
8.72703,17895
8.73637,21018
8.74570,26388
8.75505,30366
8.76438,28137
8.77372,24925
8.78307,31529
8.79240,70101
8.80175,154918
8.81108,206015
8.82042,158775
8.82977,77447
8.83910,34501
8.84843,20829
8.85778,19782
8.86712,20213
8.87645,21727
8.88580,23160
8.89513,20775
8.90447,21736
8.91382,20325
8.92315,21553
8.93248,22260
8.94183,20350
8.95117,19482
8.96050,17412
8.96985,17396
8.97918,16920
8.98853,19157
8.99787,18081
9.00720,18576
9.01655,18605
9.02588,18412
9.03522,19573
9.04457,19250
9.05390,19043
9.06323,20127
9.07258,25435
9.08192,29730
9.09125,33675
9.10060,30254
9.10993,30579
9.11927,55649
9.12862,103429
9.13795,119228
9.14728,91558
9.15663,46736
9.16597,27948
9.17532,21691
9.18465,20467
9.19398,20940
9.20333,22097
9.21267,24261
9.22200,35052
9.23135,50694
9.24068,48388
9.25002,38859
9.25937,27582
9.26870,23061
9.27803,20728
9.28738,18383
9.29672,18246
9.30605,21718
9.31540,25037
9.32473,35323
9.33408,41191
9.34342,34606
9.35275,39144
9.36210,69666
9.37143,104403
9.38077,101335
9.39012,74226
9.39945,51247
9.40878,37900
9.41813,32751
9.42747,32220
9.43680,27616
9.44615,23720
9.45548,19289
9.46482,19180
9.47417,18559
9.48350,20391
9.49283,23109
9.50218,24418
9.51152,22869
9.52087,19678
9.53020,22127
9.53953,24862
9.54888,31213
9.55822,40382
9.56755,43077
9.57690,33461
9.58623,27566
9.59557,27247
9.60492,28541
9.61425,24891
9.62358,22939
9.63293,21607
9.64227,24340
9.65160,28347
9.66095,29080
9.67028,26011
9.67962,21915
9.68897,19348
9.69830,21622
9.70765,46892
9.71698,147364
9.72632,358875
9.73567,550352
9.74500,506308
9.75433,341052
9.76368,196104
9.77302,116774
9.78235,81661
9.79170,61199
9.80103,49346
9.81037,45782
9.81972,45777
9.82905,52389
9.83838,61034
9.84773,64074
9.85707,53612
9.86640,44824
9.87575,43626
9.88508,45373
9.89443,47747
9.90377,47034
9.91310,52737
9.92245,48209
9.93178,38438
9.94112,29403
9.95047,27323
9.95980,38173
9.96913,106973
9.97848,285835
9.98782,457451
9.99715,406987
10.00650,203163
10.01583,76277
10.02517,38050
10.03452,29945
10.04385,28193
10.05320,29118
10.06253,36195
10.07187,39488
10.08122,36889
10.09055,29102
10.09988,36665
10.10923,89784
10.11857,239912
10.12790,380576
10.13725,371275
10.14658,545483
10.15592,1369586
10.16527,1902550
10.17460,1335877
10.18393,477832
10.19328,112303
10.20262,40361
10.21195,30078
10.22130,27840
10.23063,31050
10.23998,36412
10.24932,35549
10.25865,27699
10.26800,24025
10.27733,25003
10.28667,31484
10.29602,35911
10.30535,36306
10.31468,33163
10.32403,23999
10.33337,22233
10.34270,22891
10.35205,24505
10.36138,26414
10.37072,24889
10.38007,22852
10.38940,20334
10.39873,25688
10.40808,51637
10.41742,100484
10.42677,131986
10.43610,105945
10.44543,73057
10.45478,60377
10.46412,56567
10.47345,41735
10.48280,27263
10.49213,21236
10.50147,18952
10.51082,19003
10.52015,20089
10.52948,20866
10.53883,25378
10.54817,29624
10.55750,34485
10.56685,28402
10.57618,23850
10.58552,21581
10.59487,19149
10.60420,18808
10.61355,18976
10.62288,21294
10.63222,24259
10.64157,25226
10.65090,22975
10.66023,22239
10.66958,24444
10.67892,25290
10.68825,24842
10.69760,30604
10.70693,54650
10.71627,76686
10.72562,69182
10.73495,45226
10.74428,37619
10.75363,57686
10.76297,81968
10.77230,92349
10.78165,116610
10.79098,236106
10.80033,408086
10.80967,403584
10.81900,241670
10.82835,103833
10.83768,49933
10.84702,36476
10.85637,47052
10.86570,74461
10.87503,92462
10.88438,79536
10.89372,50367
10.90305,37466
10.91240,32344
10.92173,30174
10.93107,31866
10.94042,31322
10.94975,31167
10.95908,29094
10.96843,25437
10.97777,21575
10.98712,21290
10.99645,19541
11.00578,18893
11.01513,18403
11.02447,18228
11.03380,18527
11.04315,18074
11.05248,17092
11.06182,16007
11.07117,17465
11.08050,18151
11.08983,17342
11.09918,17581
11.10852,19213
11.11785,18793
11.12720,19338
11.13653,17530
11.14588,18666
11.15522,17398
11.16455,19825
11.17390,18131
11.18323,17898
11.19257,17285
11.20192,18927
11.21125,22610
11.22058,21722
11.22993,19551
11.23927,17589
11.24860,17702
11.25795,20266
11.26728,20105
11.27662,19947
11.28597,18428
11.29530,20741
11.30463,20040
11.31398,18922
11.32332,19518
11.33267,26974
11.34200,40542
11.35133,52760
11.36068,48189
11.37002,33885
11.37935,22768
11.38870,24925
11.39803,37478
11.40737,54860
11.41672,59662
11.42605,45609
11.43538,28427
11.44473,22743
11.45407,28111
11.46340,36959
11.47275,38636
11.48208,30287
11.49142,21174
11.50077,20192
11.51010,19044
11.51945,17557
11.52878,17170
11.53812,19243
11.54747,20360
11.55680,26560
11.56613,39158
11.57548,47560
11.58482,46466
11.59415,37331
11.60350,30855
11.61283,28944
11.62217,25260
11.63152,22999
11.64085,22130
11.65018,21543
11.65953,21537
11.66887,20965
11.67820,21071
11.68755,19847
11.69688,22291
11.70623,23273
11.71557,28569
11.72490,27401
11.73425,27990
11.74358,24664
11.75292,22322
11.76227,22505
11.77160,23419
11.78093,29107
11.79028,32562
11.79962,29510
11.80895,24319
11.81830,23878
11.82763,23457
11.83697,20418
11.84632,20102
11.85565,20906
11.86500,25707
11.87433,28630
11.88367,27632
11.89302,22096
11.90235,20959
11.91168,18830
11.92103,19085
11.93037,21777
11.93970,26661
11.94905,28065
11.95838,23649
11.96772,22877
11.97707,20833
11.98640,20139
11.99573,25983
12.00508,38161
12.01442,45654
12.02375,42328
12.03310,33959
12.04243,28812
12.05178,24238
12.06112,20804
12.07045,19007
12.07980,18942
12.08913,18684
12.09847,20878
12.10782,19504
12.11715,18519
12.12648,18671
12.13583,17971
12.14517,20625
12.15450,24333
12.16385,36298
12.17318,53916
12.18252,51131
12.19187,40625
12.20120,31755
12.21053,28966
12.21988,32533
12.22922,38931
12.23857,33315
12.24790,27068
12.25723,27723
12.26658,46749
12.27592,71577
12.28525,71797
12.29460,53386
12.30393,34635
12.31327,27394
12.32262,26306
12.33195,28650
12.34128,29813
12.35063,28825
12.35997,23052
12.36930,23029
12.37865,23548
12.38798,20761
12.39732,20098
12.40667,20343
12.41600,21137
12.42535,20656
12.43468,19553
12.44402,20403
12.45337,22054
12.46270,24785
12.47203,23583
12.48138,24402
12.49072,24274
12.50005,24465
12.50940,23127
12.51873,23858
12.52807,23828
12.53742,24818
12.54675,24946
12.55608,28146
12.56543,32338
12.57477,30059
12.58410,26635
12.59345,21931
12.60278,21327
12.61213,20705
12.62147,22984
12.63080,26987
12.64015,30603
12.64948,31412
12.65882,27626
12.66817,26663
12.67750,21780
12.68683,18323
12.69618,18593
12.70552,19716
12.71485,20398
12.72420,20096
12.73353,21401
12.74287,22032
12.75222,24454
12.76155,23430
12.77090,21615
12.78023,19813
12.78957,20675
12.79892,22409
12.80825,20637
12.81758,21087
12.82693,22901
12.83627,22092
12.84560,21272
12.85495,19827
12.86428,19663
12.87362,18747
12.88297,19607
12.89230,19861
12.90163,19069
12.91098,19222
12.92032,19938
12.92965,20018
12.93900,19641
12.94833,19492
12.95768,19938
12.96702,17802
12.97635,16293
12.98570,17097
12.99503,18118
13.00437,19165
13.01372,20918
13.02305,25738
13.03238,28175
13.04173,27581
13.05107,22931
13.06040,20208
13.06975,21309
13.07908,21121
13.08842,19055
13.09777,19667
13.10710,19642
13.11643,19467
13.12578,22173
13.13512,24870
13.14447,24963
13.15380,24780
13.16313,24674
13.17248,25460
13.18182,28447
13.19115,46987
13.20050,92054
13.20983,121889
13.21917,100805
13.22852,63624
13.23785,52011
13.24718,51992
13.25653,42579
13.26587,34593
13.27520,32648
13.28455,33554
13.29388,32419
13.30322,35673
13.31257,33837
13.32190,32563
13.33125,29672
13.34058,27050
13.34992,25575
13.35927,23469
13.36860,23829
13.37793,22460
13.38728,25654
13.39662,27782
13.40595,25333
13.41530,22151
13.42463,21560
13.43397,25345
13.44332,24896
13.45265,24475
13.46198,26045
13.47133,26324
13.48067,28053
13.49002,25271
13.49935,27198
13.50868,38011
13.51803,53866
13.52737,62066
13.53670,45629
13.54605,30282
13.55538,22452
13.56472,21650
13.57407,19092
13.58340,19494
13.59273,19853
13.60208,18817
13.61142,19927
13.62075,28162
13.63010,53006
13.63943,94251
13.64877,115984
13.65812,98726
13.66745,62343
13.67680,40077
13.68613,30397
13.69547,28075
13.70482,23570
13.71415,22084
13.72348,20496
13.73283,21970
13.74217,21493
13.75150,23347
13.76085,22839
13.77018,22082
13.77952,20924
13.78887,21880
13.79820,24915
13.80753,23437
13.81688,21122
13.82622,20958
13.83555,19610
13.84490,20326
13.85423,20511
13.86358,23350
13.87292,26189
13.88225,34404
13.89160,53133
13.90093,92088
13.91027,145173
13.91962,151471
13.92895,97102
13.93828,46881
13.94763,29754
13.95697,28345
13.96630,26711
13.97565,23220
13.98498,24514
13.99432,25183
14.00367,25322
14.01300,21388
14.02233,23661
14.03168,45176
14.04102,258880
14.05037,1376503
14.05970,3856556
14.06903,5091285
14.07838,3434849
14.08772,1101180
14.09705,193094
14.10640,56138
14.11573,40626
14.12507,34594
14.13442,32745
14.14375,32728
14.15308,34256
14.16243,35975
14.17177,34708
14.18110,38885
14.19045,45514
14.19978,47713
14.20912,37786
14.21847,26749
14.22780,23970
14.23715,21122
14.24648,23104
14.25582,22958
14.26517,23994
14.27450,23049
14.28383,22804
14.29318,19487
14.30252,21686
14.31185,27622
14.32120,36764
14.33053,43158
14.33987,40416
14.34922,32457
14.35855,26487
14.36788,25632
14.37723,30217
14.38657,31984
14.39590,27896
14.40525,24833
14.41458,22010
14.42393,20611
14.43327,21674
14.44260,24665
14.45195,31794
14.46128,37226
14.47062,38310
14.47997,32235
14.48930,26217
14.49863,24060
14.50798,24522
14.51732,23968
14.52665,24014
14.53600,23172
14.54533,22738
14.55467,25124
14.56402,23898
14.57335,24229
14.58270,21777
14.59203,20067
14.60137,19840
14.61072,19006
14.62005,21975
14.62938,22903
14.63873,24505
14.64807,29126
14.65740,31817
14.66675,28211
14.67608,26353
14.68542,25336
14.69477,22931
14.70410,23056
14.71343,21868
14.72278,22602
14.73212,22226
14.74145,23804
14.75080,22452
14.76013,21811
14.76948,22363
14.77882,21443
14.78815,19887
14.79750,22518
14.80683,22525
14.81617,21068
14.82552,21657
14.83485,26562
14.84418,35184
14.85353,45353
14.86287,44563
14.87220,37106
14.88155,29786
14.89088,22838
14.90022,21333
14.90957,20884
14.91890,22746
14.92823,22102
14.93758,21260
14.94692,20561
14.95627,25039
14.96560,31709
14.97493,32303
14.98428,32569
14.99362,30154
15.00295,32392
15.01230,32289
15.02163,28809
15.03097,27455
15.04032,30893
15.04965,31183
15.05898,28840
15.06833,27171
15.07767,26462
15.08700,24100
15.09635,24181
15.10568,25875
15.11502,30630
15.12437,33527
15.13370,35072
15.14305,29404
15.15238,23747
15.16172,21374
15.17107,22709
15.18040,21505
15.18973,28779
15.19908,37587
15.20842,49672
15.21775,55517
15.22710,45805
15.23643,35393
15.24577,29021
15.25512,25438
15.26445,25902
15.27378,26085
15.28313,25361
15.29247,25182
15.30182,26185
15.31115,28233
15.32048,31339
15.32983,34624
15.33917,30449
15.34850,27226
15.35785,29204
15.36718,32127
15.37652,31381
15.38587,25683
15.39520,23158
15.40453,23028
15.41388,24728
15.42322,25203
15.43255,23503
15.44190,20757
15.45123,21668
15.46057,23675
15.46992,22661
15.47925,24139
15.48860,24972
15.49793,29948
15.50727,40497
15.51662,50359
15.52595,43664
15.53528,34432
15.54463,26008
15.55397,22639
15.56330,22149
15.57265,22611
15.58198,23039
15.59132,22731
15.60067,24261
15.61000,24203
15.61933,25230
15.62868,28250
15.63802,30399
15.64735,32080
15.65670,39554
15.66603,68072
15.67538,139151
15.68472,216365
15.69405,218958
15.70340,134974
15.71273,71078
15.72207,47073
15.73142,41765
15.74075,42033
15.75008,44332
15.75943,43178
15.76877,39696
15.77810,34340
15.78745,30250
15.79678,29355
15.80612,32564
15.81547,45104
15.82480,81144
15.83413,126446
15.84348,134832
15.85282,95378
15.86217,59391
15.87150,43257
15.88083,45745
15.89018,50821
15.89952,51278
15.90885,45413
15.91820,37598
15.92753,30940
15.93687,29938
15.94622,26212
15.95555,28832
15.96488,32508
15.97423,36202
15.98357,44016
15.99290,44591
16.00225,40451
16.01158,34355
16.02092,28227
16.03027,27978
16.03960,30889
16.04895,33633
16.05828,33637
16.06762,33102
16.07697,33122
16.08630,28619
16.09563,28976
16.10498,30259
16.11432,34497
16.12365,32792
16.13300,32250
16.14233,29120
16.15167,28815
16.16102,29295
16.17035,29528
16.17968,27751
16.18903,28672
16.19837,29398
16.20772,31079
16.21705,34224
16.22638,37966
16.23573,41198
16.24507,38147
16.25440,36074
16.26375,35842
16.27308,47656
16.28242,84632
16.29177,146086
16.30110,159190
16.31043,111461
16.31978,58114
16.32912,38855
16.33845,30591
16.34780,24704
16.35713,24417
16.36647,23377
16.37582,24126
16.38515,24058
16.39450,28358
16.40383,29184
16.41317,32403
16.42252,31528
16.43185,31502
16.44118,31553
16.45053,34691
16.45987,34255
16.46920,32161
16.47855,29439
16.48788,32351
16.49722,28364
16.50657,30503
16.51590,30440
16.52523,28231
16.53458,28326
16.54392,26286
16.55325,26087
16.56260,27521
16.57193,26666
16.58128,28564
16.59062,27472
16.59995,28817
16.60930,33257
16.61863,40733
16.62797,39978
16.63732,39451
16.64665,30650
16.65598,28379
16.66533,27156
16.67467,30282
16.68400,32761
16.69335,37045
16.70268,36535
16.71202,31694
16.72137,29414
16.73070,37102
16.74003,55340
16.74938,67919
16.75872,58961
16.76807,36882
16.77740,28048
16.78673,26541
16.79608,26109
16.80542,26773
16.81475,29434
16.82410,35318
16.83343,37074
16.84277,32863
16.85212,29061
16.86145,29291
16.87078,26758
16.88013,28058
16.88947,29089
16.89880,35751
16.90815,42365
16.91748,48763
16.92683,41570
16.93617,39836
16.94550,40115
16.95485,40258
16.96418,41673
16.97352,34845
16.98287,29429
16.99220,26271
17.00153,26771
17.01088,33464
17.02022,45462
17.02955,57979
17.03890,51874
17.04823,40336
17.05757,34467
17.06692,32753
17.07625,31329
17.08558,32068
17.09493,32362
17.10427,31106
17.11362,31052
17.12295,33085
17.13228,34708
17.14163,34576
17.15097,31241
17.16030,30710
17.16965,30626
17.17898,29213
17.18832,27331
17.19767,27878
17.20700,29086
17.21633,27545
17.22568,27767
17.23502,27100
17.24435,28073
17.25370,28489
17.26303,31211
17.27237,33194
17.28172,41607
17.29105,56594
17.30040,64580
17.30973,61416
17.31907,52559
17.32842,43073
17.33775,36592
17.34708,29354
17.35643,29665
17.36577,45626
17.37510,79261
17.38445,102455
17.39378,84172
17.40312,55448
17.41247,37995
17.42180,33090
17.43113,32403
17.44048,32980
17.44982,33041
17.45915,32618
17.46850,35726
17.47783,59563
17.48718,226517
17.49652,922763
17.50585,2003817
17.51520,2013567
17.52453,1009883
17.53387,274538
17.54322,75037
17.55255,43381
17.56188,39605
17.57123,38451
17.58057,41618
17.58990,38142
17.59925,35659
17.60858,34040
17.61792,30278
17.62727,31073
17.63660,31636
17.64593,34066
17.65528,38214
17.66462,41491
17.67397,42988
17.68330,44517
17.69263,48031
17.70198,46528
17.71132,41016
17.72065,37708
17.73000,34686
17.73933,37554
17.74867,39235
17.75802,40767
17.76735,41210
17.77668,37636
17.78603,28511
17.79537,27766
17.80470,29123
17.81405,31122
17.82338,31901
17.83272,32896
17.84207,37590
17.85140,40528
17.86075,41245
17.87008,41239
17.87942,40014
17.88877,37214
17.89810,33413
17.90743,28803
17.91678,28045
17.92612,27671
17.93545,27536
17.94480,30748
17.95413,33986
17.96347,34767
17.97282,30796
17.98215,28915
17.99148,28444
18.00083,29154
18.01017,26895
18.01952,28495
18.02885,32513
18.03818,47098
18.04753,68301
18.05687,74826
18.06620,58919
18.07555,39319
18.08488,30339
18.09422,28865
18.10357,31645
18.11290,32346
18.12223,31518
18.13158,31466
18.14092,32999
18.15025,34534
18.15960,34438
18.16893,32468
18.17827,30844
18.18762,28982
18.19695,28894
18.20630,28986
18.21563,30488
18.22497,29418
18.23432,27467
18.24365,26962
18.25298,25451
18.26233,28488
18.27167,33267
18.28100,34081
18.29035,34797
18.29968,35088
18.30902,37433
18.31837,35544
18.32770,35286
18.33703,39976
18.34638,44554
18.35572,44364
18.36505,38959
18.37440,32823
18.38373,29558
18.39308,31757
18.40242,32911
18.41175,36498
18.42110,34966
18.43043,36776
18.43977,42561
18.44912,41131
18.45845,36665
18.46778,31872
18.47713,34295
18.48647,44723
18.49580,62145
18.50515,75351
18.51448,71088
18.52382,58484
18.53317,46205
18.54250,46827
18.55183,42600
18.56118,37432
18.57052,32874
18.57987,30982
18.58920,33956
18.59853,38150
18.60788,41834
18.61722,37918
18.62655,37613
18.63590,37687
18.64523,36009
18.65457,33978
18.66392,33979
18.67325,35044
18.68258,34683
18.69193,34904
18.70127,41729
18.71060,44453
18.71995,43553
18.72928,40365
18.73863,39335
18.74797,36418
18.75730,31304
18.76665,27893
18.77598,27369
18.78532,27945
18.79467,29865
18.80400,29858
18.81333,30339
18.82268,29590
18.83202,30657
18.84135,27840
18.85070,29199
18.86003,27216
18.86937,28210
18.87872,26641
18.88805,30113
18.89738,38299
18.90673,46342
18.91607,47724
18.92542,42808
18.93475,39253
18.94408,43649
18.95343,49133
18.96277,46075
18.97210,42107
18.98145,36749
18.99078,33896
19.00012,31689
19.00947,33139
19.01880,32026
19.02813,39610
19.03748,55040
19.04682,74843
19.05615,84197
19.06550,87714
19.07483,122295
19.08417,144858
19.09352,118714
19.10285,71326
19.11220,46892
19.12153,34403
19.13087,30111
19.14022,29581
19.14955,28099
19.15888,27441
19.16823,29191
19.17757,32137
19.18690,33835
19.19625,36460
19.20558,40856
19.21492,40996
19.22427,39750
19.23360,33728
19.24293,29212
19.25228,31180
19.26162,31704
19.27095,33847
19.28030,36753
19.28963,36009
19.29898,42535
19.30832,46945
19.31765,52875
19.32700,42276
19.33633,34657
19.34567,29769
19.35502,28566
19.36435,29277
19.37368,29231
19.38303,33503
19.39237,39081
19.40170,42050
19.41105,39687
19.42038,33376
19.42972,28890
19.43907,28513
19.44840,27712
19.45773,27950
19.46708,27854
19.47642,29384
19.48577,31427
19.49510,30963
19.50443,29084
19.51378,27787
19.52312,25890
19.53245,29621
19.54180,26848
19.55113,26423
19.56047,27982
19.56982,30648
19.57915,33015
19.58848,33488
19.59783,33819
19.60717,32162
19.61650,35003
19.62585,38883
19.63518,37436
19.64452,35140
19.65387,30130
19.66320,29171
19.67255,27749
19.68188,29555
19.69122,27757
19.70057,28519
19.70990,36309
19.71923,48466
19.72858,54528
19.73792,47730
19.74725,36467
19.75660,34267
19.76593,31945
19.77527,33252
19.78462,33466
19.79395,30587
19.80328,30394
19.81263,30626
19.82197,30007
19.83132,28926
19.84065,25633
19.84998,27645
19.85933,33237
19.86867,42723
19.87800,43721
19.88735,38306
19.89668,31448
19.90602,30924
19.91537,29970
19.92470,28928
19.93403,28840
19.94338,26172
19.95272,28833
19.96205,28187
19.97140,26867
19.98073,27161
19.99007,27263
19.99942,26547
20.00875,29286
20.01810,30520
20.02743,32599
20.03677,33675
20.04612,30516
20.05545,29663
20.06478,29274
20.07413,28478
20.08347,29083
20.09280,27338
20.10215,25637
20.11148,25287
20.12082,24419
20.13017,26207
20.13950,30507
20.14883,34500
20.15818,34449
20.16752,29463
20.17685,27570
20.18620,26682
20.19553,27402
20.20488,26681
20.21422,25738
20.22355,25417
20.23290,25558
20.24223,25298
20.25157,25171
20.26092,25396
20.27025,25234
20.27958,26146
20.28893,24680
20.29827,24539
20.30760,24763
20.31695,22880
20.32628,23555
20.33562,22623
20.34497,24086
20.35430,24666
20.36363,25156
20.37298,24788
20.38232,23226
20.39167,23497
20.40100,23812
20.41033,22966
20.41968,24077
20.42902,24069
20.43835,24725
20.44770,24846
20.45703,28687
20.46637,30791
20.47572,29386
20.48505,27709
20.49438,26739
20.50373,26239
20.51307,25334
20.52240,26391
20.53175,24083
20.54108,27302
20.55043,38353
20.55977,79293
20.56910,149432
20.57845,173974
20.58778,115178
20.59712,56834
20.60647,35883
20.61580,30850
20.62513,33268
20.63448,29832
20.64382,31048
20.65315,33873
20.66250,34373
20.67183,35265
20.68117,33931
20.69052,32276
20.69985,31925
20.70918,31444
20.71853,29734
20.72787,28932
20.73722,28964
20.74655,27686
20.75588,27611
20.76523,26162
20.77457,26202
20.78390,29264
20.79325,32345
20.80258,30729
20.81192,30206
20.82127,27513
20.83060,26131
20.83993,23946
20.84928,24873
20.85862,23998
20.86795,24056
20.87730,25748
20.88663,25764
20.89597,27489
20.90532,28783
20.91465,26800
20.92400,25876
20.93333,25541
20.94267,23618
20.95202,24021
20.96135,24335
20.97068,24833
20.98003,23124
20.98937,22794
20.99870,23693
21.00805,22993
21.01738,21842
21.02672,23584
21.03607,23882
21.04540,24171
21.05473,25501
21.06408,25077
21.07342,24744
21.08275,24758
21.09210,25613
21.10143,26392
21.11078,26386
21.12012,26722
21.12945,26758
21.13880,25489
21.14813,24165
21.15747,24904
21.16682,25768
21.17615,30351
21.18548,32727
21.19483,34113
21.20417,31408
21.21350,28503
21.22285,28410
21.23218,25894
21.24152,26056
21.25087,27591
21.26020,28020
21.26953,30711
21.27888,34363
21.28822,32944
21.29757,29598
21.30690,27825
21.31623,25730
21.32558,26688
21.33492,26868
21.34425,26537
21.35360,25554
21.36293,25491
21.37227,24477
21.38162,23653
21.39095,24229
21.40028,26557
21.40963,27448
21.41897,27973
21.42830,27701
21.43765,25673
21.44698,25831
21.45633,25823
21.46567,26680
21.47500,26954
21.48435,26408
21.49368,26307
21.50302,25849
21.51237,25942
21.52170,24365
21.53103,25981
21.54038,24622
21.54972,26526
21.55905,32412
21.56840,38191
21.57773,43872
21.58707,38663
21.59642,31720
21.60575,30412
21.61508,30568
21.62443,28342
21.63377,27992
21.64312,26018
21.65245,26518
21.66178,25735
21.67113,26080
21.68047,26966
21.68980,26935
21.69915,30063
21.70848,29032
21.71782,29422
21.72717,28743
21.73650,28439
21.74583,27309
21.75518,25233
21.76452,24500
21.77385,25642
21.78320,25216
21.79253,25455
21.80187,25244
21.81122,28576
21.82055,27972
21.82990,28751
21.83923,28363
21.84857,26284
21.85792,28386
21.86725,26843
21.87658,30661
21.88593,36654
21.89527,35847
21.90460,32606
21.91395,30198
21.92328,28095
21.93262,26200
21.94197,27885
21.95130,28389
21.96063,32847
21.96998,38082
21.97932,43453
21.98865,44485
21.99800,38027
22.00733,31444
22.01668,29840
22.02602,28191
22.03535,29919
22.04470,32075
22.05403,29680
22.06337,28639
22.07272,30686
22.08205,30043
22.09138,30212
22.10073,28137
22.11007,27302
22.11940,26006
22.12875,27508
22.13808,28556
22.14742,29874
22.15677,35513
22.16610,37618
22.17545,36063
22.18478,30303
22.19412,27914
22.20347,26970
22.21280,27655
22.22213,30333
22.23148,29471
22.24082,29270
22.25015,29896
22.25950,27772
22.26883,29427
22.27817,30956
22.28752,35774
22.29685,33019
22.30618,28987
22.31553,26730
22.32487,26558
22.33420,26414
22.34355,28511
22.35288,28274
22.36223,29713
22.37157,26854
22.38090,26146
22.39025,24909
22.39958,25651
22.40892,25082
22.41827,23414
22.42760,25275
22.43693,25974
22.44628,26300
22.45562,26132
22.46495,25776
22.47430,25267
22.48363,25622
22.49297,24681
22.50232,27156
22.51165,25997
22.52098,26858
22.53033,24242
22.53967,24371
22.54902,24571
22.55835,25050
22.56768,27047
22.57703,27756
22.58637,25852
22.59570,25318
22.60505,24585
22.61438,25282
22.62372,26062
22.63307,26463
22.64240,24711
22.65173,23764
22.66108,22806
22.67042,25641
22.67975,26990
22.68910,28306
22.69843,27722
22.70777,25448
22.71712,25365
22.72645,25672
22.73580,27812
22.74513,28490
22.75447,30766
22.76382,30566
22.77315,28097
22.78248,28480
22.79183,25290
22.80117,25959
22.81050,25104
22.81985,24646
22.82918,26028
22.83852,26731
22.84787,26331
22.85720,25314
22.86653,26831
22.87588,25906
22.88522,24314
22.89455,24590
22.90390,25477
22.91323,24888
22.92258,24292
22.93192,23452
22.94125,26133
22.95060,26114
22.95993,24123
22.96927,23981
22.97862,24101
22.98795,22650
22.99728,22638
23.00663,22487
23.01597,23035
23.02530,24556
23.03465,23555
23.04398,24286
23.05332,24352
23.06267,24353
23.07200,24487
23.08133,23780
23.09068,23496
23.10002,22413
23.10937,23962
23.11870,21701
23.12803,23111
23.13738,23440
23.14672,22128
23.15605,23053
23.16540,23683
23.17473,22512
23.18407,22826
23.19342,22308
23.20275,22540
23.21208,22337
23.22143,23658
23.23077,22223
23.24010,23430
23.24945,24571
23.25878,24560
23.26813,25803
23.27747,27205
23.28680,27018
23.29615,26145
23.30548,25237
23.31482,29093
23.32417,34025
23.33350,35072
23.34283,32875
23.35218,27858
23.36152,26554
23.37085,24800
23.38020,26044
23.38953,25309
23.39887,25656
23.40822,25769
23.41755,25397
23.42688,23530
23.43623,24906
23.44557,25219
23.45492,26481
23.46425,27423
23.47358,26675
23.48293,25102
23.49227,24292
23.50160,23675
23.51095,23621
23.52028,24551
23.52962,24898
23.53897,23500
23.54830,25580
23.55763,23680
23.56698,23851
23.57632,25875
23.58565,27143
23.59500,24965
23.60433,24619
23.61367,23767
23.62302,24331
23.63235,22333
23.64170,24784
23.65103,24419
23.66037,22744
23.66972,25601
23.67905,24722
23.68838,25048
23.69773,24043
23.70707,24629
23.71640,26894
23.72575,27962
23.73508,26643
23.74442,26494
23.75377,24448
23.76310,23885
23.77243,24621
23.78178,22499
23.79112,23146
23.80045,23575
23.80980,22849
23.81913,22393
23.82848,22426
23.83782,24214
23.84715,22657
23.85650,23982
23.86583,23835
23.87517,25030
23.88452,24121
23.89385,24416
23.90318,23838
23.91253,25052
23.92187,25135
23.93120,24238
23.94055,24728
23.94988,24557
23.95922,24206
23.96857,22231
23.97790,21601
23.98725,23585
23.99658,25119
24.00592,23920
24.01527,23280
24.02460,23452
24.03393,22410
24.04328,22924
24.05262,22961
24.06195,22142
24.07130,21382
24.08063,23561
24.08997,24949
24.09932,22728
24.10865,23429
24.11798,22945
24.12733,24090
24.13667,23747
24.14600,24652
24.15535,22052
24.16468,24530
24.17403,23588
24.18337,21986
24.19270,22070
24.20205,23363
24.21138,23745
24.22072,24220
24.23007,23975
24.23940,22276
24.24873,23379
24.25808,22838
24.26742,22000
24.27675,21436
24.28610,23578
24.29543,23300
24.30477,25318
24.31412,27408
24.32345,29169
24.33278,27208
24.34213,25364
24.35147,24325
24.36082,22972
24.37015,22985
24.37948,23866
24.38883,23160
24.39817,23982
24.40750,24950
24.41685,24858
24.42618,25364
24.43552,23266
24.44487,23671
24.45420,23894
24.46353,22922
24.47288,23353
24.48222,23477
24.49155,25100
24.50090,23976
24.51023,25311
24.51957,25017
24.52892,24554
24.53825,24093
24.54760,24399
24.55693,24552
24.56627,22134
24.57562,22534
24.58495,23187
24.59428,24940
24.60363,25731
24.61297,25485
24.62230,24758
24.63165,23903
24.64098,22084
24.65032,23485
24.65967,24536
24.66900,25053
24.67833,24262
24.68768,23853
24.69702,23642
24.70635,22999
24.71570,22856
24.72503,22641
24.73438,23802
24.74372,23756
24.75305,25275
24.76240,23624
24.77173,24262
24.78107,23316
24.79042,22854
24.79975,23747
24.80908,24733
24.81843,23887
24.82777,24759
24.83710,25028
24.84645,23804
24.85578,23867
24.86512,24438
24.87447,24957
24.88380,25733
24.89315,25817
24.90248,26627
24.91182,24885
24.92117,24964
24.93050,25001
24.93983,27038
24.94918,27333
24.95852,27315
24.96785,25781
24.97720,24523
24.98653,24603
24.99587,24132
25.00522,24618
25.01455,25531
25.02388,24659
25.03323,24331
25.04257,24959
25.05190,25266
25.06125,24881
25.07058,24986
25.07993,25116
25.08927,24475
25.09860,25104
25.10795,25849
25.11728,24902
25.12662,25193
25.13597,26539
25.14530,25572
25.15463,28424
25.16398,26144
25.17332,27542
25.18265,26326
25.19200,25356
25.20133,25082
25.21067,25755
25.22002,23554
25.22935,24282
25.23868,24618
25.24803,25390
25.25737,24211
25.26672,23460
25.27605,26099
25.28538,22769
25.29473,23737
25.30407,25949
25.31340,32522
25.32275,53307
25.33208,70757
25.34142,70857
25.35077,60590
25.36010,52960
25.36943,40748
25.37878,37114
25.38812,37377
25.39745,33731
25.40680,31581
25.41613,32901
25.42547,31856
25.43482,28739
25.44415,28583
25.45350,30367
25.46283,30615
25.47217,32084
25.48152,35193
25.49085,36325
25.50018,33474
25.50953,31719
25.51887,29491
25.52820,31342
25.53755,28316
25.54688,30143
25.55622,31928
25.56557,30091
25.57490,30597
25.58423,27015
25.59358,29909
25.60292,27886
25.61227,28887
25.62160,30344
25.63093,31269
25.64028,29196
25.64962,29902
25.65895,30549
25.66830,30290
25.67763,29257
25.68697,29839
25.69632,28196
25.70565,28089
25.71498,28166
25.72433,26479
25.73367,29308
25.74300,28459
25.75235,29614
25.76168,27973
25.77102,29610
25.78037,27143
25.78970,30525
25.79905,28915
25.80838,27657
25.81772,29265
25.82707,29876
25.83640,31215
25.84573,29658
25.85508,29700
25.86442,28744
25.87375,29707
25.88310,28506
25.89243,28844
25.90177,30101
25.91112,28270
25.92045,30089
25.92978,28263
25.93913,29661
25.94847,29912
25.95780,28008
25.96715,31363
25.97648,29193
25.98583,28855
25.99517,29453
26.00450,29304
26.01385,29664
26.02318,30052
26.03252,29294
26.04187,30074
26.05120,29974
26.06053,29199
26.06988,27910
26.07922,28688
26.08855,28225
26.09790,30073
26.10723,29701
26.11657,30760
26.12592,34633
26.13525,34162
26.14458,34408
26.15393,29156
26.16327,31226
26.17262,28320
26.18195,29715
26.19128,29278
26.20063,29609
26.20997,29859
26.21930,29750
26.22865,28804
26.23798,29642
26.24732,28760
26.25667,31163
26.26600,29768
26.27533,29740
26.28468,29788
26.29402,28379
26.30335,30060
26.31270,29974
26.32203,29371
26.33137,30991
26.34072,29591
26.35005,31626
26.35940,29513
26.36873,30668
26.37807,30365
26.38742,29461
26.39675,29706
26.40608,28922
26.41543,30208
26.42477,30006
26.43410,29549
26.44345,29560
26.45278,30550
26.46212,31152
26.47147,30481
26.48080,30367
26.49013,30358
26.49948,30090
26.50882,30118
26.51817,31075
26.52750,31911
26.53683,32670
26.54618,30017
26.55552,32251
26.56485,33344
26.57420,31725
26.58353,31317
26.59287,33664
26.60222,31509
26.61155,33064
26.62088,33821
26.63023,33263
26.63957,34742
26.64890,34029
26.65825,33021
26.66758,31625
26.67692,33245
26.68627,31124
26.69560,34725
26.70495,33234
26.71428,32010
26.72362,30722
26.73297,32430
26.74230,32185
26.75163,31534
26.76098,33507
26.77032,36858
26.77965,35714
26.78900,36332
26.79833,34579
26.80767,34808
26.81702,34705
26.82635,34849
26.83568,34668
26.84503,36186
26.85437,36466
26.86370,36326
26.87305,35944
26.88238,33874
26.89173,35697
26.90107,33753
26.91040,36236
26.91975,35325
26.92908,34340
26.93842,34711
26.94777,35761
26.95710,34508
26.96643,33893
26.97578,35155
26.98512,34421
26.99445,36559
27.00380,34878
27.01313,33340
27.02247,35375
27.03182,35848
27.04115,33073
27.05048,35494
27.05983,34530
27.06917,34980
27.07852,35795
27.08785,36248
27.09718,36067
27.10653,35892
27.11587,35841
27.12520,36873
27.13455,37085
27.14388,38910
27.15322,37010
27.16257,36045
27.17190,37014
27.18123,36314
27.19058,38255
27.19992,37983
27.20925,37421
27.21860,35201
27.22793,36545
27.23728,38221
27.24662,35742
27.25595,37769
27.26530,37238
27.27463,37400
27.28397,36812
27.29332,37084
27.30265,38162
27.31198,36375
27.32133,37850
27.33067,36167
27.34000,39643
27.34935,36900
27.35868,37677
27.36802,38261
27.37737,36930
27.38670,38566
27.39603,38303
27.40538,39811
27.41472,39104
27.42407,42108
27.43340,40758
27.44273,41511
27.45208,42125
27.46142,40125
27.47075,41173
27.48010,42125
27.48943,42474
27.49877,41571
27.50812,42033
27.51745,43688
27.52678,40692
27.53613,41087
27.54547,40186
27.55480,42226
27.56415,40908
27.57348,39678
27.58282,39273
27.59217,39694
27.60150,38737
27.61085,39874
27.62018,42468
27.62952,43438
27.63887,41441
27.64820,43682
27.65753,43331
27.66688,43410
27.67622,46578
27.68555,52131
27.69490,58541
27.70423,58335
27.71357,52980
27.72292,52212
27.73225,51961
27.74158,51472
27.75093,47840
27.76027,50362
27.76960,49674
27.77895,47907
27.78828,47986
27.79763,47212
27.80697,47135
27.81630,45885
27.82565,46792
27.83498,47653
27.84432,46153
27.85367,46377
27.86300,46914
27.87233,47683
27.88168,44394
27.89102,46350
27.90035,46435
27.90970,44760
27.91903,46058
27.92837,45457
27.93772,46029
27.94705,43587
27.95638,45399
27.96573,45413
27.97507,44053
27.98442,44809
27.99375,46626
28.00308,47975
28.01243,45819
28.02177,47786
28.03110,49923
28.04045,46706
28.04978,48877
28.05912,47493
28.06847,46747
28.07780,46552
28.08713,48909
28.09648,48726
28.10582,49032
28.11515,50692
28.12450,50476
28.13383,48664
28.14317,48073
28.15252,47485
28.16185,47620
28.17120,51008
28.18053,50250
28.18987,50259
28.19922,48036
28.20855,50130
28.21788,49385
28.22723,49717
28.23657,49742
28.24590,47643
28.25525,49039
28.26458,50364
28.27392,49004
28.28327,51084
28.29260,49493
28.30193,50639
28.31128,50022
28.32062,49544
28.32997,51322
28.33930,51997
28.34863,49166
28.35798,51667
28.36732,50741
28.37665,50932
28.38600,53209
28.39533,52200
28.40467,53012
28.41402,51950
28.42335,52014
28.43268,53396
28.44203,52778
28.45137,53420
28.46070,53308
28.47005,54248
28.47938,55754
28.48872,52352
28.49807,54762
28.50740,52206
28.51675,52832
28.52608,56648
28.53542,51065
28.54477,54800
28.55410,55494
28.56343,54049
28.57278,54889
28.58212,55868
28.59145,55740
28.60080,56703
28.61013,58668
28.61947,57038
28.62882,57063
28.63815,54293
28.64748,57212
28.65683,60653
28.66617,61791
28.67550,64861
28.68485,61864
28.69418,63449
28.70353,59126
28.71287,59046
28.72220,58022
28.73155,60588
28.74088,62049
28.75022,58416
28.75957,59846
28.76890,60421
28.77823,58860
28.78758,59659
28.79692,60783
28.80625,60177
28.81560,60623
28.82493,63787
28.83427,60079
28.84362,62099
28.85295,61798
28.86228,60748
28.87163,62712
28.88097,61677
28.89032,64217
28.89965,61710
28.90898,61261
28.91833,64499
28.92767,61497
28.93700,63137
28.94635,63882
28.95568,63988
28.96502,63010
28.97437,65210
28.98370,65283
28.99303,65659
29.00238,63055
29.01172,64183
29.02105,64713
29.03040,65280
29.03973,64376
29.04908,65140
29.05842,69233
29.06775,66477
29.07710,66211
29.08643,65701
29.09577,66452
29.10512,68050
29.11445,65699
29.12378,63209
29.13313,64017
29.14247,67876
29.15180,66816
29.16115,69164
29.17048,68447
29.17982,70107
29.18917,71026
29.19850,71674
29.20783,74538
29.21718,70053
29.22652,68784
29.23587,68320
29.24520,70939
29.25453,69027
29.26388,72764
29.27322,68325
29.28255,71024
29.29190,71119
29.30123,71912
29.31057,71013
29.31992,69406
29.32925,69935
29.33858,71781
29.34793,70564
29.35727,69097
29.36660,70128
29.37595,69354
29.38528,71993
29.39462,72142
29.40397,71071
29.41330,68760
29.42265,69703
29.43198,73478
29.44132,73339
29.45067,75972
29.46000,81245
29.46933,81076
29.47868,77470
29.48802,73134
29.49735,73279
29.50670,73549
29.51603,73089
29.52537,74301
29.53472,74847
29.54405,76477
29.55338,75077
29.56273,74136
29.57207,74905
29.58140,75200
29.59075,74622
29.60008,71867
29.60943,74203
29.61877,72930
29.62810,74856
29.63745,75266
29.64678,78142
29.65612,74895
29.66547,75143
29.67480,76338
29.68413,74363
29.69348,74556
29.70282,77405
29.71215,76615
29.72150,74621
29.73083,73787
29.74017,75720
29.74952,74632
29.75885,75731
29.76818,74476
29.77753,75067
29.78687,73695
29.79622,74659
29.80555,76992
29.81488,79778
29.82423,73974
29.83357,76514
29.84290,79229
29.85225,75393
29.86158,76278
29.87092,77794
29.88027,75662
29.88960,76185
29.89893,75413
29.90828,77270
29.91762,77144
29.92695,79548
29.93630,78024
29.94563,76170
29.95498,76573
29.96432,78004
29.97365,78321
29.98300,78417
29.99233,76519
30.00167,81655
30.01102,78965
30.02035,78377
30.02968,78577
30.03903,78558
30.04837,78419
30.05770,77678
30.06705,79112
30.07638,79067
30.08572,80799
30.09507,76786
30.10440,80514
30.11373,79986
30.12308,81878
30.13242,80718
30.14177,79556
30.15110,76040
30.16043,79197
30.16978,78926
30.17912,77826
30.18845,79689
30.19780,80866
30.20713,78900
30.21647,78658
30.22582,80775
30.23515,80793
30.24448,77883
30.25383,78721
30.26317,79976
30.27250,76806
30.28185,78508
30.29118,83209
30.30052,80181
30.30987,82026
30.31920,81173
30.32855,80100
30.33788,78884
30.34722,80744
30.35657,79112
30.36590,81800
30.37523,82500
30.38458,83796
30.39392,86027
30.40325,83276
30.41260,81259
30.42193,84531
30.43127,80869
30.44062,82035
30.44995,82088
30.45928,81797
30.46863,82594
30.47797,79884
30.48730,81042
30.49665,80276
30.50598,81582
30.51533,81266
30.52467,80622
30.53400,81271
30.54335,80234
30.55268,81881
30.56202,81114
30.57137,84133
30.58070,85865
30.59003,85213
30.59938,85810
30.60872,88985
30.61805,91149
30.62740,92614
30.63673,90519
30.64607,91345
30.65542,91151
30.66475,91436
30.67410,90178
30.68343,92985
30.69277,93122
30.70212,89207
30.71145,90631
30.72078,90447
30.73013,88509
30.73947,88906
30.74880,86372
30.75815,85533
30.76748,88613
30.77682,85505
30.78617,87052
30.79550,88496
30.80483,87887
30.81418,88873
30.82352,92305
30.83285,88870
30.84220,87678
30.85153,89814
30.86088,90727
30.87022,90497
30.87955,89647
30.88890,92418
30.89823,92691
30.90757,90324
30.91692,96168
30.92625,93051
30.93558,94137
30.94493,92425
30.95427,95705
30.96360,95873
30.97295,93333
30.98228,93357
30.99162,92055
31.00097,90032
31.01030,90286
31.01963,90218
31.02898,93984
31.03832,90627
31.04767,88750
31.05700,92659
31.06633,92387
31.07568,91862
31.08502,90283
31.09435,88789
31.10370,89941
31.11303,91136
31.12237,91486
31.13172,88374
31.14105,92407
31.15038,90494
31.15973,91505
31.16907,89616
31.17840,92602
31.18775,94772
31.19708,93780
31.20642,95361
31.21577,94322
31.22510,93369
31.23445,94112
31.24378,90224
31.25312,92504
31.26247,90682
31.27180,93530
31.28113,91766
31.29048,93510
31.29982,90189
31.30915,93139
31.31850,92960
31.32783,90643
31.33717,94027
31.34652,91088
31.35585,92651
31.36518,91495
