D:\数据\20220412\TEST2-ZRHX-1.D Tue Apr 12 14:03:23 2022
Start of data points
0.09768,18664
0.10702,19479
0.11637,18841
0.12570,20403
0.13503,19041
0.14438,20563
0.15372,21134
0.16305,20039
0.17240,20390
0.18173,19636
0.19107,19589
0.20042,18955
0.20975,19349
0.21908,20228
0.22843,18733
0.23777,18561
0.24710,18008
0.25645,18007
0.26578,18137
0.27513,18392
0.28447,17724
0.29380,17872
0.30315,17517
0.31248,17236
0.32182,19285
0.33117,18360
0.34050,19914
0.34983,18370
0.35918,17976
0.36852,18240
0.37785,18558
0.38720,17731
0.39653,17642
0.40587,16933
0.41522,16896
0.42455,13939
0.43388,13542
0.44323,14031
0.45257,13329
0.46192,10504
0.47125,7483
0.48058,5635
0.48993,5089
0.49927,5573
0.50860,6283
0.51795,4813
0.52728,4619
0.53662,4890
0.54597,4634
0.55530,4410
0.56463,4275
0.57398,4686
0.58332,5062
0.59265,4274
0.60200,4036
0.61133,4984
0.62067,4310
0.63002,4609
0.63935,4470
0.64870,4166
0.65803,4137
0.66737,4172
0.67672,4604
0.68605,3223
0.69538,4190
0.70473,4217
0.71407,4477
0.72340,3996
0.73275,3928
0.74208,3641
0.75142,3675
0.76077,4062
0.77010,3666
0.77943,3822
0.78878,3725
0.79812,4174
0.80747,3579
0.81680,4545
0.82613,3623
0.83548,3733
0.84482,4050
0.85415,3687
0.86350,3887
0.87283,3969
0.88217,3735
0.89152,4143
0.90085,3914
0.91018,4248
0.91953,4380
0.92887,3411
0.93820,3953
0.94755,4218
0.95688,3940
0.96622,3679
0.97557,3306
0.98490,3519
0.99425,3352
1.00358,3519
1.01292,3922
1.02227,3603
1.03160,3477
1.04093,3684
1.05028,3783
1.05962,4381
1.06895,3352
1.07830,3351
1.08763,3607
1.09697,3260
1.10632,3106
1.11565,3685
1.12498,3890
1.13433,3379
1.14367,3399
1.15300,3671
1.16235,3744
1.17168,3878
1.18103,3875
1.19037,3769
1.19970,3708
1.20905,3829
1.21838,3435
1.22772,3677
1.23707,3765
1.24640,3775
1.25573,4109
1.26508,3696
1.27442,3604
1.28375,3660
1.29310,3720
1.30243,3311
1.31177,3710
1.32112,3275
1.33045,3615
1.33978,4120
1.34913,4017
1.35847,3850
1.36782,3544
1.37715,3283
1.38648,3299
1.39583,4258
1.40517,3575
1.41450,4117
1.42385,3785
1.43318,3327
1.44252,3530
1.45187,3607
1.46120,3417
1.47053,3434
1.47988,3535
1.48922,3718
1.49855,4253
1.50790,4152
1.51723,3644
1.52657,3473
1.53592,3036
1.54525,3802
1.55460,3208
1.56393,3612
1.57327,3448
1.58262,3022
1.59195,4301
1.60128,8558
1.61063,12419
1.61997,15973
1.62930,21457
1.63865,28057
1.64798,36020
1.65732,42849
1.66667,41261
1.67600,36081
1.68533,31188
1.69468,25541
1.70402,17969
1.71337,13413
1.72270,13836
1.73203,15522
1.74138,17108
1.75072,19336
1.76005,19751
1.76940,20961
1.77873,21205
1.78807,21993
1.79742,21353
1.80675,23074
1.81608,21959
1.82543,21894
1.83477,22078
1.84410,23192
1.85345,21538
1.86278,22217
1.87212,28659
1.88147,44431
1.89080,72239
1.90015,101400
1.90948,115601
1.91882,126509
1.92817,142532
1.93750,158969
1.94683,172559
1.95618,169076
1.96552,151742
1.97485,128656
1.98420,100230
1.99353,85850
2.00287,75415
2.01222,74009
2.02155,78403
2.03088,89875
2.04023,89639
2.04957,75955
2.05890,69867
2.06825,59399
2.07758,54959
2.08693,49482
2.09627,45881
2.10560,45832
2.11495,50934
2.12428,75381
2.13362,177936
2.14297,297123
2.15230,303150
2.16163,230392
2.17098,159457
2.18032,133037
2.18965,220686
2.19900,298862
2.20833,217632
2.21767,133308
2.22702,118678
2.23635,177227
2.24568,576405
2.25503,2189775
2.26437,3597632
2.27372,3419195
2.28305,2430732
2.29238,1475494
2.30173,1241972
2.31107,3856453
2.32040,9040713
2.32975,9364498
2.33908,5524430
2.34842,2472950
2.35777,1064679
2.36710,521188
2.37643,305192
2.38578,200161
2.39512,144914
2.40445,117215
2.41380,107526
2.42313,103365
2.43248,91043
2.44182,73247
2.45115,64920
2.46050,62041
2.46983,60222
2.47917,59015
2.48852,53353
2.49785,51800
2.50718,50675
2.51653,47737
2.52587,47228
2.53520,47418
2.54455,50297
2.55388,66451
2.56322,138548
2.57257,178911
2.58190,151829
2.59123,120492
2.60058,104301
2.60992,113224
2.61927,158712
2.62860,181928
2.63793,157266
2.64728,148849
2.65662,127701
2.66595,94073
2.67530,68662
2.68463,54283
2.69397,47859
2.70332,48378
2.71265,86541
2.72198,199324
2.73133,281035
2.74067,221688
2.75000,152051
2.75935,118315
2.76868,120398
2.77802,148106
2.78737,162602
2.79670,136523
2.80605,108203
2.81538,87606
2.82472,77952
2.83407,92702
2.84340,256752
2.85273,819354
2.86208,1415914
2.87142,1258344
2.88075,695922
2.89010,317346
2.89943,155482
2.90877,93977
2.91812,73067
2.92745,60265
2.93678,54173
2.94613,50477
2.95547,45613
2.96480,43348
2.97415,46825
2.98348,51008
2.99283,61848
3.00217,88061
3.01150,116664
3.02085,307320
3.03018,573987
3.03952,527047
3.04887,348156
3.05820,223235
3.06753,165861
3.07688,135426
3.08622,101467
3.09555,72810
3.10490,53966
3.11423,45877
3.12357,43318
3.13292,48125
3.14225,56963
3.15158,105336
3.16093,181749
3.17027,192394
3.17962,128586
3.18895,79718
3.19828,54092
3.20763,44655
3.21697,42434
3.22630,38606
3.23565,37584
3.24498,37205
3.25432,37793
3.26367,40145
3.27300,38650
3.28233,36328
3.29168,36224
3.30102,35613
3.31035,35285
3.31970,35194
3.32903,35103
3.33837,34299
3.34772,35157
3.35705,35765
3.36640,34170
3.37573,34227
3.38507,33361
3.39442,35443
3.40375,44074
3.41308,58992
3.42243,62649
3.43177,55768
3.44110,48734
3.45045,43841
3.45978,41146
3.46912,36872
3.47847,38001
3.48780,36243
3.49713,35173
3.50648,35869
3.51582,33211
3.52517,33154
3.53450,33798
3.54383,56474
3.55318,125689
3.56252,247015
3.57185,314389
3.58120,244168
3.59053,155551
3.59987,117735
3.60922,94786
3.61855,73097
3.62788,60854
3.63723,54661
3.64657,48795
3.65590,41283
3.66525,42387
3.67458,43385
3.68392,41098
3.69327,40471
3.70260,38810
3.71195,42839
3.72128,52699
3.73062,53892
3.73997,46695
3.74930,38910
3.75863,33688
3.76798,33218
3.77732,30006
3.78665,32450
3.79600,33839
3.80533,36574
3.81467,40643
3.82402,44028
3.83335,41054
3.84268,39619
3.85203,41577
3.86137,38691
3.87070,36486
3.88005,39340
3.88938,49728
3.89873,59426
3.90807,60617
3.91740,53186
3.92675,49607
3.93608,56532
3.94542,55008
3.95477,50983
3.96410,48245
3.97343,41978
3.98278,36616
3.99212,33157
4.00145,32579
4.01080,33437
4.02013,34056
4.02947,34263
4.03882,40382
4.04815,42676
4.05748,43541
4.06683,44451
4.07617,53897
4.08552,65132
4.09485,66935
4.10418,61640
4.11353,47594
4.12287,40296
4.13220,33724
4.14155,34130
4.15088,34346
4.16022,32555
4.16957,31803
4.17890,30844
4.18823,29568
4.19758,31133
4.20692,32243
4.21625,35671
4.22560,33715
4.23493,31585
4.24428,31868
4.25362,32374
4.26295,34729
4.27230,34132
4.28163,33031
4.29097,31320
4.30032,31343
4.30965,34687
4.31898,39006
4.32833,44595
4.33767,41134
4.34700,36959
4.35635,34454
4.36568,32746
4.37502,33801
4.38437,34488
4.39370,31640
4.40303,31661
4.41238,28762
4.42172,29151
4.43107,28487
4.44040,28606
4.44973,28202
4.45908,33364
4.46842,42201
4.47775,53584
4.48710,55748
4.49643,45920
4.50577,37527
4.51512,33718
4.52445,31799
4.53378,30829
4.54313,30357
4.55247,30588
4.56180,30359
4.57115,30584
4.58048,30238
4.58982,32500
4.59917,32037
4.60850,32754
4.61785,30639
4.62718,32622
4.63652,34444
4.64587,37491
4.65520,37101
4.66453,35245
4.67388,34080
4.68322,36120
4.69255,41315
4.70190,48013
4.71123,45370
4.72057,44499
4.72992,41864
4.73925,35886
4.74858,31493
4.75793,31537
4.76727,31830
4.77660,34547
4.78595,33949
4.79528,32866
4.80463,33140
4.81397,38201
4.82330,39685
4.83265,36275
4.84198,32465
4.85132,30432
4.86067,32527
4.87000,33481
4.87933,37632
4.88868,35441
4.89802,32852
4.90735,31802
4.91670,32698
4.92603,34451
4.93537,37516
4.94472,39884
4.95405,35880
4.96338,30117
4.97273,27710
4.98207,27446
4.99142,29121
5.00075,30214
5.01008,31845
5.01943,36635
5.02877,41178
5.03810,38482
5.04745,32903
5.05678,30952
5.06612,29609
5.07547,30304
5.08480,31582
5.09413,32214
5.10348,31320
5.11282,27752
5.12215,28704
5.13150,30152
5.14083,31951
5.15018,30982
5.15952,29747
5.16885,30952
5.17820,36481
5.18753,36223
5.19687,33321
5.20622,30946
5.21555,27895
5.22488,28702
5.23423,33022
5.24357,35100
5.25290,35239
5.26225,41955
5.27158,78500
5.28092,157741
5.29027,211204
5.29960,181118
5.30893,107444
5.31828,62253
5.32762,44430
5.33697,37391
5.34630,32300
5.35563,30710
5.36498,29024
5.37432,30044
5.38365,34306
5.39300,38104
5.40233,37118
5.41167,33764
5.42102,32888
5.43035,30396
5.43968,28436
5.44903,26812
5.45837,27018
5.46770,27713
5.47705,28801
5.48638,30446
5.49572,31524
5.50507,30908
5.51440,32517
5.52375,36258
5.53308,37967
5.54242,36514
5.55177,32431
5.56110,31623
5.57043,32108
5.57978,31628
5.58912,29853
5.59845,28509
5.60780,27713
5.61713,25018
5.62647,25711
5.63582,27566
5.64515,27671
5.65448,27886
5.66383,29042
5.67317,29731
5.68250,30381
5.69185,31606
5.70118,30137
5.71053,31597
5.71987,31791
5.72920,31476
5.73855,32362
5.74788,35494
5.75722,40241
5.76657,39056
5.77590,36111
5.78523,32956
5.79458,27826
5.80392,27949
5.81325,27687
5.82260,30172
5.83193,32313
5.84127,31155
5.85062,29349
5.85995,29515
5.86930,29390
5.87863,27959
5.88797,27070
5.89732,25982
5.90665,29829
5.91598,48043
5.92533,67410
5.93467,66280
5.94400,53669
5.95335,47948
5.96268,38945
5.97202,33326
5.98137,30371
5.99070,27664
6.00003,26128
6.00938,24553
6.01872,21007
6.02805,19322
6.03740,17745
6.04673,17628
6.05608,16190
6.06542,19488
6.07475,18392
6.08410,18133
6.09343,16316
6.10277,15629
6.11212,17890
6.12145,22809
6.13078,30639
6.14013,34673
6.14947,28621
6.15880,19089
6.16815,18112
6.17748,17345
6.18682,17619
6.19617,16180
6.20550,15743
6.21483,15657
6.22418,18539
6.23352,18026
6.24287,19625
6.25220,20916
6.26153,27818
6.27088,33805
6.28022,27671
6.28955,20483
6.29890,16217
6.30823,13889
6.31757,13163
6.32692,13087
6.33625,12455
6.34558,13781
6.35493,13671
6.36427,16344
6.37360,23679
6.38295,39910
6.39228,99420
6.40162,236354
6.41097,374289
6.42030,310893
6.42965,153949
6.43898,54502
6.44832,25104
6.45767,19052
6.46700,18175
6.47633,18673
6.48568,16696
6.49502,16771
6.50435,17353
6.51370,19262
6.52303,18216
6.53237,17364
6.54172,16769
6.55105,14453
6.56038,15077
6.56973,13938
6.57907,15519
6.58840,14559
6.59775,15715
6.60708,17331
6.61643,17264
6.62577,19547
6.63510,17861
6.64445,18273
6.65378,17547
6.66312,18076
6.67247,19533
6.68180,17726
6.69113,18800
6.70048,19891
6.70982,17514
6.71915,18408
6.72850,15613
6.73783,15856
6.74717,15383
6.75652,15691
6.76585,13848
6.77520,14823
6.78453,16156
6.79387,19033
6.80322,21599
6.81255,19384
6.82188,18117
6.83123,14688
6.84057,14068
6.84990,15002
6.85925,13707
6.86858,14005
6.87792,13743
6.88727,14875
6.89660,17950
6.90593,22657
6.91528,23203
6.92462,19973
6.93395,17705
6.94330,15131
6.95263,15904
6.96198,16477
6.97132,15261
6.98065,14986
6.99000,14633
6.99933,15517
7.00867,16935
7.01802,17357
7.02735,16017
7.03668,14141
7.04603,14024
7.05537,13180
7.06470,13638
7.07405,13088
7.08338,13657
7.09272,14150
7.10207,15296
7.11140,17326
7.12073,17401
7.13008,15410
7.13942,15120
7.14877,14944
7.15810,14187
7.16743,13760
7.17678,14165
7.18612,14356
7.19545,15429
7.20480,13831
7.21413,17174
7.22347,37545
7.23282,70611
7.24215,100530
7.25148,85558
7.26083,50927
7.27017,35451
7.27950,31120
7.28885,26013
7.29818,22521
7.30752,18480
7.31687,15815
7.32620,13516
7.33555,13157
7.34488,14275
7.35422,13491
7.36357,13835
7.37290,17096
7.38223,28061
7.39158,70990
7.40092,147724
7.41025,204275
7.41960,177386
7.42893,108038
7.43827,56932
7.44762,29987
7.45695,22396
7.46628,20906
7.47563,19260
7.48497,21229
7.49432,17576
7.50365,17678
7.51298,15422
7.52233,14874
7.53167,15682
7.54100,15520
7.55035,18016
7.55968,18228
7.56902,21623
7.57837,19931
7.58770,18693
7.59703,15765
7.60638,16121
7.61572,16929
7.62505,17618
7.63440,18857
7.64373,18956
7.65307,16002
7.66242,15847
7.67175,15503
7.68110,16406
7.69043,20559
7.69977,24680
7.70912,26096
7.71845,24503
7.72778,20342
7.73713,19400
7.74647,18455
7.75580,18426
7.76515,17846
7.77448,20191
7.78382,20905
7.79317,20115
7.80250,18681
7.81183,15560
7.82118,14062
7.83052,16350
7.83985,16468
7.84920,23834
7.85853,40601
7.86788,61288
7.87722,62684
7.88655,45889
7.89590,36114
7.90523,50148
7.91457,90161
7.92392,103229
7.93325,74486
7.94258,49727
7.95193,37333
7.96127,29974
7.97060,25801
7.97995,26455
7.98928,25187
7.99862,22250
8.00797,18938
8.01730,19614
8.02663,23523
8.03598,30838
8.04532,36537
8.05467,33692
8.06400,24994
8.07333,20512
8.08268,22027
8.09202,25655
8.10135,27385
8.11070,24384
8.12003,21655
8.12937,19957
8.13872,19995
8.14805,17945
8.15738,18028
8.16673,18098
8.17607,17797
8.18540,16569
8.19475,17234
8.20408,18443
8.21342,18166
8.22277,17595
8.23210,17449
8.24145,17843
8.25078,16737
8.26012,17424
8.26947,17621
8.27880,17567
8.28813,17132
8.29748,15235
8.30682,14542
8.31615,15567
8.32550,16148
8.33483,16338
8.34417,16646
8.35352,16305
8.36285,15586
8.37218,16249
8.38153,17085
8.39087,18204
8.40020,19474
8.40955,19495
8.41888,20173
8.42823,19846
8.43757,21773
8.44690,18906
8.45625,18240
8.46558,19352
8.47492,20063
8.48427,20210
8.49360,19963
8.50293,19541
8.51228,17204
8.52162,18322
8.53095,19179
8.54030,18708
8.54963,20791
8.55897,21619
8.56832,21338
8.57765,19251
8.58700,19302
8.59633,23649
8.60567,23648
8.61502,23542
8.62435,20093
8.63368,19793
8.64303,19481
8.65237,21481
8.66170,22733
8.67105,23437
8.68038,22025
8.68972,23244
8.69907,22038
8.70840,22697
8.71773,21076
8.72708,19827
8.73642,23102
8.74575,28416
8.75510,33695
8.76443,30083
8.77378,26114
8.78312,28819
8.79245,52775
8.80180,99318
8.81113,126092
8.82047,102530
8.82982,53901
8.83915,28953
8.84848,21062
8.85783,20352
8.86717,21449
8.87650,23199
8.88585,24045
8.89518,23551
8.90452,22991
8.91387,22677
8.92320,24321
8.93253,24909
8.94188,24131
8.95122,21959
8.96057,21787
8.96990,19776
8.97923,19071
8.98858,19362
8.99792,20258
9.00725,20009
9.01660,20223
9.02593,21211
9.03527,20189
9.04462,21909
9.05395,23032
9.06328,23023
9.07263,26667
9.08197,31662
9.09130,33029
9.10065,29857
9.10998,25645
9.11932,25811
9.12867,31233
9.13800,36393
9.14735,30803
9.15668,24336
9.16602,20126
9.17537,19906
9.18470,21857
9.19403,22608
9.20338,22899
9.21272,31268
9.22205,41412
9.23140,59870
9.24073,57168
9.25007,37934
9.25942,25840
9.26875,22567
9.27808,22070
9.28743,19958
9.29677,21031
9.30612,20816
9.31545,28030
9.32478,41404
9.33413,47291
9.34347,42899
9.35280,43432
9.36215,74782
9.37148,115201
9.38082,113482
9.39017,88354
9.39950,67506
9.40883,53818
9.41818,50912
9.42752,48888
9.43685,37884
9.44620,26632
9.45553,21678
9.46487,20446
9.47422,20011
9.48355,21920
9.49290,24952
9.50223,24911
9.51157,21903
9.52092,21509
9.53025,25908
9.53958,29330
9.54893,38022
9.55827,48833
9.56760,51983
9.57695,41326
9.58628,29566
9.59562,31809
9.60497,32608
9.61430,29480
9.62363,24133
9.63298,23878
9.64232,23840
9.65165,23011
9.66100,22348
9.67033,24006
9.67968,26200
9.68902,24760
9.69835,24044
9.70770,23507
9.71703,34465
9.72637,75198
9.73572,170519
9.74505,279896
9.75438,311619
9.76373,231149
9.77307,151727
9.78240,108896
9.79175,80780
9.80108,62314
9.81042,53398
9.81977,53968
9.82910,61022
9.83843,73570
9.84778,74237
9.85712,64120
9.86647,47028
9.87580,47122
9.88513,59459
9.89448,60557
9.90382,57697
9.91315,52535
9.92250,48497
9.93183,41207
9.94117,33605
9.95052,29018
9.95985,28736
9.96918,37477
9.97853,61004
9.98787,85543
9.99720,77636
10.00655,56907
10.01588,38598
10.02522,31076
10.03457,27641
10.04390,26769
10.05325,36670
10.06258,49089
10.07192,58138
10.08127,54154
10.09060,40375
10.09993,49830
10.10928,138679
10.11862,360759
10.12795,554025
10.13730,512340
10.14663,761808
10.15597,1901225
10.16532,2775338
10.17465,2077833
10.18398,744482
10.19333,156708
10.20267,49727
10.21202,35471
10.22135,33683
10.23068,34873
10.24003,38313
10.24937,37002
10.25870,31896
10.26805,28285
10.27738,27801
10.28672,31573
10.29607,31086
10.30540,30542
10.31473,28756
10.32408,24299
10.33342,22781
10.34275,22583
10.35210,23665
10.36143,22962
10.37077,22385
10.38012,20935
10.38945,20621
10.39880,21673
10.40813,22517
10.41747,25573
10.42682,28864
10.43615,36907
10.44548,53460
10.45483,77256
10.46417,84140
10.47350,61965
10.48285,35599
10.49218,24661
10.50152,21527
10.51087,22093
10.52020,21370
10.52953,22975
10.53888,22415
10.54822,24214
10.55755,25382
10.56690,25954
10.57623,27589
10.58558,26840
10.59492,25869
10.60425,22182
10.61360,22608
10.62293,33618
10.63227,43004
10.64162,44382
10.65095,31577
10.66028,26271
10.66963,28539
10.67897,30766
10.68830,30342
10.69765,30005
10.70698,43932
10.71632,58895
10.72567,51180
10.73500,35551
10.74433,35940
10.75368,56977
10.76302,77975
10.77237,76669
10.78170,80369
10.79103,137527
10.80038,213977
10.80972,215563
10.81905,125991
10.82840,58633
10.83773,33971
10.84707,28044
10.85642,28655
10.86575,31449
10.87508,33760
10.88443,34181
10.89377,33241
10.90310,30019
10.91245,31137
10.92178,30722
10.93113,31844
10.94047,28938
10.94980,28656
10.95915,28803
10.96848,29207
10.97782,25344
10.98717,22018
10.99650,22054
11.00583,20532
11.01518,20197
11.02452,19489
11.03385,20606
11.04320,18726
11.05253,20960
11.06187,19099
11.07122,20683
11.08055,19679
11.08988,19815
11.09923,20102
11.10857,21931
11.11792,21196
11.12725,21086
11.13658,20073
11.14593,20555
11.15527,21684
11.16460,22292
11.17395,20667
11.18328,19191
11.19262,18810
11.20197,20572
11.21130,20995
11.22063,23278
11.22998,22014
11.23932,21752
11.24865,22860
11.25800,25859
11.26733,28033
11.27667,23374
11.28602,24214
11.29535,22625
11.30470,21438
11.31403,21389
11.32337,26099
11.33272,37043
11.34205,55883
11.35138,71207
11.36073,60225
11.37007,39726
11.37940,28396
11.38875,31059
11.39808,41162
11.40742,48126
11.41677,42967
11.42610,32228
11.43543,23629
11.44478,24508
11.45412,32843
11.46345,44973
11.47280,46576
11.48213,35415
11.49148,24309
11.50082,21663
11.51015,20484
11.51950,19968
11.52883,20334
11.53817,18956
11.54752,21687
11.55685,29773
11.56618,48112
11.57553,62266
11.58487,59113
11.59420,52535
11.60355,45693
11.61288,40892
11.62222,34737
11.63157,29743
11.64090,29228
11.65023,26904
11.65958,30233
11.66892,30125
11.67827,28210
11.68760,26372
11.69693,25776
11.70628,26325
11.71562,29251
11.72495,28936
11.73430,29013
11.74363,27854
11.75297,25813
11.76232,25158
11.77165,28263
11.78098,32128
11.79033,35175
11.79967,31325
11.80900,29068
11.81835,28955
11.82768,26056
11.83702,25656
11.84637,22932
11.85570,21975
11.86505,23722
11.87438,23796
11.88372,25621
11.89307,22871
11.90240,22454
11.91173,21655
11.92108,21425
11.93042,28445
11.93975,34793
11.94910,37491
11.95843,32041
11.96777,25688
11.97712,23418
11.98645,23729
11.99578,29970
12.00513,38815
12.01447,42565
12.02382,38127
12.03315,30858
12.04248,26941
12.05183,24081
12.06117,22779
12.07050,21634
12.07985,21007
12.08918,24220
12.09852,24409
12.10787,22106
12.11720,22421
12.12653,20434
12.13588,20135
12.14522,25971
12.15455,32993
12.16390,48555
12.17323,73989
12.18257,68894
12.19192,46336
12.20125,32168
12.21060,30887
12.21993,41939
12.22927,50095
12.23862,42889
12.24795,33313
12.25728,28848
12.26663,41635
12.27597,57266
12.28530,60676
12.29465,48476
12.30398,35681
12.31332,29437
12.32267,33778
12.33200,35615
12.34133,37230
12.35068,33426
12.36002,27063
12.36935,27393
12.37870,27255
12.38803,25731
12.39738,25121
12.40672,23026
12.41605,23720
12.42540,25018
12.43473,22967
12.44407,21583
12.45342,26510
12.46275,29473
12.47208,32751
12.48143,29834
12.49077,29869
12.50010,31617
12.50945,31542
12.51878,29930
12.52812,29640
12.53747,30736
12.54680,31536
12.55613,37369
12.56548,41673
12.57482,36323
12.58417,30777
12.59350,25519
12.60283,23700
12.61218,26332
12.62152,30219
12.63085,38455
12.64020,43815
12.64953,43127
12.65887,38865
12.66822,31946
12.67755,25691
12.68688,21481
12.69623,21665
12.70557,24738
12.71490,26499
12.72425,26096
12.73358,24184
12.74293,25980
12.75227,25150
12.76160,25772
12.77095,23864
12.78028,22203
12.78962,22571
12.79897,23546
12.80830,23122
12.81763,24111
12.82698,23368
12.83632,24527
12.84565,24908
12.85500,21699
12.86433,21732
12.87367,21725
12.88302,21258
12.89235,23318
12.90168,23296
12.91103,20258
12.92037,20819
12.92972,22159
12.93905,20928
12.94838,23334
12.95773,22602
12.96707,20917
12.97640,19524
12.98575,19048
12.99508,18984
13.00442,21275
13.01377,25221
13.02310,31794
13.03243,34755
13.04178,31258
13.05112,24420
13.06045,22171
13.06980,24010
13.07913,23423
13.08847,25164
13.09782,24027
13.10715,22711
13.11650,21039
13.12583,25228
13.13517,29382
13.14452,29758
13.15385,26476
13.16318,26750
13.17253,28936
13.18187,38795
13.19120,83672
13.20055,180525
13.20988,255825
13.21922,198072
13.22857,109212
13.23790,79768
13.24723,75592
13.25658,56274
13.26592,41517
13.27525,33480
13.28460,33067
13.29393,30838
13.30328,32320
13.31262,34036
13.32195,35773
13.33130,33312
13.34063,30931
13.34997,26884
13.35932,28458
13.36865,25434
13.37798,27166
13.38733,35535
13.39667,37715
13.40600,35203
13.41535,28030
13.42468,24931
13.43402,30179
13.44337,29526
13.45270,29588
13.46203,28431
13.47138,30323
13.48072,28857
13.49007,26294
13.49940,28846
13.50873,42797
13.51808,66055
13.52742,80090
13.53675,61121
13.54610,37559
13.55543,26990
13.56477,24796
13.57412,23903
13.58345,22788
13.59278,23281
13.60213,22986
13.61147,23911
13.62080,24656
13.63015,29785
13.63948,33533
13.64883,44989
13.65817,43402
13.66750,36899
13.67685,29678
13.68618,24417
13.69552,22843
13.70487,21899
13.71420,20009
13.72353,18732
13.73288,20704
13.74222,21131
13.75155,21447
13.76090,22769
13.77023,23576
13.77957,22226
13.78892,25653
13.79825,29327
13.80758,28332
13.81693,26231
13.82627,22885
13.83562,21157
13.84495,22370
13.85428,24443
13.86363,26524
13.87297,27563
13.88230,39716
13.89165,67226
13.90098,132860
13.91032,227289
13.91967,247003
13.92900,147570
13.93833,63379
13.94768,37133
13.95702,31680
13.96635,30848
13.97570,28288
13.98503,27822
13.99437,27300
14.00372,27020
14.01305,25270
14.02240,29065
14.03173,57948
14.04107,342022
14.05042,1786128
14.05975,4870286
14.06908,7061062
14.07843,5212417
14.08777,1708195
14.09710,303990
14.10645,76715
14.11578,45196
14.12512,38191
14.13447,38449
14.14380,39678
14.15313,44242
14.16248,46008
14.17182,43678
14.18115,41399
14.19050,44126
14.19983,44677
14.20918,38904
14.21852,29726
14.22785,26987
14.23720,24908
14.24653,25339
14.25587,26843
14.26522,30324
14.27455,29173
14.28388,26843
14.29323,25801
14.30257,28815
14.31190,37932
14.32125,48108
14.33058,51367
14.33992,42625
14.34927,33142
14.35860,28136
14.36795,25117
14.37728,25571
14.38662,25674
14.39597,25664
14.40530,25548
14.41463,23097
14.42398,22006
14.43332,24184
14.44265,31329
14.45200,51056
14.46133,68453
14.47067,70432
14.48002,52101
14.48935,37483
14.49868,30844
14.50803,26451
14.51737,24577
14.52670,25161
14.53605,25858
14.54538,25908
14.55473,26222
14.56407,27129
14.57340,25537
14.58275,24751
14.59208,25141
14.60142,24626
14.61077,22542
14.62010,21933
14.62943,22960
14.63878,24703
14.64812,27037
14.65745,30920
14.66680,29591
14.67613,28014
14.68547,24583
14.69482,25123
14.70415,23981
14.71348,24268
14.72283,25460
14.73217,26995
14.74152,27913
14.75085,26094
14.76018,23545
14.76953,25084
14.77887,24459
14.78820,24662
14.79755,25419
14.80688,24573
14.81622,26272
14.82557,25519
14.83490,25487
14.84423,23700
14.85358,32002
14.86292,39131
14.87225,42906
14.88160,34589
14.89093,26769
14.90027,25374
14.90962,25067
14.91895,24969
14.92830,24875
14.93763,24031
14.94697,24683
14.95632,27014
14.96565,32668
14.97498,32193
14.98433,28458
14.99367,30810
15.00300,36819
15.01235,37536
15.02168,35753
15.03102,32936
15.04037,36723
15.04970,40428
15.05903,40009
15.06838,39629
15.07772,34277
15.08705,27866
15.09640,26109
15.10573,26843
15.11508,35155
15.12442,42948
15.13375,42917
15.14310,34685
15.15243,27246
15.16177,24285
15.17112,23329
15.18045,24648
15.18978,33791
15.19913,49747
15.20847,69831
15.21780,79546
15.22715,66796
15.23648,46796
15.24582,36535
15.25517,32513
15.26450,29961
15.27383,30353
15.28318,31153
15.29252,29562
15.30187,27819
15.31120,32071
15.32053,34094
15.32988,40729
15.33922,36118
15.34855,31914
15.35790,33958
15.36723,41544
15.37657,42570
15.38592,34586
15.39525,28537
15.40458,29506
15.41393,31032
15.42327,32014
15.43260,31071
15.44195,26086
15.45128,26360
15.46063,27286
15.46997,26605
15.47930,27654
15.48865,29740
15.49798,41884
15.50732,63459
15.51667,74753
15.52600,61708
15.53533,42626
15.54468,30266
15.55402,27458
15.56335,26609
15.57270,26895
15.58203,25821
15.59137,26831
15.60072,28414
15.61005,28617
15.61938,31196
15.62873,36329
15.63807,37613
15.64742,42028
15.65675,45617
15.66608,49216
15.67543,55974
15.68477,69293
15.69410,74372
15.70345,65939
15.71278,51896
15.72212,41248
15.73147,40148
15.74080,44949
15.75013,47025
15.75948,49182
15.76882,45706
15.77815,39394
15.78750,34720
15.79683,37234
15.80617,49067
15.81552,92200
15.82485,168121
15.83420,241716
15.84353,225857
15.85287,150324
15.86222,95745
15.87155,70582
15.88088,68786
15.89023,67788
15.89957,67715
15.90890,59489
15.91825,50122
15.92758,43218
15.93692,35814
15.94627,34306
15.95560,34891
15.96493,40115
15.97428,48698
15.98362,55823
15.99295,58848
16.00230,50344
16.01163,39891
16.02098,34108
16.03032,35721
16.03965,37109
16.04900,38487
16.05833,39426
16.06767,39696
16.07702,36316
16.08635,36055
16.09568,34299
16.10503,36816
16.11437,39377
16.12370,41061
16.13305,38986
16.14238,35382
16.15172,37508
16.16107,35076
16.17040,31407
16.17975,30209
16.18908,32954
16.19842,35569
16.20777,37414
16.21710,38243
16.22643,40571
16.23578,45456
16.24512,45903
16.25445,43027
16.26380,46339
16.27313,88726
16.28247,214127
16.29182,385257
16.30115,406519
16.31048,250098
16.31983,102435
16.32917,50320
16.33850,35759
16.34785,29070
16.35718,28351
16.36653,27760
16.37587,31214
16.38520,31257
16.39455,34246
16.40388,35824
16.41322,36582
16.42257,34773
16.43190,33889
16.44123,37431
16.45058,41340
16.45992,41090
16.46925,42134
16.47860,42796
16.48793,40419
16.49727,36217
16.50662,35639
16.51595,35836
16.52528,35890
16.53463,33034
16.54397,31244
16.55332,27356
16.56265,28703
16.57198,31279
16.58133,32830
16.59067,33475
16.60000,31257
16.60935,33121
16.61868,38543
16.62802,41972
16.63737,38273
16.64670,36280
16.65603,35625
16.66538,33081
16.67472,36595
16.68405,39821
16.69340,44574
16.70273,40834
16.71207,37551
16.72142,34766
16.73075,45508
16.74010,76600
16.74943,96104
16.75877,72843
16.76812,46239
16.77745,34119
16.78678,29678
16.79613,31309
16.80547,31637
16.81480,32957
16.82415,41259
16.83348,42357
16.84282,36260
16.85217,32833
16.86150,31113
16.87083,31403
16.88018,31498
16.88952,31295
16.89885,39916
16.90820,49825
16.91753,53776
16.92688,50088
16.93622,45199
16.94555,46968
16.95490,50409
16.96423,48648
16.97357,40484
16.98292,35323
16.99225,30329
17.00158,32206
17.01093,38058
17.02027,54130
17.02960,69550
17.03895,66985
17.04828,49603
17.05762,40770
17.06697,38562
17.07630,36662
17.08565,36876
17.09498,36085
17.10432,34192
17.11367,34872
17.12300,38061
17.13233,42550
17.14168,39097
17.15102,35210
17.16035,29600
17.16970,30873
17.17903,30862
17.18837,32570
17.19772,30364
17.20705,28452
17.21638,28870
17.22573,28911
17.23507,28695
17.24440,31659
17.25375,33952
17.26308,36793
17.27243,36595
17.28177,36281
17.29110,34475
17.30045,33750
17.30978,36886
17.31912,41413
17.32847,41703
17.33780,36764
17.34713,33709
17.35648,35901
17.36582,55179
17.37515,100647
17.38450,133677
17.39383,115867
17.40317,73101
17.41252,55149
17.42185,50074
17.43118,47007
17.44053,43821
17.44987,40827
17.45922,37981
17.46855,37812
17.47788,65894
17.48723,293565
17.49657,1216196
17.50590,2440645
17.51525,2455024
17.52458,1249073
17.53392,331894
17.54327,86460
17.55260,50407
17.56193,44102
17.57128,46488
17.58062,46421
17.58995,46459
17.59930,41896
17.60863,37952
17.61797,35164
17.62732,37180
17.63665,36741
17.64600,40210
17.65533,46002
17.66467,47740
17.67402,46495
17.68335,51935
17.69268,58635
17.70203,53475
17.71137,49843
17.72070,44188
17.73005,39128
17.73938,41641
17.74872,46184
17.75807,51221
17.76740,47550
17.77673,43144
17.78608,34720
17.79542,31390
17.80477,32379
17.81410,34238
17.82343,36103
17.83278,38355
17.84212,42174
17.85145,50066
17.86080,49986
17.87013,48089
17.87947,47553
17.88882,43981
17.89815,40402
17.90748,35417
17.91683,30134
17.92617,30181
17.93550,33413
17.94485,38201
17.95418,46087
17.96352,48412
17.97287,44403
17.98220,37553
17.99155,33159
18.00088,31632
18.01022,31769
18.01957,30849
18.02890,34025
18.03823,42565
18.04758,50629
18.05692,50524
18.06625,44266
18.07560,35856
18.08493,34568
18.09427,37972
18.10362,42763
18.11295,42538
18.12228,40836
18.13163,38426
18.14097,40459
18.15030,41359
18.15965,40339
18.16898,37642
18.17833,34675
18.18767,32211
18.19700,31663
18.20635,34937
18.21568,34144
18.22502,32823
18.23437,31934
18.24370,30320
18.25303,32451
18.26238,32314
18.27172,36371
18.28105,38110
18.29040,41738
18.29973,42253
18.30907,42097
18.31842,41493
18.32775,39885
18.33708,46673
18.34643,54912
18.35577,53761
18.36512,46255
18.37445,34377
18.38378,32629
18.39313,33138
18.40247,33834
18.41180,36636
18.42115,35663
18.43048,42282
18.43982,49049
18.44917,47677
18.45850,40840
18.46783,35401
18.47718,38300
18.48652,50490
18.49585,65667
18.50520,77088
18.51453,71490
18.52387,56544
18.53322,47520
18.54255,45233
18.55190,44721
18.56123,38884
18.57057,34549
18.57992,31185
18.58925,34201
18.59858,40886
18.60793,46253
18.61727,45422
18.62660,44338
18.63595,39686
18.64528,37070
18.65462,33343
18.66397,36411
18.67330,36104
18.68263,36922
18.69198,39192
18.70132,44705
18.71065,50331
18.72000,47552
18.72933,46995
18.73868,43192
18.74802,40761
18.75735,36200
18.76670,32606
18.77603,30232
18.78537,31878
18.79472,35060
18.80405,35991
18.81338,37388
18.82273,35939
18.83207,34853
18.84140,35629
18.85075,33417
18.86008,32417
18.86942,31383
18.87877,30768
18.88810,34716
18.89745,42438
18.90678,50994
18.91612,50394
18.92547,43636
18.93480,45933
18.94413,48814
18.95348,52401
18.96282,52121
18.97215,47509
18.98150,40879
18.99083,37087
19.00017,35839
19.00952,37807
19.01885,36097
19.02818,43174
19.03753,59575
19.04687,76026
19.05620,89053
19.06555,104493
19.07488,143952
19.08423,170341
19.09357,132781
19.10290,78101
19.11225,50570
19.12158,37015
19.13092,33736
19.14027,31793
19.14960,31429
19.15893,30775
19.16828,31825
19.17762,35726
19.18695,38724
19.19630,41864
19.20563,43047
19.21497,42945
19.22432,42007
19.23365,37286
19.24298,33188
19.25233,30817
19.26167,33242
19.27102,33861
19.28035,34477
19.28968,39683
19.29903,44319
19.30837,53141
19.31770,50379
19.32705,45604
19.33638,37272
19.34572,32720
19.35507,31710
19.36440,28031
19.37373,30447
19.38308,33798
19.39242,38354
19.40175,37981
19.41110,37145
19.42043,33436
19.42977,31835
19.43912,29343
19.44845,27756
19.45780,28720
19.46713,33440
19.47647,33218
19.48582,36246
19.49515,35851
19.50448,31535
19.51383,30173
19.52317,30856
19.53250,31360
19.54185,31320
19.55118,28636
19.56052,32781
19.56987,31778
19.57920,36648
19.58853,35996
19.59788,36833
19.60722,33202
19.61657,33954
19.62590,37843
19.63523,36954
19.64458,36721
19.65392,32936
19.66325,31725
19.67260,31987
19.68193,30666
19.69127,30182
19.70062,30159
19.70995,38668
19.71928,49809
19.72863,58870
19.73797,48985
19.74730,39890
19.75665,34426
19.76598,35417
19.77532,36437
19.78467,36097
19.79400,35691
19.80335,33498
19.81268,32384
19.82202,31427
19.83137,30449
19.84070,30098
19.85003,30983
19.85938,39311
19.86872,48353
19.87805,51962
19.88740,40143
19.89673,35508
19.90607,33743
19.91542,33562
19.92475,31163
19.93408,30613
19.94343,31738
19.95277,33924
19.96210,33925
19.97145,30800
19.98078,30154
19.99013,26817
19.99947,30790
20.00880,31736
20.01815,33753
20.02748,35281
20.03682,36962
20.04617,36046
20.05550,32042
20.06483,32623
20.07418,34132
20.08352,31769
20.09285,30738
20.10220,29911
20.11153,26215
20.12087,27219
20.13022,28962
20.13955,36859
20.14888,37249
20.15823,38369
20.16757,33815
20.17692,30445
20.18625,29311
20.19558,27797
20.20493,28528
20.21427,29220
20.22360,26893
20.23295,29095
20.24228,27711
20.25162,27098
20.26097,27619
20.27030,28148
20.27963,27554
20.28898,30358
20.29832,28929
20.30765,28665
20.31700,27716
20.32633,26663
20.33567,25717
20.34502,27286
20.35435,28080
20.36370,28436
20.37303,28202
20.38237,25032
20.39172,27432
20.40105,24296
20.41038,26238
20.41973,27211
20.42907,27695
20.43840,28648
20.44775,29472
20.45708,32428
20.46642,37694
20.47577,37301
20.48510,31173
20.49443,29079
20.50378,28847
20.51312,28113
20.52247,28290
20.53180,29950
20.54113,32917
20.55048,47884
20.55982,112091
20.56915,213067
20.57850,238596
20.58783,143527
20.59717,71107
20.60652,43947
20.61585,36360
20.62518,35431
20.63453,34733
20.64387,33239
20.65320,34521
20.66255,36598
20.67188,35432
20.68122,35659
20.69057,34146
20.69990,34692
20.70925,35109
20.71858,34964
20.72792,31452
20.73727,31479
20.74660,29224
20.75593,28836
20.76528,27733
20.77462,27477
20.78395,30419
20.79330,34403
20.80263,33441
20.81197,30552
20.82132,29465
20.83065,26716
20.83998,26505
20.84933,26399
20.85867,27780
20.86800,26927
20.87735,29078
20.88668,28999
20.89603,29239
20.90537,30076
20.91470,30260
20.92405,29291
20.93338,27269
20.94272,27429
20.95207,25009
20.96140,25504
20.97073,26195
20.98008,26491
20.98942,26503
20.99875,26077
21.00810,26202
21.01743,26721
21.02677,25514
21.03612,27102
21.04545,27488
21.05478,28049
21.06413,27282
21.07347,26782
21.08282,29667
21.09215,30458
21.10148,31495
21.11083,32376
21.12017,30723
21.12950,30422
21.13885,26708
21.14818,30137
21.15752,29378
21.16687,29355
21.17620,33243
21.18553,36201
21.19488,38189
21.20422,36232
21.21355,33597
21.22290,31072
21.23223,31557
21.24158,27928
21.25092,27304
21.26025,33537
21.26960,35194
21.27893,38642
21.28827,37894
21.29762,32651
21.30695,29319
21.31628,29425
21.32563,26919
21.33497,28971
21.34430,28071
21.35365,28430
21.36298,24940
21.37232,26399
21.38167,25378
21.39100,26307
21.40033,28404
21.40968,29506
21.41902,30750
21.42837,30043
21.43770,29183
21.44703,27345
21.45638,27226
21.46572,28081
21.47505,28041
21.48440,29860
21.49373,28195
21.50307,29964
21.51242,27937
21.52175,26851
21.53108,25302
21.54043,26719
21.54977,29304
21.55910,34476
21.56845,40792
21.57778,42588
21.58712,37138
21.59647,33349
21.60580,31129
21.61515,28628
21.62448,28614
21.63382,26497
21.64317,27728
21.65250,27261
21.66183,28210
21.67118,28298
21.68052,29265
21.68985,29566
21.69920,29122
21.70853,29417
21.71787,31207
21.72722,32551
21.73655,32482
21.74588,29550
21.75523,27945
21.76457,28069
21.77390,26145
21.78325,25380
21.79258,25629
21.80193,29142
21.81127,29425
21.82060,31593
21.82995,31913
21.83928,28826
21.84862,27790
21.85797,27688
21.86730,30431
21.87663,35167
21.88598,38034
21.89532,37909
21.90465,40435
21.91400,36346
21.92333,31959
21.93267,31357
21.94202,29953
21.95135,30815
21.96068,34865
21.97003,38688
21.97937,45070
21.98872,44617
21.99805,39024
22.00738,36558
22.01673,33747
22.02607,32435
22.03540,32996
22.04475,29642
22.05408,31400
22.06342,35099
22.07277,31560
22.08210,31749
22.09143,31769
22.10078,31153
22.11012,30788
22.11945,29154
22.12880,28611
22.13813,31138
22.14747,34458
22.15682,36490
22.16615,39750
22.17550,38511
22.18483,31978
22.19417,30837
22.20352,29725
22.21285,28656
22.22218,30565
22.23153,31685
22.24087,31250
22.25020,28430
22.25955,29182
22.26888,29611
22.27822,33311
22.28757,31732
22.29690,32997
22.30623,30200
22.31558,29248
22.32492,28032
22.33427,28748
22.34360,28828
22.35293,30102
22.36228,30341
22.37162,29256
22.38095,26253
22.39030,27403
22.39963,26999
22.40897,26325
22.41832,26307
22.42765,26482
22.43698,27953
22.44633,29256
22.45567,28402
22.46500,28348
22.47435,27327
22.48368,27677
22.49302,27595
22.50237,29444
22.51170,27447
22.52105,28020
22.53038,26914
22.53972,27288
22.54907,25615
22.55840,26998
22.56773,28844
22.57708,28934
22.58642,28536
22.59575,28087
22.60510,27521
22.61443,27976
22.62377,30133
22.63312,29172
22.64245,27911
22.65178,27113
22.66113,26538
22.67047,27870
22.67980,27766
22.68915,30327
22.69848,30238
22.70783,29221
22.71717,28883
22.72650,30174
22.73585,30254
22.74518,32638
22.75452,32508
22.76387,32232
22.77320,28840
22.78253,29748
22.79188,30541
22.80122,28932
22.81055,28332
22.81990,29036
22.82923,28310
22.83857,28776
22.84792,30221
22.85725,28411
22.86658,28084
22.87593,28925
22.88527,28384
22.89462,26614
22.90395,28706
22.91328,26018
22.92263,26820
22.93197,26858
22.94130,27164
22.95065,28499
22.95998,26501
22.96932,28997
22.97867,26304
22.98800,27412
22.99733,25467
23.00668,26930
23.01602,25472
23.02535,26331
23.03470,25319
23.04403,27372
23.05338,27783
23.06272,25744
23.07205,26905
23.08140,25865
23.09073,24876
23.10007,25337
23.10942,25679
23.11875,26027
23.12808,26552
23.13743,26069
23.14677,25957
23.15610,25614
23.16545,25163
23.17478,26663
23.18412,26044
23.19347,26400
23.20280,24467
23.21213,25076
23.22148,24365
23.23082,25910
23.24017,26157
23.24950,26242
23.25883,26468
23.26818,26442
23.27752,26607
23.28685,27743
23.29620,26455
23.30553,28454
23.31487,32122
23.32422,36944
23.33355,39519
23.34288,36436
23.35223,31161
23.36157,28981
23.37090,26628
23.38025,27834
23.38958,28951
23.39892,26511
23.40827,27233
23.41760,27335
23.42695,26969
23.43628,28871
23.44562,28258
23.45497,27049
23.46430,31823
23.47363,27814
23.48298,28172
23.49232,26497
23.50165,25911
23.51100,27230
23.52033,26275
23.52967,26341
23.53902,28005
23.54835,27309
23.55768,27570
23.56703,26291
23.57637,26881
23.58570,27421
23.59505,26125
23.60438,25147
23.61373,26359
23.62307,25963
23.63240,26933
23.64175,26375
23.65108,26123
23.66042,26262
23.66977,26199
23.67910,25836
23.68843,26112
23.69778,26250
23.70712,29443
23.71645,30030
23.72580,31434
23.73513,31184
23.74447,27376
23.75382,28163
23.76315,26236
23.77248,26508
23.78183,26960
23.79117,26792
23.80052,24581
23.80985,27146
23.81918,26164
23.82853,25562
23.83787,25463
23.84720,25971
23.85655,27159
23.86588,26970
23.87522,27509
23.88457,26664
23.89390,28064
23.90323,26335
23.91258,25553
23.92192,27211
23.93125,27837
23.94060,24248
23.94993,25849
23.95928,25987
23.96862,26040
23.97795,27035
23.98730,25984
23.99663,27826
24.00597,25879
24.01532,26771
24.02465,26337
24.03398,26863
24.04333,25339
24.05267,25740
24.06200,25902
24.07135,26812
24.08068,25871
24.09002,26031
24.09937,26054
24.10870,26095
24.11803,25813
24.12738,26439
24.13672,26983
24.14607,25804
24.15540,27464
24.16473,27661
24.17408,26117
24.18342,25362
24.19275,27761
24.20210,27489
24.21143,25836
24.22077,26092
24.23012,26164
24.23945,28375
24.24878,27598
24.25813,26463
24.26747,25920
24.27680,26154
24.28615,27017
24.29548,26198
24.30482,28381
24.31417,29088
24.32350,32092
24.33285,30484
24.34218,28992
24.35152,27005
24.36087,27410
24.37020,26420
24.37953,26103
24.38888,29342
24.39822,29524
24.40755,28796
24.41690,27345
24.42623,28342
24.43557,27265
24.44492,27556
24.45425,26986
24.46358,27771
24.47293,27027
24.48227,27802
24.49160,27099
24.50095,28207
24.51028,28346
24.51963,28649
24.52897,28183
24.53830,29527
24.54765,27065
24.55698,27302
24.56632,28652
24.57567,28297
24.58500,25957
24.59433,27514
24.60368,29103
24.61302,30088
24.62235,29237
24.63170,28785
24.64103,29134
24.65037,28834
24.65972,30018
24.66905,29189
24.67840,29023
24.68773,30073
24.69707,29961
24.70642,30094
24.71575,31227
24.72508,28575
24.73443,30062
24.74377,29157
24.75310,30004
24.76245,30082
24.77178,26527
24.78112,28189
24.79047,29997
24.79980,27315
24.80913,28461
24.81848,28628
24.82782,28282
24.83715,29259
24.84650,29869
24.85583,29012
24.86518,30336
24.87452,30604
24.88385,29963
24.89320,29440
24.90253,30372
24.91187,29714
24.92122,30548
24.93055,29927
24.93988,30886
24.94923,30353
24.95857,30562
24.96790,30973
24.97725,29773
24.98658,29533
24.99592,28972
25.00527,30309
25.01460,28696
25.02393,27997
25.03328,29127
25.04262,28724
25.05197,31136
25.06130,29750
25.07063,28896
25.07998,29150
25.08932,29719
25.09865,26802
25.10800,28881
25.11733,29908
25.12667,29936
25.13602,29391
25.14535,31968
25.15468,28322
25.16403,32499
25.17337,31454
25.18270,30101
25.19205,30888
25.20138,31860
25.21072,29955
25.22007,29065
25.22940,29466
25.23875,30778
25.24808,30023
25.25742,31235
25.26677,29533
25.27610,30286
25.28543,30857
25.29478,29017
25.30412,31425
25.31345,31811
25.32280,40030
25.33213,52604
25.34147,60572
25.35082,56243
25.36015,51606
25.36948,49304
25.37883,43546
25.38817,42018
25.39750,38949
25.40685,38426
25.41618,37992
25.42553,37946
25.43487,37212
25.44420,35777
25.45355,36352
25.46288,36017
25.47222,38448
25.48157,37973
25.49090,38609
25.50023,37600
25.50958,37557
25.51892,36225
25.52825,36382
25.53760,36160
25.54693,34940
25.55627,35548
25.56562,36901
25.57495,35416
25.58428,35503
25.59363,35891
25.60297,35746
25.61232,34044
25.62165,34392
25.63098,35586
25.64033,36200
25.64967,37139
25.65900,34720
25.66835,34816
25.67768,33907
25.68702,34185
25.69637,33728
25.70570,35116
25.71503,34234
25.72438,34817
25.73372,36068
25.74305,33963
25.75240,36777
25.76173,38756
25.77108,38195
25.78042,36024
25.78975,34574
25.79910,37672
25.80843,35765
25.81777,36689
25.82712,38476
25.83645,38366
25.84578,37611
25.85513,38845
25.86447,38085
25.87380,37532
25.88315,36948
25.89248,37150
25.90182,37646
25.91117,35543
25.92050,36859
25.92983,37192
25.93918,36024
25.94852,38545
25.95787,36412
25.96720,37824
25.97653,39735
25.98588,34834
25.99522,37091
26.00455,35185
26.01390,37571
26.02323,36238
26.03257,35631
26.04192,36816
26.05125,36819
26.06058,36559
26.06993,37204
26.07927,37479
26.08860,37577
26.09795,37369
26.10728,37943
26.11662,41843
26.12597,40981
26.13530,42183
26.14465,39866
26.15398,40615
26.16332,40495
26.17267,39004
26.18200,39562
26.19133,39755
26.20068,39526
26.21002,37494
26.21935,38760
26.22870,37878
26.23803,40543
26.24737,37949
26.25672,39363
26.26605,40714
26.27538,38138
26.28473,37762
26.29407,39157
26.30340,38870
26.31275,40404
26.32208,38179
26.33143,38714
26.34077,41028
26.35010,40639
26.35945,40752
26.36878,39860
26.37812,40327
26.38747,38604
26.39680,40093
26.40613,39362
26.41548,39613
26.42482,40912
26.43415,42916
26.44350,43557
26.45283,43918
26.46217,43061
26.47152,42778
26.48085,43896
26.49020,43536
26.49953,45223
26.50887,45233
26.51822,43670
26.52755,42961
26.53688,44561
26.54623,43078
26.55557,42847
26.56490,43310
26.57425,44094
26.58358,42872
26.59292,43986
26.60227,41817
26.61160,44380
26.62093,41584
26.63028,43320
26.63962,43663
26.64895,40292
26.65830,42916
26.66763,43855
26.67698,45376
26.68632,43078
26.69565,45347
26.70500,41920
26.71433,43938
26.72367,44038
26.73302,45352
26.74235,46106
26.75168,46503
26.76103,44060
26.77037,45472
26.77970,47709
26.78905,47027
26.79838,46157
26.80772,43821
26.81707,45408
26.82640,44785
26.83573,46936
26.84508,45864
26.85442,45970
26.86377,47253
26.87310,45646
26.88243,47265
26.89178,46619
26.90112,46006
26.91045,45517
26.91980,48224
26.92913,47476
26.93847,46651
26.94782,46993
26.95715,48041
26.96648,46020
26.97583,46145
26.98517,47092
26.99450,49666
27.00385,50156
27.01318,50282
27.02252,48398
27.03187,49521
27.04120,49684
27.05055,50655
27.05988,50628
27.06922,52940
27.07857,51157
27.08790,47755
27.09723,50878
27.10658,52679
27.11592,51813
27.12525,53038
27.13460,52793
27.14393,52402
27.15327,53257
27.16262,53840
27.17195,53302
27.18128,52773
27.19063,54026
27.19997,53728
27.20930,52190
27.21865,53001
27.22798,55088
27.23733,55629
27.24667,55163
27.25600,55249
27.26535,55528
27.27468,55268
27.28402,54208
27.29337,56522
27.30270,56124
27.31203,55908
27.32138,53709
27.33072,54634
27.34005,55052
27.34940,55401
27.35873,56834
27.36807,54014
27.37742,55514
27.38675,56289
27.39610,57106
27.40543,54898
27.41477,56541
27.42412,57949
27.43345,57218
27.44278,55468
27.45213,53239
27.46147,56105
27.47080,58288
27.48015,56092
27.48948,56995
27.49882,59718
27.50817,58953
27.51750,56977
27.52683,58701
27.53618,59217
27.54552,57532
27.55485,58037
27.56420,58890
27.57353,60964
27.58288,57846
27.59222,58116
27.60155,59336
27.61090,59085
27.62023,60068
27.62957,60347
27.63892,61016
27.64825,62620
27.65758,62633
27.66693,66407
27.67627,63206
27.68560,61648
27.69495,63116
27.70428,67438
27.71362,69303
27.72297,68897
27.73230,68589
27.74163,68093
27.75098,69179
27.76032,66986
27.76967,69245
27.77900,68552
27.78833,66836
27.79768,68675
27.80702,66065
27.81635,68378
27.82570,67267
27.83503,68095
27.84437,68448
27.85372,66815
27.86305,69149
27.87238,69507
27.88173,68373
27.89107,68846
27.90040,69307
27.90975,69344
27.91908,69768
27.92842,66140
27.93777,70666
27.94710,70022
27.95645,68029
27.96578,70608
27.97512,71139
27.98447,70537
27.99380,70634
28.00313,68635
28.01248,68514
28.02182,68137
28.03115,67165
28.04050,71754
28.04983,71210
28.05917,70374
28.06852,73026
28.07785,70995
28.08718,71881
28.09653,73837
28.10587,72638
28.11522,73654
28.12455,74199
28.13388,75287
28.14323,73813
28.15257,75660
28.16190,73439
28.17125,74603
28.18058,75834
28.18992,74807
28.19927,74467
28.20860,74799
28.21793,76361
28.22728,76335
28.23662,74610
28.24595,74888
28.25530,75930
28.26463,78382
28.27397,76573
28.28332,75774
28.29265,77909
28.30200,77853
28.31133,78594
28.32067,78081
28.33002,78900
28.33935,78453
28.34868,78171
28.35803,77481
28.36737,76575
28.37670,77904
28.38605,79985
28.39538,79329
28.40472,80525
28.41407,80366
28.42340,80450
28.43273,80584
28.44208,82952
28.45142,83777
28.46075,82197
28.47010,81814
28.47943,82097
28.48878,84604
28.49812,85491
28.50745,82427
28.51680,86160
28.52613,84122
28.53547,81605
28.54482,84708
28.55415,84231
28.56348,84647
28.57283,85524
28.58217,88436
28.59150,86387
28.60085,85230
28.61018,87488
28.61952,88108
28.62887,84267
28.63820,88457
28.64753,90353
28.65688,97519
28.66622,103963
28.67557,113605
28.68490,114989
28.69423,107114
28.70358,99459
28.71292,100538
28.72225,98648
28.73160,95828
28.74093,96263
28.75027,93396
28.75962,94160
28.76895,96745
28.77828,93959
28.78763,96088
28.79697,95525
28.80630,94606
28.81565,98743
28.82498,95861
28.83432,98062
28.84367,100067
28.85300,100194
28.86235,95017
28.87168,97941
28.88102,97208
28.89037,96512
28.89970,98368
28.90903,103126
28.91838,100163
28.92772,103071
28.93705,99713
28.94640,101454
28.95573,103836
28.96507,98402
28.97442,101521
28.98375,104805
28.99308,103048
29.00243,103599
29.01177,103424
29.02110,103165
29.03045,104173
29.03978,104935
29.04913,106762
29.05847,106922
29.06780,106370
29.07715,103057
29.08648,105299
29.09582,104645
29.10517,104245
29.11450,104143
29.12383,102706
29.13318,104305
29.14252,104802
29.15185,106605
29.16120,109854
29.17053,106618
29.17987,107498
29.18922,111533
29.19855,111164
29.20790,108815
29.21723,109339
29.22657,109180
29.23592,110628
29.24525,106472
29.25458,110761
29.26393,107377
29.27327,112985
29.28260,109771
29.29195,113450
29.30128,107068
29.31062,110958
29.31997,109228
29.32930,111297
29.33863,112232
29.34798,112634
29.35732,113232
29.36665,113752
29.37600,109620
29.38533,114522
29.39468,117118
29.40402,113909
29.41335,115005
29.42270,112137
29.43203,118250
29.44137,118061
29.45072,123785
29.46005,121726
29.46938,123054
29.47873,122830
29.48807,125389
29.49740,120040
29.50675,117282
29.51608,115598
29.52542,118263
29.53477,116337
29.54410,116264
29.55343,114446
29.56278,116785
29.57212,116624
29.58147,117181
29.59080,114825
29.60013,117279
29.60948,117314
29.61882,116355
29.62815,115850
29.63750,118875
29.64683,118458
29.65617,118457
29.66552,119649
29.67485,118764
29.68418,119115
29.69353,120622
29.70287,118573
29.71220,120728
29.72155,125294
29.73088,123168
29.74022,119192
29.74957,118905
29.75890,120083
29.76825,119773
29.77758,120908
29.78692,120342
29.79627,117731
29.80560,122534
29.81493,122482
29.82428,119529
29.83362,118724
29.84295,121075
29.85230,122671
29.86163,121286
29.87097,122028
29.88032,125396
29.88965,122107
29.89898,123409
29.90833,123506
29.91767,126310
29.92702,127345
29.93635,125475
29.94568,122805
29.95503,119142
29.96437,121802
29.97370,118051
29.98305,125949
29.99238,118284
30.00172,123656
30.01107,124235
30.02040,123281
30.02973,126570
30.03908,125382
30.04842,125072
30.05775,122008
30.06710,125499
30.07643,121744
30.08577,124138
30.09512,126348
30.10445,122024
30.11380,124088
30.12313,126088
30.13247,128711
30.14182,127551
30.15115,126231
30.16048,126030
30.16983,126889
30.17917,123831
30.18850,124746
30.19785,124796
30.20718,129103
30.21652,126112
30.22587,125110
30.23520,123249
30.24453,125362
30.25388,128642
30.26322,124949
30.27255,126036
30.28190,125739
30.29123,126799
30.30058,128667
30.30992,125715
30.31925,127942
30.32860,127132
30.33793,128727
30.34727,126871
30.35662,127578
30.36595,133411
30.37528,129083
30.38463,135445
30.39397,136131
30.40330,134344
30.41265,132479
30.42198,133108
30.43132,132043
30.44067,136604
30.45000,128764
30.45933,130287
30.46868,131303
30.47802,132181
30.48737,128704
30.49670,128486
30.50603,128292
30.51538,129049
30.52472,129347
30.53405,129859
30.54340,127317
30.55273,129558
30.56207,129532
30.57142,127161
30.58075,133270
30.59008,132768
30.59943,133902
30.60877,132413
30.61810,139372
30.62745,140917
30.63678,139999
30.64612,141912
30.65547,146907
30.66480,148653
30.67415,149582
30.68348,144227
30.69282,144900
30.70217,149273
30.71150,145213
30.72083,141377
30.73018,145290
30.73952,140156
30.74885,137880
30.75820,139706
30.76753,136274
30.77687,139266
30.78622,139303
30.79555,137077
30.80488,139738
30.81423,137468
30.82357,138368
30.83292,137379
30.84225,138884
30.85158,137621
30.86093,139062
30.87027,139287
30.87960,142090
30.88895,143166
30.89828,141618
30.90762,144272
30.91697,144583
30.92630,145342
30.93563,145998
30.94498,146406
30.95432,145897
30.96365,141256
30.97300,145555
30.98233,143893
30.99167,142022
31.00102,143870
31.01035,142796
31.01970,143512
31.02903,146108
31.03837,145335
31.04772,141230
31.05705,141564
31.06638,143189
31.07573,139583
31.08507,138809
31.09440,141846
31.10375,139843
31.11308,142953
31.12242,139046
31.13177,141451
31.14110,137032
31.15043,136338
31.15978,138350
31.16912,136810
31.17845,139495
31.18780,141275
31.19713,139938
31.20648,143102
31.21582,144351
31.22515,142417
31.23450,142733
31.24383,143249
31.25317,144719
31.26252,142805
31.27185,142544
31.28118,139652
31.29053,140600
31.29987,145326
31.30920,139443
31.31855,142227
31.32788,140379
31.33722,136661
31.34657,138580
31.35590,139418
31.36523,141004
