D:\数据\20220412\TEST3-SDHX-2.D Tue Apr 12 19:32:03 2022
Start of data points
0.09747,18241
0.10680,18985
0.11613,19461
0.12548,19467
0.13482,19454
0.14415,19260
0.15350,19289
0.16283,19610
0.17218,20142
0.18152,19343
0.19085,18765
0.20020,18709
0.20953,18366
0.21887,18117
0.22822,18513
0.23755,18312
0.24688,17900
0.25623,16798
0.26557,18585
0.27490,17266
0.28425,18661
0.29358,18931
0.30292,18926
0.31227,18655
0.32160,17882
0.33093,18761
0.34028,17976
0.34962,19162
0.35897,18595
0.36830,18299
0.37763,17847
0.38698,17467
0.39632,18400
0.40565,17536
0.41500,15288
0.42433,14360
0.43367,11349
0.44302,8294
0.45235,5947
0.46168,4982
0.47103,3500
0.48037,4382
0.48970,4961
0.49905,4092
0.50838,4666
0.51772,4100
0.52707,4241
0.53640,4048
0.54575,4446
0.55508,4319
0.56442,4157
0.57377,4241
0.58310,4326
0.59243,3632
0.60178,3575
0.61112,4029
0.62045,4389
0.62980,3667
0.63913,4071
0.64847,3884
0.65782,4000
0.66715,3775
0.67648,3940
0.68583,3983
0.69517,3272
0.70450,3386
0.71385,3617
0.72318,4018
0.73253,3488
0.74187,3894
0.75120,3301
0.76055,3791
0.76988,3637
0.77922,3883
0.78857,3688
0.79790,3384
0.80723,3628
0.81658,3100
0.82592,3722
0.83525,3605
0.84460,3941
0.85393,4074
0.86327,3813
0.87262,3490
0.88195,3147
0.89130,3759
0.90063,2926
0.90997,3373
0.91932,3893
0.92865,3232
0.93798,3303
0.94733,3125
0.95667,3338
0.96600,4299
0.97535,3934
0.98468,4054
0.99402,3462
1.00337,3804
1.01270,3162
1.02203,3952
1.03138,3723
1.04072,3518
1.05005,3871
1.05940,3542
1.06873,3505
1.07808,3352
1.08742,3252
1.09675,3083
1.10610,3190
1.11543,3578
1.12477,3296
1.13412,3316
1.14345,3262
1.15278,3187
1.16213,3675
1.17147,3315
1.18080,3679
1.19015,3199
1.19948,3444
1.20882,2934
1.21817,3886
1.22750,3464
1.23683,3054
1.24618,3749
1.25552,3050
1.26487,3616
1.27420,3360
1.28353,4077
1.29288,3305
1.30222,3071
1.31155,3744
1.32090,2784
1.33023,3369
1.33957,3833
1.34892,2970
1.35825,3447
1.36758,3735
1.37693,3381
1.38627,4029
1.39560,3307
1.40495,3887
1.41428,3245
1.42362,3321
1.43297,3188
1.44230,3486
1.45165,3654
1.46098,2668
1.47032,3934
1.47967,2837
1.48900,3479
1.49833,3731
1.50768,3318
1.51702,3548
1.52635,3552
1.53570,3172
1.54503,2958
1.55437,3575
1.56372,3038
1.57305,2953
1.58238,4355
1.59173,8294
1.60107,14494
1.61042,17107
1.61975,21986
1.62908,30027
1.63843,37910
1.64777,41719
1.65710,39077
1.66645,34133
1.67578,28787
1.68512,25664
1.69447,20165
1.70380,14947
1.71313,13131
1.72248,14802
1.73182,15831
1.74115,18737
1.75050,19989
1.75983,20573
1.76917,18635
1.77852,21097
1.78785,22386
1.79720,21938
1.80653,20064
1.81587,21196
1.82522,22048
1.83455,21955
1.84388,22082
1.85323,22198
1.86257,22510
1.87190,25433
1.88125,40226
1.89058,64969
1.89992,95122
1.90927,115209
1.91860,133311
1.92793,145027
1.93728,165354
1.94662,178756
1.95595,172305
1.96530,152594
1.97463,127976
1.98398,106402
1.99332,86197
2.00265,74528
2.01200,68649
2.02133,69573
2.03067,76761
2.04002,71986
2.04935,63206
2.05868,53131
2.06803,48107
2.07737,43760
2.08670,42251
2.09605,38571
2.10538,38666
2.11472,42365
2.12407,60846
2.13340,134067
2.14273,239288
2.15208,256616
2.16142,207804
2.17077,145184
2.18010,126502
2.18943,227169
2.19878,318420
2.20812,229978
2.21745,129230
2.22680,101902
2.23613,197194
2.24547,815646
2.25482,3009659
2.26415,4840244
2.27348,4591677
2.28283,3296861
2.29217,2016863
2.30150,1296133
2.31085,2043486
2.32018,4348175
2.32952,4578302
2.33887,2669157
2.34820,1198115
2.35755,537721
2.36688,285135
2.37622,182848
2.38557,140812
2.39490,108272
2.40423,91324
2.41358,93729
2.42292,88171
2.43225,78380
2.44160,67424
2.45093,58938
2.46027,56851
2.46962,54120
2.47895,52595
2.48828,49166
2.49763,46787
2.50697,45309
2.51632,44605
2.52565,42293
2.53498,42077
2.54433,42963
2.55367,50009
2.56300,82191
2.57235,121824
2.58168,120765
2.59102,103624
2.60037,91023
2.60970,99885
2.61903,135702
2.62838,162340
2.63772,145370
2.64705,137605
2.65640,121755
2.66573,92841
2.67507,67437
2.68442,51454
2.69375,44484
2.70310,43415
2.71243,70932
2.72177,163363
2.73112,231304
2.74045,194788
2.74978,124482
2.75913,89461
2.76847,78835
2.77780,82694
2.78715,91335
2.79648,82493
2.80582,71821
2.81517,66129
2.82450,62392
2.83383,73513
2.84318,180990
2.85252,590867
2.86185,1111445
2.87120,1065476
2.88053,619989
2.88988,286319
2.89922,140309
2.90855,83518
2.91790,62196
2.92723,53859
2.93657,46726
2.94592,44312
2.95525,41066
2.96458,39497
2.97393,38567
2.98327,42271
2.99260,45391
3.00195,51598
3.01128,53785
3.02062,88349
3.02997,211439
3.03930,267435
3.04863,201744
3.05798,146518
3.06732,119554
3.07667,101716
3.08600,79845
3.09533,58422
3.10468,45257
3.11402,39790
3.12335,37717
3.13270,39589
3.14203,48846
3.15137,81159
3.16072,141307
3.17005,157959
3.17938,108989
3.18873,65639
3.19807,47168
3.20740,41002
3.21675,37173
3.22608,34307
3.23543,33995
3.24477,33966
3.25410,36299
3.26345,35067
3.27278,34090
3.28212,33535
3.29147,31997
3.30080,34594
3.31013,34014
3.31948,32788
3.32882,31448
3.33815,31902
3.34750,32108
3.35683,31587
3.36617,32675
3.37552,31305
3.38485,31050
3.39418,30887
3.40353,32458
3.41287,38426
3.42222,40359
3.43155,39952
3.44088,37288
3.45023,36594
3.45957,34505
3.46890,33440
3.47825,32315
3.48758,32776
3.49692,32021
3.50627,30841
3.51560,30669
3.52493,29408
3.53428,31405
3.54362,44569
3.55295,94361
3.56230,180321
3.57163,224349
3.58097,183366
3.59032,114165
3.59965,83306
3.60900,70673
3.61833,59424
3.62767,50018
3.63702,44713
3.64635,41558
3.65568,38095
3.66503,36948
3.67437,37173
3.68370,37504
3.69305,36080
3.70238,33634
3.71172,35714
3.72107,38444
3.73040,42386
3.73973,39242
3.74908,34586
3.75842,31895
3.76775,29740
3.77710,28509
3.78643,28760
3.79578,31801
3.80512,35877
3.81445,41547
3.82380,41792
3.83313,38699
3.84247,36936
3.85182,34347
3.86115,34300
3.87048,33162
3.87983,35205
3.88917,38786
3.89850,47056
3.90785,46921
3.91718,42479
3.92652,42346
3.93587,54901
3.94520,58108
3.95453,53616
3.96388,47683
3.97322,39065
3.98257,34274
3.99190,32884
4.00123,30726
4.01058,29852
4.01992,33670
4.02925,56714
4.03860,113389
4.04793,160393
4.05727,145707
4.06662,97706
4.07595,70476
4.08528,65975
4.09463,60461
4.10397,52249
4.11330,43047
4.12265,35748
4.13198,32635
4.14132,32257
4.15067,32641
4.16000,30614
4.16935,30574
4.17868,27093
4.18802,28673
4.19737,29336
4.20670,29836
4.21603,31619
4.22538,31434
4.23472,29301
4.24405,29749
4.25340,29170
4.26273,30955
4.27207,29956
4.28142,30504
4.29075,28811
4.30008,32860
4.30943,40251
4.31877,55009
4.32812,63765
4.33745,53508
4.34678,41766
4.35613,35868
4.36547,32101
4.37480,29416
4.38415,32149
4.39348,30632
4.40282,28759
4.41217,26895
4.42150,27366
4.43083,26336
4.44018,28319
4.44952,26942
4.45885,32562
4.46820,40103
4.47753,46054
4.48687,45395
4.49622,38360
4.50555,32524
4.51490,29784
4.52423,27906
4.53357,28553
4.54292,28652
4.55225,29191
4.56158,28387
4.57093,27192
4.58027,26933
4.58960,27594
4.59895,27863
4.60828,28270
4.61762,28536
4.62697,28207
4.63630,30323
4.64563,32180
4.65498,32218
4.66432,31823
4.67365,33285
4.68300,38921
4.69233,51236
4.70168,64259
4.71102,58747
4.72035,45475
4.72970,35826
4.73903,31637
4.74837,29597
4.75772,28813
4.76705,29865
4.77638,29613
4.78573,28933
4.79507,28242
4.80440,29314
4.81375,30303
4.82308,31763
4.83242,32779
4.84177,30494
4.85110,29955
4.86043,27756
4.86978,29669
4.87912,28668
4.88847,29631
4.89780,30157
4.90713,31235
4.91648,29622
4.92582,30176
4.93515,31245
4.94450,34164
4.95383,31322
4.96317,29140
4.97252,27090
4.98185,26225
4.99118,25698
5.00053,25532
5.00987,27720
5.01920,29758
5.02855,31396
5.03788,32650
5.04723,30115
5.05657,27967
5.06590,26412
5.07525,27000
5.08458,28011
5.09392,28180
5.10327,28266
5.11260,26492
5.12193,25972
5.13128,27924
5.14062,28157
5.14995,28309
5.15930,27308
5.16863,27023
5.17797,28301
5.18732,29621
5.19665,28080
5.20598,26990
5.21533,25505
5.22467,25844
5.23402,27271
5.24335,28419
5.25268,30184
5.26203,37287
5.27137,60563
5.28070,99919
5.29005,124075
5.29938,106723
5.30872,72832
5.31807,48083
5.32740,39151
5.33673,34175
5.34608,29746
5.35542,28106
5.36475,26610
5.37410,27431
5.38343,28195
5.39277,31424
5.40212,34225
5.41145,31359
5.42080,29538
5.43013,27615
5.43947,26933
5.44882,25747
5.45815,26078
5.46748,25206
5.47683,25328
5.48617,27015
5.49550,26567
5.50485,26577
5.51418,28935
5.52352,30874
5.53287,33665
5.54220,32615
5.55153,29965
5.56088,27405
5.57022,26820
5.57955,27449
5.58890,26320
5.59823,25226
5.60758,26494
5.61692,25870
5.62625,24990
5.63560,26729
5.64493,26353
5.65427,24663
5.66362,25404
5.67295,26406
5.68228,27180
5.69163,26559
5.70097,27423
5.71030,28694
5.71965,30152
5.72898,28255
5.73832,28823
5.74767,29863
5.75700,32456
5.76633,31565
5.77568,31174
5.78502,27070
5.79437,27049
5.80370,26631
5.81303,27136
5.82238,28977
5.83172,30516
5.84105,28543
5.85040,29561
5.85973,25400
5.86907,20723
5.87842,21061
5.88775,18605
5.89708,19254
5.90643,24993
5.91577,40827
5.92510,57811
5.93445,56407
5.94378,47436
5.95313,41397
5.96247,35640
5.97180,31774
5.98115,26067
5.99048,21180
5.99982,19088
6.00917,15968
6.01850,14393
6.02783,14309
6.03718,12674
6.04652,13291
6.05585,13980
6.06520,13845
6.07453,13538
6.08387,12814
6.09322,12182
6.10255,12022
6.11188,12615
6.12123,17763
6.13057,24128
6.13992,26915
6.14925,22191
6.15858,15511
6.16793,13175
6.17727,12284
6.18660,12259
6.19595,12166
6.20528,12769
6.21462,12979
6.22397,13284
6.23330,15985
6.24263,16352
6.25198,13466
6.26132,14775
6.27065,19576
6.28000,17512
6.28933,14809
6.29867,12618
6.30802,11719
6.31735,10434
6.32670,9994
6.33603,10118
6.34537,10187
6.35472,11273
6.36405,13615
6.37338,23487
6.38273,38013
6.39207,59681
6.40140,104158
6.41075,154043
6.42008,136564
6.42942,72490
6.43877,30241
6.44810,15455
6.45743,13849
6.46678,13048
6.47612,12187
6.48545,13450
6.49480,11489
6.50413,11631
6.51348,12113
6.52282,12712
6.53215,12657
6.54150,12956
6.55083,11531
6.56017,10968
6.56952,10250
6.57885,11734
6.58818,11318
6.59753,12173
6.60687,12526
6.61620,12926
6.62555,14121
6.63488,11789
6.64422,13329
6.65357,13567
6.66290,14719
6.67225,14514
6.68158,14145
6.69092,15176
6.70027,14008
6.70960,15088
6.71893,13079
6.72828,12936
6.73762,10868
6.74695,10603
6.75630,10664
6.76563,10202
6.77497,14538
6.78432,21671
6.79365,40728
6.80298,54345
6.81233,45717
6.82167,26156
6.83100,14790
6.84035,13041
6.84968,12617
6.85903,11118
6.86837,11148
6.87770,9626
6.88705,10379
6.89638,11712
6.90572,15120
6.91507,15721
6.92440,13271
6.93373,11470
6.94308,11987
6.95242,11825
6.96175,11519
6.97110,10335
6.98043,10710
6.98977,10760
6.99912,10359
7.00845,10933
7.01778,12722
7.02713,10849
7.03647,10581
7.04582,10579
7.05515,9063
7.06448,10391
7.07383,9133
7.08317,9960
7.09250,10518
7.10185,12694
7.11118,13686
7.12052,14041
7.12987,12436
7.13920,11778
7.14853,11618
7.15788,10951
7.16722,10810
7.17655,10897
7.18590,9845
7.19523,10321
7.20457,10835
7.21392,10531
7.22325,18235
7.23260,33478
7.24193,41017
7.25127,39050
7.26062,27477
7.26995,24971
7.27928,23945
7.28863,20308
7.29797,16500
7.30730,13166
7.31665,11941
7.32598,11292
7.33532,11035
7.34467,11438
7.35400,10237
7.36333,11605
7.37268,11247
7.38202,16854
7.39135,29739
7.40070,59215
7.41003,80326
7.41938,74841
7.42872,52058
7.43805,28584
7.44740,17961
7.45673,13786
7.46607,12261
7.47542,11750
7.48475,12682
7.49408,13240
7.50343,12643
7.51277,11092
7.52210,10228
7.53145,10085
7.54078,10620
7.55012,11777
7.55947,13755
7.56880,12441
7.57815,13475
7.58748,13044
7.59682,11514
7.60617,13168
7.61550,11957
7.62483,11734
7.63418,13834
7.64352,13001
7.65285,12603
7.66220,12909
7.67153,13678
7.68087,31996
7.69022,112615
7.69955,284543
7.70888,385275
7.71823,267561
7.72757,103643
7.73690,32839
7.74625,17453
7.75558,15219
7.76493,14715
7.77427,14519
7.78360,17299
7.79295,15557
7.80228,14680
7.81162,12876
7.82097,11477
7.83030,13012
7.83963,13536
7.84898,16966
7.85832,24870
7.86765,36281
7.87700,36296
7.88633,29575
7.89567,23493
7.90502,27691
7.91435,40220
7.92368,45898
7.93303,38846
7.94237,29277
7.95172,25714
7.96105,22960
7.97038,20293
7.97973,20332
7.98907,19326
7.99840,17781
8.00775,15883
8.01708,16098
8.02642,18047
8.03577,21978
8.04510,26692
8.05443,25395
8.06378,18700
8.07312,17988
8.08245,18209
8.09180,19454
8.10113,22779
8.11047,21512
8.11982,17571
8.12915,16745
8.13850,14970
8.14783,15041
8.15717,14046
8.16652,14305
8.17585,14405
8.18518,14895
8.19453,15070
8.20387,14315
8.21320,13773
8.22255,13175
8.23188,13004
8.24122,13385
8.25057,13311
8.25990,12751
8.26923,12323
8.27858,12189
8.28792,12436
8.29727,11844
8.30660,12998
8.31593,13057
8.32528,12925
8.33462,11562
8.34395,12695
8.35330,12727
8.36263,13266
8.37197,11373
8.38132,12626
8.39065,14140
8.39998,16353
8.40933,16892
8.41867,17745
8.42800,17962
8.43735,15372
8.44668,14915
8.45602,15693
8.46537,15556
8.47470,15174
8.48405,15945
8.49338,17209
8.50272,16255
8.51207,13942
8.52140,14202
8.53073,15847
8.54008,16668
8.54942,20485
8.55875,21783
8.56810,19368
8.57743,16423
8.58677,16649
8.59612,16375
8.60545,17951
8.61478,16992
8.62413,14516
8.63347,14031
8.64280,18132
8.65215,23856
8.66148,24872
8.67083,21536
8.68017,18216
8.68950,15195
8.69885,17130
8.70818,16738
8.71752,15600
8.72687,16349
8.73620,16213
8.74553,20994
8.75488,23017
8.76422,21019
8.77355,20884
8.78290,26198
8.79223,59807
8.80157,133211
8.81092,182496
8.82025,149667
8.82958,75013
8.83893,32961
8.84827,19524
8.85762,18242
8.86695,17743
8.87628,18786
8.88563,16928
8.89497,17813
8.90430,18063
8.91365,18105
8.92298,18297
8.93232,18149
8.94167,18122
8.95100,16665
8.96033,16177
8.96968,16075
8.97902,15174
8.98835,14276
8.99770,15646
9.00703,15332
9.01637,15847
9.02572,14764
9.03505,15957
9.04440,16276
9.05373,16603
9.06307,16865
9.07242,20708
9.08175,23707
9.09108,25578
9.10043,26053
9.10977,30609
9.11910,52696
9.12845,93657
9.13778,113850
9.14712,87674
9.15647,42932
9.16580,24111
9.17513,17472
9.18448,15724
9.19382,16700
9.20315,17722
9.21250,19937
9.22183,26982
9.23118,36741
9.24052,37896
9.24985,30770
9.25920,23392
9.26853,18048
9.27787,15598
9.28722,15423
9.29655,15520
9.30588,15826
9.31523,19852
9.32457,27848
9.33390,29315
9.34325,25274
9.35258,28806
9.36192,44514
9.37127,67294
9.38060,71517
9.38995,58888
9.39928,41278
9.40862,32652
9.41797,28909
9.42730,25482
9.43663,22917
9.44598,19068
9.45532,17323
9.46465,15974
9.47400,17551
9.48333,17643
9.49267,19406
9.50202,18834
9.51135,16874
9.52068,16794
9.53003,16681
9.53937,20449
9.54870,23803
9.55805,29273
9.56738,31023
9.57673,26669
9.58607,20460
9.59540,19713
9.60475,21953
9.61408,20500
9.62342,17887
9.63277,17402
9.64210,22011
9.65143,26154
9.66078,29184
9.67012,24171
9.67945,20426
9.68880,16990
9.69813,19698
9.70747,56441
9.71682,204816
9.72615,513623
9.73548,777115
9.74483,730669
9.75417,503517
9.76352,290373
9.77285,166628
9.78218,107088
9.79153,80275
9.80087,64099
9.81020,54250
9.81955,50327
9.82888,52916
9.83822,57108
9.84757,60794
9.85690,51509
9.86623,41313
9.87558,43135
9.88492,44127
9.89425,47275
9.90360,49456
9.91293,51518
9.92227,50150
9.93162,43044
9.94095,31349
9.95030,28154
9.95963,37750
9.96897,99695
9.97832,264369
9.98765,443999
9.99698,395974
10.00633,203815
10.01567,78282
10.02500,39842
10.03435,28705
10.04368,25388
10.05302,27684
10.06237,30859
10.07170,33079
10.08103,32211
10.09038,28567
10.09972,33331
10.10907,89843
10.11840,241955
10.12773,388387
10.13708,347096
10.14642,402069
10.15575,903601
10.16510,1322337
10.17443,942698
10.18377,339973
10.19312,85795
10.20245,35553
10.21178,26639
10.22113,24236
10.23047,25700
10.23980,27196
10.24915,27126
10.25848,24368
10.26782,22525
10.27717,23588
10.28650,26908
10.29585,31346
10.30518,32042
10.31452,27373
10.32387,22863
10.33320,19344
10.34253,17527
10.35188,21450
10.36122,24107
10.37055,22109
10.37990,20315
10.38923,17839
10.39857,22613
10.40792,43685
10.41725,86877
10.42658,113541
10.43593,100623
10.44527,67468
10.45460,54460
10.46395,49305
10.47328,36428
10.48263,28408
10.49197,20297
10.50130,18748
10.51065,17386
10.51998,18407
10.52932,19693
10.53867,22764
10.54800,27540
10.55733,31992
10.56668,27716
10.57602,22430
10.58535,18750
10.59470,18028
10.60403,17741
10.61337,17410
10.62272,18178
10.63205,21320
10.64138,20752
10.65073,19472
10.66007,20828
10.66942,21342
10.67875,21521
10.68808,22372
10.69743,26783
10.70677,51282
10.71610,72328
10.72545,64445
10.73478,39893
10.74412,31404
10.75347,42759
10.76280,68057
10.77213,87443
10.78148,113427
10.79082,235184
10.80015,424125
10.80950,446582
10.81883,274748
10.82817,120898
10.83752,55940
10.84685,36320
10.85620,43964
10.86553,69774
10.87487,90359
10.88422,78567
10.89355,52489
10.90288,35603
10.91223,29819
10.92157,28019
10.93090,27710
10.94025,30518
10.94958,31955
10.95892,27729
10.96827,25489
10.97760,21216
10.98693,20180
10.99628,18583
11.00562,17784
11.01497,17893
11.02430,17564
11.03363,18419
11.04298,18632
11.05232,16985
11.06165,16826
11.07100,17601
11.08033,16573
11.08967,16666
11.09902,16330
11.10835,18884
11.11768,18448
11.12703,17619
11.13637,17279
11.14570,15606
11.15505,16376
11.16438,17615
11.17372,19394
11.18307,17950
11.19240,16119
11.20175,16655
11.21108,21013
11.22042,20555
11.22977,19999
11.23910,17168
11.24843,14574
11.25778,16315
11.26712,17046
11.27645,17599
11.28580,17773
11.29513,19775
11.30447,19854
11.31382,17496
11.32315,17941
11.33248,24418
11.34183,37471
11.35117,47981
11.36050,45976
11.36985,27567
11.37918,21374
11.38853,21555
11.39787,33359
11.40720,48220
11.41655,54922
11.42588,40979
11.43522,24384
11.44457,20800
11.45390,27189
11.46323,34133
11.47258,33876
11.48192,24625
11.49125,19879
11.50060,16455
11.50993,14596
11.51927,15563
11.52862,15301
11.53795,15899
11.54728,16137
11.55663,20738
11.56597,29155
11.57532,40059
11.58465,38794
11.59398,30386
11.60333,25780
11.61267,23057
11.62200,20271
11.63135,19837
11.64068,18072
11.65002,16539
11.65937,18483
11.66870,19379
11.67803,18627
11.68738,17611
11.69672,17618
11.70605,19268
11.71540,20234
11.72473,20598
11.73408,22573
11.74342,21018
11.75275,19633
11.76210,19565
11.77143,21207
11.78077,23529
11.79012,28528
11.79945,26116
11.80878,21581
11.81813,19526
11.82747,18185
11.83680,17297
11.84615,16829
11.85548,18501
11.86482,21867
11.87417,24316
11.88350,23050
11.89283,19950
11.90218,16496
11.91152,16953
11.92087,16095
11.93020,19298
11.93953,23277
11.94888,23415
11.95822,22998
11.96755,19258
11.97690,16735
11.98623,18244
11.99557,22137
12.00492,30619
12.01425,36850
12.02358,36555
12.03293,29773
12.04227,23949
12.05160,19680
12.06095,17758
12.07028,16540
12.07962,16189
12.08897,19147
12.09830,17319
12.10765,17545
12.11698,16893
12.12632,16562
12.13567,16161
12.14500,18203
12.15433,20072
12.16368,30725
12.17302,41286
12.18235,43232
12.19170,33779
12.20103,24342
12.21037,24389
12.21972,28460
12.22905,33979
12.23838,30962
12.24773,23654
12.25707,19002
12.26640,23639
12.27575,31403
12.28508,35429
12.29443,31769
12.30377,23292
12.31310,19578
12.32245,21482
12.33178,23619
12.34112,24756
12.35047,22831
12.35980,18663
12.36913,18097
12.37848,18554
12.38782,17331
12.39715,16758
12.40650,18350
12.41583,17068
12.42517,17495
12.43452,17079
12.44385,17375
12.45318,16941
12.46253,19304
12.47187,20623
12.48122,20751
12.49055,21207
12.49988,21158
12.50923,19927
12.51857,18295
12.52790,19831
12.53725,20057
12.54658,20237
12.55592,24099
12.56527,25034
12.57460,23041
12.58393,19450
12.59328,19074
12.60262,17539
12.61195,16121
12.62130,19930
12.63063,22793
12.63997,25550
12.64932,25133
12.65865,22653
12.66800,20766
12.67733,19500
12.68667,15749
12.69602,16322
12.70535,16525
12.71468,17026
12.72403,16999
12.73337,17330
12.74270,17169
12.75205,19501
12.76138,18667
12.77072,16554
12.78007,14965
12.78940,15545
12.79873,17254
12.80808,15466
12.81742,17580
12.82677,16944
12.83610,16046
12.84543,17079
12.85478,16229
12.86412,16029
12.87345,15299
12.88280,16390
12.89213,16030
12.90147,16684
12.91082,16520
12.92015,14789
12.92948,15979
12.93883,15543
12.94817,16895
12.95750,18074
12.96685,16137
12.97618,15764
12.98552,13992
12.99487,16176
13.00420,15499
13.01355,16349
13.02288,19682
13.03222,21434
13.04157,18936
13.05090,18435
13.06023,17404
13.06958,15849
13.07892,16611
13.08825,17193
13.09760,16343
13.10693,15534
13.11627,17308
13.12562,18457
13.13495,17823
13.14428,20117
13.15363,19462
13.16297,21536
13.17230,22101
13.18165,24983
13.19098,38280
13.20033,70966
13.20967,103920
13.21900,87784
13.22835,54760
13.23768,40231
13.24702,40961
13.25637,33983
13.26570,24089
13.27503,20854
13.28438,20150
13.29372,20896
13.30305,25080
13.31240,28702
13.32173,27584
13.33107,23460
13.34042,21796
13.34975,20020
13.35908,18504
13.36843,18630
13.37777,19404
13.38712,20609
13.39645,24133
13.40578,20910
13.41513,18891
13.42447,18759
13.43380,20014
13.44315,20758
13.45248,18980
13.46182,20719
13.47117,20886
13.48050,22568
13.48983,23334
13.49918,23678
13.50852,29789
13.51785,43546
13.52720,49102
13.53653,38841
13.54588,26053
13.55522,19368
13.56455,18305
13.57390,16961
13.58323,17476
13.59257,16711
13.60192,17019
13.61125,19402
13.62058,20239
13.62993,36025
13.63927,71780
13.64860,106404
13.65795,102962
13.66728,73153
13.67662,47088
13.68597,33613
13.69530,27050
13.70463,22775
13.71398,22700
13.72332,19048
13.73267,18850
13.74200,20121
13.75133,21585
13.76068,20770
13.77002,20655
13.77935,20426
13.78870,20383
13.79803,23749
13.80737,24365
13.81672,21157
13.82605,19619
13.83538,18545
13.84473,18512
13.85407,19446
13.86340,20400
13.87275,20457
13.88208,25647
13.89142,41196
13.90077,68083
13.91010,110782
13.91945,118712
13.92878,75418
13.93812,40500
13.94747,26022
13.95680,23272
13.96613,20113
13.97548,19551
13.98482,19448
13.99415,19829
14.00350,20692
14.01283,19981
14.02217,18755
14.03152,33917
14.04085,182849
14.05018,1063429
14.05953,3061073
14.06887,4222903
14.07820,2869250
14.08755,933315
14.09688,176950
14.10623,50004
14.11557,35495
14.12490,32304
14.13425,30403
14.14358,28582
14.15292,31089
14.16227,30946
14.17160,27266
14.18093,27503
14.19028,30858
14.19962,31109
14.20895,28110
14.21830,23439
14.22763,21092
14.23697,19715
14.24632,20065
14.25565,19317
14.26498,19843
14.27433,19491
14.28367,19660
14.29302,19658
14.30235,20685
14.31168,24290
14.32103,30432
14.33037,33716
14.33970,35441
14.34905,30407
14.35838,24727
14.36772,23955
14.37707,26524
14.38640,30466
14.39573,28861
14.40508,24216
14.41442,21875
14.42375,17976
14.43310,17996
14.44243,21525
14.45178,24829
14.46112,32382
14.47045,35075
14.47980,27868
14.48913,23030
14.49847,22003
14.50782,21045
14.51715,21615
14.52648,21670
14.53583,20920
14.54517,22207
14.55450,23428
14.56385,21546
14.57318,21935
14.58252,20198
14.59187,20231
14.60120,18940
14.61053,17868
14.61988,18164
14.62922,18482
14.63857,20177
14.64790,22644
14.65723,24174
14.66658,22752
14.67592,21655
14.68525,20716
14.69460,20170
14.70393,18694
14.71327,19022
14.72262,19178
14.73195,18962
14.74128,20361
14.75063,19603
14.75997,17710
14.76930,19171
14.77865,18308
14.78798,20216
14.79732,18568
14.80667,19748
14.81600,21745
14.82535,21916
14.83468,21371
14.84402,27859
14.85337,37808
14.86270,40505
14.87203,32837
14.88138,24102
14.89072,19927
14.90005,19214
14.90940,19246
14.91873,18236
14.92807,20057
14.93742,18637
14.94675,18515
14.95608,20961
14.96543,24617
14.97477,27956
14.98410,30547
14.99345,30109
15.00278,31510
15.01213,29732
15.02147,27295
15.03080,24505
15.04015,25476
15.04948,27841
15.05882,25695
15.06817,25231
15.07750,22967
15.08683,22062
15.09618,22700
15.10552,23757
15.11485,23861
15.12420,29660
15.13353,31617
15.14287,24466
15.15222,20602
15.16155,19300
15.17090,18427
15.18023,19770
15.18957,23433
15.19892,32001
15.20825,42345
15.21758,43619
15.22693,36918
15.23627,29688
15.24560,24544
15.25495,22690
15.26428,22454
15.27362,22479
15.28297,21395
15.29230,21360
15.30163,20817
15.31098,22895
15.32032,26435
15.32965,27271
15.33900,27991
15.34833,25895
15.35768,25361
15.36702,28796
15.37635,28142
15.38570,25122
15.39503,20773
15.40437,21166
15.41372,22300
15.42305,23886
15.43238,20837
15.44173,20625
15.45107,20721
15.46040,20056
15.46975,21672
15.47908,18604
15.48842,22303
15.49777,28242
15.50710,36661
15.51643,44869
15.52578,38748
15.53512,30138
15.54447,22951
15.55380,20500
15.56313,19420
15.57248,20296
15.58182,22250
15.59115,21063
15.60050,22620
15.60983,20568
15.61917,20845
15.62852,24697
15.63785,28161
15.64718,28775
15.65653,37125
15.66587,72247
15.67520,173765
15.68455,308176
15.69388,314846
15.70322,190544
15.71257,93457
15.72190,55502
15.73125,42832
15.74058,41655
15.74992,41587
15.75927,39570
15.76860,38836
15.77793,35051
15.78728,29851
15.79662,30066
15.80595,32251
15.81530,42459
15.82463,82433
15.83397,136086
15.84332,151010
15.85265,110782
15.86198,70165
15.87133,53185
15.88067,50306
15.89000,49282
15.89935,49809
15.90868,44587
15.91803,37352
15.92737,33034
15.93670,29619
15.94605,28024
15.95538,26262
15.96472,31337
15.97407,34948
15.98340,38667
15.99273,39906
16.00208,37527
16.01142,29902
16.02075,27994
16.03010,27870
16.03943,30259
16.04877,29499
16.05812,30518
16.06745,31210
16.07678,29642
16.08613,29420
16.09547,27581
16.10482,27992
16.11415,31392
16.12348,31148
16.13283,29149
16.14217,29472
16.15150,28110
16.16085,25890
16.17018,27042
16.17952,25998
16.18887,25586
16.19820,26091
16.20753,28327
16.21688,27904
16.22622,30316
16.23555,32765
16.24490,34457
16.25423,31785
16.26358,32244
16.27292,38533
16.28225,62012
16.29160,103951
16.30093,125952
16.31027,94601
16.31962,55273
16.32895,36438
16.33828,29056
16.34763,25884
16.35697,21401
16.36630,22923
16.37565,24206
16.38498,24726
16.39432,27616
16.40367,27945
16.41300,29286
16.42233,29343
16.43168,28262
16.44102,29027
16.45037,32587
16.45970,32452
16.46903,28096
16.47838,28815
16.48772,27318
16.49705,26770
16.50640,27017
16.51573,27228
16.52507,27534
16.53442,24765
16.54375,24612
16.55308,23136
16.56243,22869
16.57177,22909
16.58110,26055
16.59045,26141
16.59978,26703
16.60912,32173
16.61847,37447
16.62780,37456
16.63715,33240
16.64648,30001
16.65582,27015
16.66517,25031
16.67450,28322
16.68383,31425
16.69318,34297
16.70252,33232
16.71185,30335
16.72120,27848
16.73053,33055
16.73987,51458
16.74922,63083
16.75855,54565
16.76788,34262
16.77723,25376
16.78657,25051
16.79590,24177
16.80525,25471
16.81458,28655
16.82393,33189
16.83327,32619
16.84260,28431
16.85195,26178
16.86128,23521
16.87062,25012
16.87997,24359
16.88930,27639
16.89863,31550
16.90798,38475
16.91732,40088
16.92665,36873
16.93600,36511
16.94533,36442
16.95467,37662
16.96402,35845
16.97335,32492
16.98270,27080
16.99203,25969
17.00137,25958
17.01072,28329
17.02005,38746
17.02938,51594
17.03873,46644
17.04807,37546
17.05740,30906
17.06675,30719
17.07608,30426
17.08542,27747
17.09477,26573
17.10410,27171
17.11343,26724
17.12278,29819
17.13212,32901
17.14145,32281
17.15080,28034
17.16013,26545
17.16948,27440
17.17882,25357
17.18815,24859
17.19750,24200
17.20683,23754
17.21617,24133
17.22552,25035
17.23485,25114
17.24418,23050
17.25353,24292
17.26287,25733
17.27220,29846
17.28155,37713
17.29088,55426
17.30022,67697
17.30957,64110
17.31890,47775
17.32823,35680
17.33758,31562
17.34692,29001
17.35627,31053
17.36560,42762
17.37493,81256
17.38428,106293
17.39362,89677
17.40295,52695
17.41230,35442
17.42163,31049
17.43097,30256
17.44032,29290
17.44965,31690
17.45898,29318
17.46833,33044
17.47767,58001
17.48700,227863
17.49635,952238
17.50568,2197885
17.51502,2300779
17.52437,1171708
17.53370,318891
17.54305,81701
17.55238,46247
17.56172,39570
17.57107,39105
17.58040,39020
17.58973,38589
17.59908,34811
17.60842,32241
17.61775,28789
17.62710,28609
17.63643,29824
17.64577,32386
17.65512,37026
17.66445,37201
17.67378,36722
17.68313,41178
17.69247,42871
17.70180,42794
17.71115,38512
17.72048,35045
17.72983,32262
17.73917,33768
17.74850,35795
17.75785,38060
17.76718,38033
17.77652,32222
17.78587,27864
17.79520,24021
17.80453,25422
17.81388,27258
17.82322,30044
17.83255,32282
17.84190,33758
17.85123,35246
17.86057,38810
17.86992,36573
17.87925,36843
17.88860,34745
17.89793,30073
17.90727,28439
17.91662,26940
17.92595,24598
17.93528,25792
17.94463,26880
17.95397,31522
17.96330,32623
17.97265,30557
17.98198,28708
17.99132,26190
18.00067,26465
18.01000,25358
18.01933,27396
18.02868,32982
18.03802,45456
18.04735,70041
18.05670,75488
18.06603,58720
18.07538,39134
18.08472,30435
18.09405,29240
18.10340,30924
18.11273,30992
18.12207,29894
18.13142,29718
18.14075,32975
18.15008,32168
18.15943,32634
18.16877,30296
18.17810,29843
18.18745,28228
18.19678,26954
18.20612,25538
18.21547,29674
18.22480,28161
18.23413,25200
18.24348,25208
18.25282,23758
18.26217,25442
18.27150,28702
18.28083,30251
18.29018,33015
18.29952,32857
18.30885,32391
18.31820,32228
18.32753,32926
18.33687,36937
18.34622,41202
18.35555,40917
18.36488,37063
18.37423,31160
18.38357,27156
18.39290,26239
18.40225,27466
18.41158,27869
18.42092,29963
18.43027,36651
18.43960,39501
18.44895,37082
18.45828,33296
18.46762,27928
18.47697,29492
18.48630,38162
18.49563,48315
18.50498,56835
18.51432,56808
18.52365,49274
18.53300,40318
18.54233,41392
18.55167,39321
18.56102,34370
18.57035,30683
18.57968,27545
18.58903,29605
18.59837,34265
18.60772,36078
18.61705,36431
18.62638,33338
18.63573,32002
18.64507,30476
18.65440,28825
18.66375,28618
18.67308,28464
18.68242,28201
18.69177,30923
18.70110,29861
18.71043,32642
18.71978,32100
18.72912,33800
18.73845,32706
18.74780,30857
18.75713,29833
18.76647,26634
18.77582,27160
18.78515,26443
18.79450,28423
18.80383,28936
18.81317,29739
18.82252,30298
18.83185,27800
18.84118,25913
18.85053,24776
18.85987,24615
18.86920,24368
18.87855,25582
18.88788,28146
18.89722,35221
18.90657,43627
18.91590,42924
18.92523,38915
18.93458,36790
18.94392,40945
18.95325,44633
18.96260,42512
18.97193,38360
18.98128,32630
18.99062,31856
18.99995,29383
19.00930,29448
19.01863,28748
19.02797,34292
19.03732,49320
19.04665,65717
19.05598,69974
19.06533,66133
19.07467,81116
19.08400,101331
19.09335,96579
19.10268,69566
19.11202,46062
19.12137,32137
19.13070,29425
19.14003,27126
19.14938,25220
19.15872,25302
19.16807,27469
19.17740,29235
19.18673,32397
19.19608,35359
19.20542,39450
19.21475,35833
19.22410,36748
19.23343,35020
19.24277,29149
19.25212,29872
19.26145,28881
19.27078,30857
19.28013,31520
19.28947,32941
19.29880,34529
19.30815,45791
19.31748,46874
19.32682,44060
19.33617,35536
19.34550,29467
19.35485,26230
19.36418,26657
19.37352,26456
19.38287,30966
19.39220,35902
19.40153,39154
19.41088,37937
19.42022,32742
19.42955,27325
19.43890,25278
19.44823,24216
19.45757,24464
19.46692,28243
19.47625,28178
19.48558,28057
19.49493,28421
19.50427,26659
19.51360,24901
19.52295,24751
19.53228,24422
19.54163,24538
19.55097,27262
19.56030,26608
19.56965,29250
19.57898,31153
19.58832,31771
19.59767,30571
19.60700,31214
19.61633,33479
19.62568,37042
19.63502,39157
19.64435,33222
19.65370,27087
19.66303,26161
19.67237,26264
19.68172,26407
19.69105,24459
19.70040,28010
19.70973,33288
19.71907,44010
19.72842,52447
19.73775,47446
19.74708,36101
19.75643,31598
19.76577,31526
19.77510,30733
19.78445,30832
19.79378,29375
19.80312,27740
19.81247,26634
19.82180,26387
19.83113,24509
19.84048,23603
19.84982,25056
19.85915,31865
19.86850,40971
19.87783,44371
19.88718,38574
19.89652,29425
19.90585,26818
19.91520,27263
19.92453,26918
19.93387,25788
19.94322,25539
19.95255,26990
19.96188,27291
19.97123,25542
19.98057,24196
19.98990,23345
19.99925,24338
20.00858,25886
20.01792,27130
20.02727,29343
20.03660,30635
20.04593,30345
20.05528,27015
20.06462,25243
20.07397,26503
20.08330,27457
20.09263,24915
20.10198,23899
20.11132,20673
20.12065,21855
20.13000,23508
20.13933,27573
20.14867,31040
20.15802,33073
20.16735,29686
20.17668,25746
20.18603,23385
20.19537,23326
20.20470,25515
20.21405,24037
20.22338,23223
20.23272,23621
20.24207,22583
20.25140,22947
20.26075,23472
20.27008,23760
20.27942,24321
20.28877,24791
20.29810,23334
20.30743,21827
20.31678,21347
20.32612,21152
20.33545,22257
20.34480,23645
20.35413,25428
20.36347,24338
20.37282,23055
20.38215,22974
20.39148,21945
20.40083,20536
20.41017,20460
20.41952,21764
20.42885,23404
20.43818,21082
20.44753,23265
20.45687,27145
20.46620,30191
20.47555,30182
20.48488,25453
20.49422,24224
20.50357,23365
20.51290,22155
20.52223,21642
20.53158,22480
20.54092,27029
20.55025,39149
20.55960,86302
20.56893,177734
20.57827,209154
20.58762,141391
20.59695,60401
20.60630,34797
20.61563,28875
20.62497,27262
20.63432,29111
20.64365,28776
20.65298,25886
20.66233,27328
20.67167,28274
20.68100,31422
20.69035,30200
20.69968,29612
20.70902,30388
20.71837,28309
20.72770,28123
20.73703,27963
20.74638,25453
20.75572,23808
20.76505,23778
20.77440,25324
20.78373,26748
20.79308,27894
20.80242,30151
20.81175,27076
20.82110,25415
20.83043,23704
20.83977,24296
20.84912,22403
20.85845,22815
20.86778,22975
20.87713,24325
20.88647,23901
20.89580,24575
20.90515,23656
20.91448,23021
20.92382,22690
20.93317,21741
20.94250,21752
20.95183,21246
20.96118,22016
20.97052,20861
20.97987,20558
20.98920,21767
20.99853,20497
21.00788,20468
21.01722,19628
21.02655,21172
21.03590,21621
21.04523,22069
21.05457,22780
21.06392,23432
21.07325,21225
21.08258,22264
21.09193,23773
21.10127,25462
21.11060,25210
21.11995,26390
21.12928,25099
21.13862,21769
21.14797,21495
21.15730,23607
21.16665,22967
21.17598,22993
21.18532,27329
21.19467,30414
21.20400,30604
21.21333,30132
21.22268,28181
21.23202,25966
21.24135,25233
21.25070,26745
21.26003,26520
21.26937,29884
21.27872,32965
21.28805,30839
21.29738,28385
21.30673,25295
21.31607,24587
21.32542,24381
21.33475,25413
21.34408,24714
21.35343,24032
21.36277,23988
21.37210,24154
21.38145,22210
21.39078,23312
21.40012,24076
21.40947,26719
21.41880,24539
21.42813,25732
21.43748,24449
21.44682,24061
21.45615,23006
21.46550,24089
21.47483,24802
21.48417,25829
21.49352,25492
21.50285,25419
21.51220,24199
21.52153,23656
21.53087,21520
21.54022,19784
21.54955,22555
21.55888,22924
21.56823,25501
21.57757,31039
21.58690,34521
21.59625,30348
21.60558,27923
21.61492,26115
21.62427,24450
21.63360,23504
21.64293,23577
21.65228,23890
21.66162,23277
21.67095,25747
21.68030,25248
21.68963,24307
21.69898,24431
21.70832,25203
21.71765,25691
21.72700,27427
21.73633,25740
21.74567,23971
21.75502,22848
21.76435,21611
21.77368,22392
21.78303,22336
21.79237,21573
21.80170,24563
21.81105,25685
21.82038,26863
21.82972,27584
21.83907,24574
21.84840,24772
21.85773,23895
21.86708,25153
21.87642,30187
21.88577,31582
21.89510,31701
21.90443,29215
21.91378,26646
21.92312,25497
21.93245,25119
21.94180,23648
21.95113,25938
21.96047,28494
21.96982,33415
21.97915,34701
21.98848,31632
21.99783,29977
22.00717,26504
22.01650,25668
22.02585,26778
22.03518,27199
22.04453,25527
22.05387,24764
22.06320,25124
22.07255,26677
22.08188,27069
22.09122,25450
22.10057,27770
22.10990,25355
22.11923,22955
22.12858,23383
22.13792,28658
22.14725,28293
22.15660,34740
22.16593,35123
22.17527,35677
22.18462,29063
22.19395,25460
22.20328,25320
22.21263,24557
22.22197,24629
22.23132,26276
22.24065,25955
22.24998,26535
22.25933,25858
22.26867,27189
22.27800,29335
22.28735,28234
22.29668,29101
22.30602,27114
22.31537,25616
22.32470,23926
22.33403,24066
22.34338,24756
22.35272,24441
22.36205,25919
22.37140,23961
22.38073,24218
22.39007,23409
22.39942,23766
22.40875,22840
22.41810,21026
22.42743,21008
22.43677,22585
22.44612,23382
22.45545,22996
22.46478,22207
22.47413,21461
22.48347,23388
22.49280,22363
22.50215,22366
22.51148,21722
22.52082,21843
22.53017,22887
22.53950,21474
22.54883,22678
22.55818,24117
22.56752,23351
22.57685,24648
22.58620,23513
22.59553,23061
22.60488,22813
22.61422,23982
22.62355,23647
22.63290,22985
22.64223,23721
22.65157,21501
22.66092,22073
22.67025,23019
22.67958,24819
22.68893,25268
22.69827,25211
22.70760,21853
22.71695,22250
22.72628,23963
22.73562,24720
22.74497,26061
22.75430,26879
22.76363,25709
22.77298,23557
22.78232,21628
22.79167,21854
22.80100,22374
22.81033,23390
22.81968,23529
22.82902,23207
22.83835,22741
22.84770,22927
22.85703,22462
22.86637,23939
22.87572,22422
22.88505,22422
22.89438,22502
22.90373,22213
22.91307,20703
22.92240,22577
22.93175,21430
22.94108,21227
22.95042,21850
22.95977,20504
22.96910,21079
22.97845,20632
22.98778,23457
22.99712,21393
23.00647,21072
23.01580,21047
23.02513,20780
23.03448,18761
23.04382,21145
23.05315,21786
23.06250,21732
23.07183,22343
23.08117,22706
23.09052,21741
23.09985,20930
23.10918,20901
23.11853,21959
23.12787,20665
23.13722,21472
23.14655,20683
23.15588,20451
23.16523,20343
23.17457,20524
23.18390,21357
23.19325,20007
23.20258,20937
23.21192,21301
23.22127,19767
23.23060,21406
23.23993,20843
23.24928,20245
23.25862,20034
23.26795,19924
23.27730,20288
23.28663,20322
23.29597,21123
23.30532,22153
23.31465,23882
23.32400,27608
23.33333,28644
23.34267,26286
23.35202,23896
23.36135,23634
23.37068,22104
23.38003,22028
23.38937,21437
23.39870,23460
23.40805,23364
23.41738,23277
23.42672,22975
23.43607,22242
23.44540,21851
23.45473,21860
23.46408,24105
23.47342,21975
23.48275,22092
23.49210,20250
23.50143,21969
23.51078,19900
23.52012,20400
23.52945,20761
23.53880,20388
23.54813,21224
23.55747,21950
23.56682,21314
23.57615,22486
23.58548,20384
23.59483,21555
23.60417,20268
23.61350,21540
23.62285,20544
23.63218,20809
23.64152,19349
23.65087,20794
23.66020,20603
23.66953,19104
23.67888,20258
23.68822,20115
23.69757,20918
23.70690,20424
23.71623,20956
23.72558,21881
23.73492,22288
23.74425,22634
23.75360,22684
23.76293,21469
23.77227,20635
23.78162,21288
23.79095,20844
23.80028,20455
23.80963,21283
23.81897,19577
23.82830,20194
23.83765,19801
23.84698,20555
23.85633,21361
23.86567,21195
23.87500,20620
23.88435,21385
23.89368,21172
23.90302,20788
23.91237,21610
23.92170,22049
23.93103,21420
23.94038,21577
23.94972,22761
23.95905,22303
23.96840,20190
23.97773,21246
23.98707,21718
23.99642,22807
24.00575,20960
24.01508,21379
24.02443,19585
24.03377,21084
24.04312,20422
24.05245,20036
24.06178,20477
24.07113,20475
24.08047,20483
24.08980,20552
24.09915,21667
24.10848,21190
24.11782,22285
24.12717,20597
24.13650,21837
24.14583,20857
24.15518,22198
24.16452,21227
24.17385,20973
24.18320,21912
24.19253,21055
24.20187,21592
24.21122,19775
24.22055,20700
24.22990,21993
24.23923,20283
24.24857,20760
24.25792,21179
24.26725,20018
24.27658,19530
24.28593,20240
24.29527,21056
24.30460,19859
24.31395,19549
24.32328,22416
24.33262,22360
24.34197,21978
24.35130,21819
24.36063,21641
24.36998,21143
24.37932,21616
24.38865,20237
24.39800,20765
24.40733,21555
24.41668,23192
24.42602,21602
24.43535,21030
24.44470,20985
24.45403,21105
24.46337,22961
24.47272,21062
24.48205,22183
24.49138,21097
24.50073,22739
24.51007,21707
24.51940,20664
24.52875,21152
24.53808,21061
24.54742,21465
24.55677,22538
24.56610,21302
24.57543,22265
24.58478,21041
24.59412,21262
24.60347,21576
24.61280,22640
24.62213,21944
24.63148,22271
24.64082,22328
24.65015,21294
24.65950,21109
24.66883,24031
24.67817,22348
24.68752,22093
24.69685,22398
24.70618,21312
24.71553,22470
24.72487,21780
24.73420,22155
24.74355,22973
24.75288,20583
24.76223,21163
24.77157,20792
24.78090,20384
24.79025,21681
24.79958,21219
24.80892,22890
24.81827,22560
24.82760,22009
24.83693,19767
24.84628,21344
24.85562,21103
24.86495,22963
24.87430,22101
24.88363,23342
24.89297,22513
24.90232,22913
24.91165,22942
24.92098,21900
24.93033,22253
24.93967,22840
24.94902,23539
24.95835,22249
24.96768,22585
24.97703,22033
24.98637,22593
24.99570,23089
25.00505,21400
25.01438,21413
25.02372,21252
25.03307,20249
25.04240,20820
25.05173,21477
25.06108,21321
25.07042,21931
25.07975,21695
25.08910,22947
25.09843,22062
25.10777,21889
25.11712,22548
25.12645,21837
25.13580,22167
25.14513,22282
25.15447,21611
25.16382,22303
25.17315,22197
25.18248,21481
25.19183,22858
25.20117,21680
25.21050,23601
25.21985,21936
25.22918,22609
25.23852,23202
25.24787,22150
25.25720,21899
25.26653,23003
25.27588,22341
25.28522,23229
25.29455,22346
25.30390,22993
25.31323,22765
25.32258,23056
25.33192,23542
25.34125,25169
25.35060,27380
25.35993,29387
25.36927,30356
25.37862,29787
25.38795,30126
25.39728,28783
25.40663,24992
25.41597,26998
25.42530,26112
25.43465,24262
25.44398,24152
25.45332,24571
25.46267,25037
25.47200,26196
25.48135,25701
25.49068,26670
25.50002,25649
25.50937,25201
25.51870,24101
25.52803,25692
25.53738,22321
25.54672,24154
25.55605,24062
25.56540,22378
25.57473,22891
25.58407,23707
25.59342,22090
25.60275,22500
25.61208,23647
25.62143,23581
25.63077,24292
25.64010,23474
25.64945,24405
25.65878,24016
25.66813,24035
25.67747,24383
25.68680,24215
25.69615,23757
25.70548,23488
25.71482,23237
25.72417,23582
25.73350,25158
25.74283,26467
25.75218,25970
25.76152,24805
25.77085,24956
25.78020,26101
25.78953,25940
25.79887,26400
25.80822,26096
25.81755,26170
25.82688,27512
25.83623,26775
25.84557,25442
25.85492,25437
25.86425,24999
25.87358,24011
25.88293,26018
25.89227,24926
25.90160,24888
25.91095,24962
25.92028,24850
25.92962,23362
25.93897,25249
25.94830,25735
25.95763,24923
25.96698,25061
25.97632,25719
25.98565,24364
25.99500,25649
26.00433,26248
26.01367,24098
26.02302,24171
26.03235,26370
26.04170,26045
26.05103,26455
26.06037,25518
26.06972,25188
26.07905,24029
26.08838,25687
26.09773,24313
26.10707,25391
26.11640,26665
26.12575,26527
26.13508,28137
26.14442,30158
26.15377,27627
26.16310,24932
26.17243,27212
26.18178,27080
26.19112,26040
26.20045,25785
26.20980,26898
26.21913,23970
26.22848,26217
26.23782,25650
26.24715,25575
26.25650,28067
26.26583,25897
26.27517,26412
26.28452,25814
26.29385,25857
26.30318,28925
26.31253,27500
26.32187,27460
26.33120,27358
26.34055,26434
26.34988,26669
26.35922,27367
26.36857,26817
26.37790,26235
26.38725,27506
26.39658,26501
26.40592,26775
26.41527,27437
26.42460,27508
26.43393,27473
26.44328,26663
26.45262,27307
26.46195,28130
26.47130,27229
26.48063,28445
26.48997,27784
26.49932,27505
26.50865,28389
26.51798,27643
26.52733,27210
26.53667,27076
26.54600,26494
26.55535,26970
26.56468,28698
26.57403,28000
26.58337,26798
26.59270,28004
26.60205,27171
26.61138,27561
26.62072,26653
26.63007,29452
26.63940,27741
26.64873,30202
26.65808,30721
26.66742,29553
26.67675,28323
26.68610,28140
26.69543,28343
26.70477,27633
26.71412,29220
26.72345,27279
26.73278,29917
26.74213,28270
26.75147,29754
26.76082,29081
26.77015,30188
26.77948,30897
26.78883,30358
26.79817,30847
26.80750,29921
26.81685,29288
26.82618,28372
26.83552,28836
26.84487,30676
26.85420,31323
26.86353,29678
26.87288,30724
26.88222,29617
26.89155,29882
26.90090,30314
26.91023,31807
26.91957,29122
26.92892,31637
26.93825,31448
26.94760,31103
26.95693,29564
26.96627,31471
26.97562,29639
26.98495,30652
26.99428,31975
27.00363,31907
27.01297,30998
27.02230,31314
27.03165,29341
27.04098,30506
27.05032,30680
27.05967,31068
27.06900,29213
27.07833,32035
27.08768,31716
27.09702,32292
27.10637,30717
27.11570,32406
27.12503,31045
27.13438,31738
27.14372,31637
27.15305,31648
27.16240,32397
27.17173,31159
27.18107,33399
27.19042,31597
27.19975,30573
27.20908,31872
27.21843,31432
27.22777,33334
27.23710,32424
27.24645,31307
27.25578,31793
27.26512,31991
27.27447,32389
27.28380,33188
27.29315,31877
27.30248,32754
27.31182,32743
27.32117,32591
27.33050,33910
27.33983,33901
27.34918,31747
27.35852,33314
27.36785,33249
27.37720,31831
27.38653,32018
27.39587,33927
27.40522,33154
27.41455,34366
27.42388,34312
27.43323,34156
27.44257,33990
27.45190,34236
27.46125,33649
27.47058,33478
27.47993,34063
27.48927,34295
27.49860,33033
27.50795,33641
27.51728,33065
27.52662,33762
27.53597,34985
27.54530,34500
27.55463,34940
27.56398,32474
27.57332,34995
27.58265,35680
27.59200,35715
27.60133,33474
27.61067,35167
27.62002,35859
27.62935,34299
27.63868,35626
27.64803,36222
27.65737,35998
27.66672,34735
27.67605,35748
27.68538,36625
27.69473,36192
27.70407,37914
27.71340,36868
27.72275,38407
27.73208,37089
27.74142,37821
27.75077,41395
27.76010,39244
27.76943,39056
27.77878,39160
27.78812,39786
27.79745,37984
27.80680,39515
27.81613,36202
27.82547,37717
27.83482,37606
27.84415,40247
27.85350,39892
27.86283,39890
27.87217,39259
27.88152,39442
27.89085,40472
27.90018,39303
27.90953,40791
27.91887,38671
27.92820,38118
27.93755,38154
27.94688,40265
27.95622,38966
27.96557,39630
27.97490,39064
27.98423,38746
27.99358,41071
28.00292,38949
28.01227,39486
28.02160,39758
28.03093,37993
28.04028,39161
28.04962,38893
28.05895,39926
28.06830,39428
28.07763,39316
28.08697,40742
28.09632,40081
28.10565,42518
28.11498,41848
28.12433,41144
28.13367,40591
28.14300,41995
28.15235,41867
28.16168,41791
28.17102,41357
28.18037,41715
28.18970,42784
28.19905,45376
28.20838,41701
28.21772,41615
28.22707,41832
28.23640,44580
28.24573,43469
28.25508,42565
28.26442,42493
28.27375,41828
28.28310,42642
28.29243,43144
28.30177,45098
28.31112,41684
28.32045,42850
28.32978,44735
28.33913,45347
28.34847,44486
28.35780,43880
28.36715,44618
28.37648,42383
28.38583,43452
28.39517,42940
28.40450,44041
28.41385,45087
28.42318,46615
28.43252,45698
28.44187,45974
28.45120,46938
28.46053,45308
28.46988,46333
28.47922,46785
28.48855,47506
28.49790,46531
28.50723,47482
28.51657,47413
28.52592,48022
28.53525,47948
28.54458,48296
28.55393,47526
28.56327,47933
28.57262,49113
28.58195,48758
28.59128,48475
28.60063,48493
28.60997,47049
28.61930,49891
28.62865,51038
28.63798,50178
28.64732,50617
28.65667,50090
28.66600,52785
28.67533,56817
28.68468,56660
28.69402,58384
28.70335,55475
28.71270,55047
28.72203,54151
28.73138,52218
28.74072,52218
28.75005,50733
28.75940,50340
28.76873,52055
28.77807,51089
28.78742,52402
28.79675,54903
28.80608,51643
28.81543,54092
28.82477,52302
28.83410,52748
28.84345,55505
28.85278,50556
28.86212,52464
28.87147,52357
28.88080,54320
28.89013,52401
28.89948,53571
28.90882,52941
28.91817,54832
28.92750,56044
28.93683,55768
28.94618,55138
28.95552,54607
28.96485,55685
28.97420,55766
28.98353,56880
28.99287,54652
29.00222,55542
29.01155,57629
29.02088,57865
29.03023,56956
29.03957,57461
29.04890,57336
29.05825,57654
29.06758,59150
29.07692,56473
29.08627,56571
29.09560,57806
29.10495,56552
29.11428,56416
29.12362,56640
29.13297,57497
29.14230,56121
29.15163,56810
29.16098,55903
29.17032,59883
29.17965,60729
29.18900,59800
29.19833,61542
29.20767,62003
29.21702,60314
29.22635,58293
29.23568,60189
29.24503,58714
29.25437,58282
29.26370,59573
29.27305,62918
29.28238,59308
29.29173,60141
29.30107,60972
29.31040,59452
29.31975,62506
29.32908,60729
29.33842,62578
29.34777,62652
29.35710,61385
29.36643,60030
29.37578,59976
29.38512,60068
29.39445,62045
29.40380,62995
29.41313,62636
29.42247,61112
29.43182,61512
29.44115,62741
29.45048,62410
29.45983,65348
29.46917,67436
29.47852,66421
29.48785,64757
29.49718,65384
29.50653,64872
29.51587,63296
29.52520,66001
29.53455,66025
29.54388,65024
29.55322,63415
29.56257,65938
29.57190,63141
29.58123,63640
29.59058,66322
29.59992,63650
29.60925,62858
29.61860,64362
29.62793,61814
29.63727,63746
29.64662,64707
29.65595,62983
29.66530,63207
29.67463,65760
29.68397,64744
29.69332,64787
29.70265,64576
29.71198,63326
29.72133,64348
29.73067,66020
29.74000,63397
29.74935,66806
29.75868,65809
29.76802,66925
29.77737,67092
29.78670,66181
29.79603,65460
29.80538,67565
29.81472,67726
29.82407,66445
29.83340,66150
29.84273,66634
29.85208,64630
29.86142,66237
29.87075,65525
29.88010,65205
29.88943,66081
29.89877,65349
29.90812,64664
29.91745,65949
29.92678,65244
29.93613,65357
29.94547,63462
29.95480,64586
29.96415,67675
29.97348,65494
29.98282,66408
29.99217,66432
30.00150,66179
30.01085,67483
30.02018,67134
30.02952,64452
30.03887,66232
30.04820,66733
30.05753,64805
30.06688,65891
30.07622,64259
30.08555,68149
30.09490,68205
30.10423,65621
30.11357,67488
30.12292,69146
30.13225,66561
30.14158,70023
30.15093,66419
30.16027,68148
30.16960,65966
30.17895,64216
30.18828,65972
30.19763,67635
30.20697,65986
30.21630,68427
30.22565,65017
30.23498,66317
30.24432,70597
30.25367,66777
30.26300,67486
30.27233,69603
30.28168,66073
30.29102,67824
30.30035,67692
30.30970,69369
30.31903,67589
30.32837,68059
30.33772,70372
30.34705,69375
30.35638,68235
30.36573,68410
30.37507,69913
30.38442,71349
30.39375,74162
30.40308,72072
30.41243,73079
30.42177,70386
30.43110,69050
30.44045,70036
30.44978,67552
30.45912,69183
30.46847,68039
30.47780,68758
30.48713,69054
30.49648,69213
30.50582,70147
30.51515,68164
30.52450,70428
30.53383,69059
30.54318,68459
30.55252,72086
30.56185,69686
30.57120,71716
30.58053,70274
30.58987,70482
30.59922,73332
30.60855,75824
30.61788,76981
30.62723,81743
30.63657,80164
30.64590,84675
30.65525,82716
30.66458,81065
30.67392,88058
30.68327,83800
30.69260,81455
30.70193,83714
30.71128,80409
30.72062,78619
30.72997,80033
30.73930,76521
30.74863,75818
30.75798,73946
30.76732,77890
30.77665,76086
30.78600,76174
30.79533,75952
30.80467,79217
30.81402,79906
30.82335,79564
30.83268,80997
30.84203,80073
30.85137,81107
30.86070,79744
30.87005,83068
30.87938,85212
30.88872,83729
30.89807,85621
30.90740,86372
30.91675,86576
30.92608,87174
30.93542,83361
30.94477,84282
30.95410,85167
30.96343,81700
30.97278,81715
30.98212,83391
30.99145,80775
31.00080,79709
31.01013,79198
31.01947,79268
31.02882,81831
31.03815,78554
31.04748,78064
31.05683,78657
31.06617,80105
31.07550,80320
31.08485,81067
31.09418,81857
31.10353,78480
31.11287,81122
31.12220,83297
31.13155,82781
31.14088,83020
31.15022,84276
31.15957,84015
31.16890,83331
31.17823,85565
31.18758,84335
31.19692,84764
31.20625,83547
31.21560,85951
31.22493,83394
31.23427,83933
31.24362,84117
31.25295,85157
31.26228,84724
31.27163,81764
31.28097,81420
31.29032,81838
31.29965,83235
31.30898,79638
31.31833,82287
31.32767,81291
31.33700,83489
31.34635,82167
31.35568,79431
31.36502,81935
