D:\数据\20220412\TEST3-ZRHX-1.D Tue Apr 12 17:11:32 2022
Start of data points
0.09768,19282
0.10703,18072
0.11637,20351
0.12572,20082
0.13505,19884
0.14438,21298
0.15373,19432
0.16307,19742
0.17240,19814
0.18175,19465
0.19108,20037
0.20042,18889
0.20977,18217
0.21910,18749
0.22843,18923
0.23778,18568
0.24712,19194
0.25645,18156
0.26580,18749
0.27513,17331
0.28448,19477
0.29382,17530
0.30315,17779
0.31250,17818
0.32183,18714
0.33117,18319
0.34052,18256
0.34985,17695
0.35918,18033
0.36853,18778
0.37787,18236
0.38720,18038
0.39655,18787
0.40588,17314
0.41522,17913
0.42457,13773
0.43390,12467
0.44323,9235
0.45258,5913
0.46192,4790
0.47127,4976
0.48060,4812
0.48993,4190
0.49928,4555
0.50862,4787
0.51795,4605
0.52730,3860
0.53663,4099
0.54597,4907
0.55532,4592
0.56465,3979
0.57398,4422
0.58333,4620
0.59267,4089
0.60200,3919
0.61135,4040
0.62068,4153
0.63002,3818
0.63937,3640
0.64870,3815
0.65805,3239
0.66738,3979
0.67672,3945
0.68607,3849
0.69540,3964
0.70473,3650
0.71408,3792
0.72342,3593
0.73275,3860
0.74210,4009
0.75143,3511
0.76077,3732
0.77012,3695
0.77945,3766
0.78878,3579
0.79813,3731
0.80747,3216
0.81680,3619
0.82615,3757
0.83548,3939
0.84483,3438
0.85417,3165
0.86350,4107
0.87285,3377
0.88218,3832
0.89152,3653
0.90087,3092
0.91020,3364
0.91953,3512
0.92888,3583
0.93822,3181
0.94755,3258
0.95690,3534
0.96623,3278
0.97557,2982
0.98492,3710
0.99425,3550
1.00358,3517
1.01293,3322
1.02227,3495
1.03162,3299
1.04095,3120
1.05028,3774
1.05963,3613
1.06897,3734
1.07830,3115
1.08765,3248
1.09698,3439
1.10632,3620
1.11567,3665
1.12500,3748
1.13433,3378
1.14368,3107
1.15302,3143
1.16235,3624
1.17170,3035
1.18103,3650
1.19038,3327
1.19972,3481
1.20905,3573
1.21840,3385
1.22773,3151
1.23707,3203
1.24642,3526
1.25575,3221
1.26508,3017
1.27443,2963
1.28377,3457
1.29310,3135
1.30245,3219
1.31178,3203
1.32112,2941
1.33047,3400
1.33980,3779
1.34913,3469
1.35848,3287
1.36782,3511
1.37717,3393
1.38650,3763
1.39583,3294
1.40518,3489
1.41452,3123
1.42385,3079
1.43320,3017
1.44253,3477
1.45187,3652
1.46122,3123
1.47055,3046
1.47988,3063
1.48923,2960
1.49857,3169
1.50790,3574
1.51725,3195
1.52658,3599
1.53592,2998
1.54527,3425
1.55460,3283
1.56395,3642
1.57328,3475
1.58262,4230
1.59197,6413
1.60130,11407
1.61063,14842
1.61998,19953
1.62932,26055
1.63865,36431
1.64800,47107
1.65733,50267
1.66667,44253
1.67602,36377
1.68535,30320
1.69468,22167
1.70403,16358
1.71337,13637
1.72270,15410
1.73205,17106
1.74138,18808
1.75073,19726
1.76007,22153
1.76940,21592
1.77875,22503
1.78808,23935
1.79742,21479
1.80677,22432
1.81610,21495
1.82543,23294
1.83478,23188
1.84412,22698
1.85345,22990
1.86280,24544
1.87213,31602
1.88147,55411
1.89082,101900
1.90015,146774
1.90950,173967
1.91883,188408
1.92817,211677
1.93752,241773
1.94685,252477
1.95618,235051
1.96553,207062
1.97487,163079
1.98420,126632
1.99355,98759
2.00288,89631
2.01222,77531
2.02157,82330
2.03090,89024
2.04023,83939
2.04958,74157
2.05892,74142
2.06825,67534
2.07760,60900
2.08693,55534
2.09628,55186
2.10562,57852
2.11495,75816
2.12430,114068
2.13363,204970
2.14297,309322
2.15232,309402
2.16165,248467
2.17098,185514
2.18033,162466
2.18967,267378
2.19900,364975
2.20835,264888
2.21768,157258
2.22702,132371
2.23637,237931
2.24570,888932
2.25503,2876562
2.26438,4442821
2.27372,4176385
2.28307,2979827
2.29240,1799518
2.30173,1245149
2.31108,2597612
2.32042,6081069
2.32975,6538835
2.33910,3847700
2.34843,1733450
2.35777,759772
2.36712,383142
2.37645,242873
2.38578,175084
2.39513,129688
2.40447,108636
2.41380,108824
2.42315,103580
2.43248,94972
2.44182,82287
2.45117,71890
2.46050,68411
2.46985,71203
2.47918,69999
2.48852,63951
2.49787,59244
2.50720,55431
2.51653,51967
2.52588,49197
2.53522,49600
2.54455,49927
2.55390,61843
2.56323,96179
2.57257,124631
2.58192,120421
2.59125,108196
2.60058,100189
2.60993,112315
2.61927,156251
2.62860,185847
2.63795,161142
2.64728,154502
2.65663,139136
2.66597,100940
2.67530,73780
2.68465,57603
2.69398,49602
2.70332,50896
2.71267,95286
2.72200,212844
2.73133,298366
2.74068,266208
2.75002,212794
2.75935,207092
2.76870,236749
2.77803,290685
2.78737,321122
2.79672,183468
2.80605,126791
2.81540,104472
2.82473,97612
2.83407,103912
2.84342,235562
2.85275,725246
2.86208,1283651
2.87143,1177912
2.88077,667799
2.89010,319524
2.89945,161024
2.90878,102875
2.91812,79936
2.92747,68323
2.93680,57876
2.94613,54987
2.95548,51336
2.96482,49962
2.97415,49125
2.98350,51756
2.99283,53517
3.00218,58169
3.01152,65388
3.02085,138390
3.03020,297670
3.03953,315122
3.04887,228247
3.05822,162771
3.06755,137481
3.07688,117426
3.08623,88968
3.09557,65804
3.10490,51900
3.11425,45846
3.12358,43856
3.13292,47098
3.14227,56447
3.15160,98454
3.16093,166896
3.17028,170716
3.17962,118793
3.18897,73476
3.19830,51187
3.20763,46483
3.21698,41626
3.22632,37975
3.23565,37807
3.24500,38071
3.25433,40387
3.26367,40068
3.27302,38573
3.28235,36940
3.29168,36143
3.30103,37440
3.31037,37212
3.31970,37273
3.32905,35822
3.33838,35968
3.34772,36050
3.35707,36058
3.36640,35266
3.37575,33565
3.38508,33457
3.39442,34611
3.40377,36631
3.41310,43302
3.42243,45769
3.43178,44444
3.44112,42701
3.45045,40098
3.45980,40052
3.46913,42309
3.47847,50797
3.48782,52665
3.49715,47157
3.50648,41438
3.51583,38664
3.52517,36724
3.53452,37300
3.54385,49741
3.55318,104446
3.56253,194701
3.57187,241929
3.58120,194158
3.59055,135583
3.59988,109316
3.60922,99618
3.61857,77184
3.62790,64090
3.63723,54781
3.64658,51113
3.65592,47329
3.66525,44933
3.67460,44728
3.68393,44717
3.69327,39713
3.70262,40514
3.71195,40282
3.72130,46083
3.73063,48803
3.73997,44781
3.74932,37084
3.75865,34288
3.76798,33318
3.77733,32555
3.78667,35325
3.79600,39971
3.80535,40372
3.81468,43222
3.82402,45680
3.83337,41484
3.84270,39316
3.85203,37583
3.86138,37061
3.87072,38451
3.88005,39590
3.88940,42007
3.89873,51713
3.90808,52758
3.91742,51868
3.92675,62063
3.93610,72330
3.94543,71172
3.95477,58478
3.96412,52224
3.97345,43061
3.98278,41064
3.99213,36146
4.00147,36206
4.01080,34370
4.02015,41746
4.02948,76084
4.03882,145778
4.04817,198937
4.05750,172750
4.06683,112046
4.07618,78327
4.08552,73059
4.09487,67060
4.10420,55726
4.11353,47442
4.12288,40534
4.13222,35322
4.14155,35083
4.15090,35230
4.16023,33829
4.16957,32986
4.17892,31551
4.18825,32289
4.19758,34254
4.20693,34516
4.21627,34300
4.22560,35413
4.23495,33452
4.24428,34153
4.25362,34976
4.26297,31632
4.27230,33157
4.28165,33950
4.29098,33129
4.30032,34166
4.30967,46225
4.31900,66026
4.32833,68998
4.33768,62507
4.34702,48409
4.35635,40871
4.36570,35381
4.37503,35636
4.38437,34173
4.39372,33077
4.40305,30479
4.41238,31802
4.42173,29979
4.43107,29047
4.44042,29798
4.44975,30904
4.45908,37648
4.46843,44949
4.47777,51227
4.48710,47007
4.49645,41880
4.50578,35316
4.51512,33319
4.52447,33183
4.53380,34545
4.54313,35231
4.55248,31018
4.56182,31618
4.57115,28583
4.58050,30139
4.58983,30237
4.59917,30508
4.60852,31433
4.61785,30329
4.62720,31981
4.63653,38098
4.64587,43704
4.65522,41137
4.66455,37762
4.67388,35950
4.68323,45169
4.69257,59772
4.70190,70613
4.71125,61428
4.72058,48499
4.72992,37989
4.73927,33235
4.74860,32165
4.75793,31437
4.76728,33456
4.77662,31921
4.78595,32894
4.79530,31359
4.80463,33687
4.81398,36608
4.82332,37121
4.83265,36117
4.84200,34784
4.85133,35410
4.86067,44839
4.87002,65395
4.87935,73722
4.88868,70144
4.89803,60899
4.90737,48794
4.91670,39755
4.92605,37386
4.93538,37584
4.94472,38933
4.95407,35281
4.96340,30886
4.97273,30726
4.98208,29631
4.99142,32260
5.00077,36049
5.01010,37184
5.01943,38075
5.02878,41275
5.03812,40676
5.04745,35027
5.05680,32934
5.06613,34084
5.07547,35029
5.08482,36853
5.09415,37350
5.10348,32527
5.11283,31045
5.12217,30990
5.13150,32880
5.14085,31874
5.15018,32757
5.15953,32581
5.16887,32886
5.17820,32628
5.18755,33258
5.19688,31631
5.20622,29106
5.21557,29198
5.22490,29238
5.23423,29762
5.24358,31123
5.25292,33135
5.26225,44120
5.27160,74390
5.28093,120554
5.29027,149026
5.29962,120493
5.30895,81498
5.31828,58390
5.32763,46777
5.33697,42689
5.34632,34674
5.35565,31111
5.36498,29729
5.37433,29142
5.38367,34732
5.39300,39070
5.40235,39545
5.41168,37332
5.42102,35383
5.43037,32556
5.43970,29795
5.44903,30442
5.45838,27312
5.46772,28044
5.47705,30803
5.48640,31911
5.49573,32256
5.50507,31784
5.51442,31389
5.52375,32593
5.53310,33932
5.54243,33521
5.55177,33128
5.56112,32421
5.57045,33175
5.57978,40006
5.58913,42527
5.59847,43263
5.60780,44871
5.61715,43641
5.62648,44669
5.63582,42036
5.64517,44317
5.65450,44843
5.66383,48752
5.67318,47413
5.68252,45828
5.69185,46753
5.70120,44481
5.71053,43577
5.71988,43627
5.72922,44862
5.73855,47362
5.74790,52255
5.75723,56505
5.76657,55391
5.77592,47606
5.78525,44986
5.79458,40718
5.80393,39563
5.81327,40627
5.82260,43774
5.83195,45616
5.84128,43149
5.85062,39659
5.85997,38452
5.86930,35848
5.87863,31635
5.88798,31449
5.89732,31926
5.90667,40371
5.91600,68483
5.92533,94825
5.93468,92460
5.94402,70562
5.95335,58719
5.96270,48425
5.97203,40254
5.98137,35092
5.99072,32957
6.00005,29163
6.00938,26706
6.01873,23323
6.02807,23833
6.03740,20763
6.04675,24245
6.05608,23632
6.06542,22449
6.07477,21553
6.08410,21518
6.09345,19955
6.10278,19247
6.11212,20484
6.12147,26780
6.13080,31909
6.14013,34405
6.14948,28397
6.15882,23318
6.16815,20487
6.17750,18420
6.18683,20328
6.19617,22774
6.20552,23759
6.21485,23159
6.22418,23430
6.23353,24681
6.24287,25927
6.25222,26057
6.26155,28245
6.27088,27303
6.28023,25302
6.28957,19346
6.29890,17811
6.30825,16646
6.31758,16258
6.32692,16068
6.33627,15009
6.34560,15821
6.35493,17113
6.36428,20148
6.37362,32065
6.38295,57707
6.39230,127495
6.40163,301576
6.41097,476850
6.42032,419630
6.42965,213062
6.43900,71952
6.44833,29684
6.45767,21196
6.46702,19672
6.47635,19107
6.48568,18495
6.49503,20164
6.50437,18776
6.51370,19897
6.52305,18473
6.53238,16900
6.54172,17194
6.55107,17284
6.56040,15830
6.56973,16831
6.57908,16924
6.58842,17699
6.59775,20061
6.60710,19001
6.61643,18544
6.62578,19298
6.63512,20908
6.64445,21474
6.65380,24483
6.66313,24799
6.67247,24945
6.68182,23147
6.69115,21157
6.70048,22275
6.70983,24533
6.71917,22938
6.72850,22093
6.73785,17577
6.74718,16399
6.75652,16280
6.76587,17999
6.77520,21499
6.78453,33136
6.79388,55596
6.80322,69610
6.81257,56241
6.82190,31891
6.83123,24446
6.84058,23360
6.84992,24377
6.85925,19923
6.86860,18396
6.87793,16246
6.88727,17291
6.89662,18704
6.90595,21902
6.91528,21658
6.92463,20088
6.93397,18796
6.94330,18361
6.95265,17950
6.96198,17372
6.97133,17263
6.98067,17585
6.99000,16418
6.99935,17458
7.00868,16887
7.01802,17855
7.02737,16388
7.03670,15453
7.04603,14692
7.05538,14319
7.06472,14350
7.07405,15359
7.08340,16861
7.09273,18000
7.10207,22358
7.11142,25672
7.12075,25385
7.13008,22590
7.13943,20587
7.14877,18202
7.15812,17086
7.16745,16633
7.17678,17458
7.18613,15317
7.19547,16773
7.20480,17426
7.21415,18426
7.22348,25128
7.23282,42426
7.24217,53173
7.25150,47700
7.26083,34593
7.27018,30901
7.27952,29742
7.28885,26122
7.29820,22195
7.30753,16786
7.31687,15021
7.32622,15570
7.33555,13816
7.34490,13734
7.35423,15029
7.36357,15210
7.37292,14769
7.38225,23468
7.39158,42438
7.40093,78726
7.41027,102264
7.41960,88310
7.42895,59268
7.43828,36187
7.44762,25139
7.45697,21112
7.46630,20022
7.47563,18730
7.48498,20894
7.49432,19927
7.50365,17857
7.51300,17149
7.52233,15730
7.53168,17184
7.54102,17523
7.55035,17375
7.55970,20601
7.56903,19570
7.57837,19205
7.58772,19326
7.59705,19635
7.60638,18086
7.61573,20316
7.62507,19057
7.63440,17757
7.64375,18295
7.65308,17582
7.66242,17300
7.67177,20134
7.68110,40976
7.69043,133364
7.69978,332633
7.70912,430905
7.71847,296448
7.72780,113492
7.73713,41486
7.74648,22922
7.75582,21695
7.76515,21340
7.77450,23020
7.78383,22419
7.79317,22552
7.80252,18692
7.81185,17988
7.82118,18227
7.83053,19728
7.83987,20170
7.84920,27033
7.85855,43459
7.86788,58472
7.87723,55862
7.88657,40031
7.89590,30831
7.90525,36126
7.91458,52788
7.92392,62121
7.93327,50181
7.94260,37684
7.95193,31895
7.96128,29026
7.97062,25935
7.97995,27812
7.98930,27084
7.99863,25006
8.00797,22117
8.01732,24994
8.02665,26335
8.03598,35364
8.04533,39334
8.05467,35313
8.06402,28718
8.07335,25512
8.08268,24974
8.09203,26861
8.10137,26886
8.11070,23762
8.12005,20067
8.12938,20058
8.13872,19906
8.14807,20004
8.15740,17744
8.16673,17908
8.17608,19659
8.18542,18629
8.19475,19492
8.20410,20539
8.21343,20632
8.22277,19940
8.23212,19665
8.24145,19754
8.25080,19351
8.26013,18475
8.26947,19156
8.27882,17987
8.28815,17983
8.29748,17070
8.30683,18119
8.31617,18884
8.32550,18390
8.33485,17142
8.34418,18736
8.35352,18997
8.36287,18569
8.37220,23509
8.38153,25190
8.39088,26945
8.40022,29407
8.40955,30483
8.41890,28041
8.42823,27441
8.43758,25630
8.44692,22154
8.45625,23344
8.46560,22778
8.47493,23969
8.48427,24195
8.49362,22828
8.50295,21494
8.51228,22236
8.52163,23067
8.53097,25127
8.54030,28760
8.54965,30827
8.55898,33782
8.56832,30641
8.57767,25954
8.58700,25859
8.59635,24762
8.60568,24345
8.61502,22690
8.62437,21986
8.63370,22735
8.64303,24464
8.65238,29377
8.66172,31292
8.67105,28607
8.68040,24195
8.68973,22960
8.69907,22747
8.70842,23347
8.71775,21916
8.72708,22511
8.73643,23814
8.74577,30324
8.75510,32985
8.76445,31832
8.77378,27362
8.78313,34989
8.79247,74754
8.80180,153662
8.81115,196724
8.82048,158105
8.82982,76288
8.83917,35220
8.84850,24485
8.85783,21225
8.86718,23351
8.87652,23387
8.88585,22498
8.89520,23642
8.90453,22072
8.91387,21875
8.92322,22551
8.93255,23214
8.94188,21940
8.95123,22042
8.96057,20932
8.96992,21520
8.97925,22278
8.98858,20801
8.99793,21087
9.00727,21300
9.01660,21640
9.02595,19592
9.03528,19953
9.04462,21546
9.05397,22075
9.06330,24645
9.07263,26145
9.08198,30251
9.09132,34294
9.10065,31319
9.11000,32785
9.11933,56816
9.12867,102575
9.13802,119184
9.14735,87283
9.15670,45825
9.16603,26809
9.17537,22098
9.18472,20262
9.19405,21753
9.20338,22302
9.21273,25996
9.22207,37642
9.23140,49118
9.24075,52515
9.25008,40445
9.25942,28399
9.26877,21856
9.27810,18722
9.28743,19013
9.29678,19001
9.30612,21132
9.31545,25647
9.32480,37200
9.33413,44303
9.34348,43366
9.35282,69989
9.36215,138068
9.37150,179476
9.38083,154572
9.39017,101545
9.39952,58283
9.40885,42935
9.41818,37429
9.42753,36241
9.43687,32161
9.44620,26839
9.45555,23205
9.46488,21102
9.47422,20237
9.48357,24327
9.49290,26582
9.50223,25020
9.51158,23249
9.52092,21374
9.53027,22097
9.53960,25039
9.54893,33084
9.55828,43980
9.56762,49737
9.57695,40073
9.58630,35414
9.59563,31972
9.60497,29984
9.61432,28733
9.62365,25953
9.63298,23868
9.64233,29590
9.65167,40174
9.66100,44326
9.67035,35843
9.67968,26164
9.68903,21971
9.69837,24094
9.70770,57948
9.71705,187956
9.72638,443249
9.73572,665788
9.74507,639328
9.75440,413088
9.76373,222192
9.77308,118642
9.78242,76549
9.79175,60216
9.80110,50217
9.81043,43505
9.81977,46577
9.82912,54697
9.83845,64799
9.84778,67814
9.85713,55748
9.86647,43248
9.87582,41622
9.88515,47600
9.89448,52044
9.90383,60480
9.91317,64822
9.92250,60982
9.93185,50298
9.94118,40441
9.95052,35430
9.95987,48227
9.96920,125114
9.97853,315034
9.98788,494904
9.99722,422840
10.00655,209508
10.01590,84029
10.02523,44544
10.03457,35045
10.04392,31902
10.05325,33924
10.06260,38980
10.07193,42371
10.08127,36831
10.09062,33727
10.09995,44307
10.10928,133825
10.11863,346068
10.12797,521752
10.13730,482844
10.14665,644840
10.15598,1490894
10.16532,2071144
10.17467,1383824
10.18400,485233
10.19333,114106
10.20268,48341
10.21202,37822
10.22135,34654
10.23070,36954
10.24003,40193
10.24938,36829
10.25872,33650
10.26805,31248
10.27740,33116
10.28673,38669
10.29607,43346
10.30542,43092
10.31475,35583
10.32408,31416
10.33343,28205
10.34277,29406
10.35210,32259
10.36145,31936
10.37078,30641
10.38012,28503
10.38947,26050
10.39880,35659
10.40815,64423
10.41748,115049
10.42682,147764
10.43617,114370
10.44550,76678
10.45483,65481
10.46418,59753
10.47352,45103
10.48285,32256
10.49220,26780
10.50153,23998
10.51087,23707
10.52022,23701
10.52955,24947
10.53888,29255
10.54823,33280
10.55757,36025
10.56690,32742
10.57625,27863
10.58558,26136
10.59493,23420
10.60427,21258
10.61360,22844
10.62295,26111
10.63228,27850
10.64162,26059
10.65097,24589
10.66030,26049
10.66963,25637
10.67898,27051
10.68832,26466
10.69765,34304
10.70700,55200
10.71633,72996
10.72567,63007
10.73502,43018
10.74435,42678
10.75368,66970
10.76303,88043
10.77237,95252
10.78172,124485
10.79105,250110
10.80038,422254
10.80973,414308
10.81907,240708
10.82840,107976
10.83775,55457
10.84708,42009
10.85642,54869
10.86577,89454
10.87510,101645
10.88443,82572
10.89378,53834
10.90312,37676
10.91245,33235
10.92180,33995
10.93113,36607
10.94047,35252
10.94982,33994
10.95915,31102
10.96850,27226
10.97783,24090
10.98717,22167
10.99652,20496
11.00585,22131
11.01518,22328
11.02453,20941
11.03387,21072
11.04320,20879
11.05255,20032
11.06188,19287
11.07122,21470
11.08057,19792
11.08990,21366
11.09923,21380
11.10858,23799
11.11792,24076
11.12725,22136
11.13660,19839
11.14593,20967
11.15528,22023
11.16462,23008
11.17395,22320
11.18330,21791
11.19263,21125
11.20197,21539
11.21132,27103
11.22065,26151
11.22998,23803
11.23933,21341
11.24867,20440
11.25800,24235
11.26735,24966
11.27668,24696
11.28602,24976
11.29537,24212
11.30470,24588
11.31405,22873
11.32338,23995
11.33272,32321
11.34207,46627
11.35140,58788
11.36073,52933
11.37008,39154
11.37942,31272
11.38875,30879
11.39810,42056
11.40743,60085
11.41677,60999
11.42612,47042
11.43545,28729
11.44478,25557
11.45413,32660
11.46347,42476
11.47280,42293
11.48215,33234
11.49148,24398
11.50083,22673
11.51017,26874
11.51950,26245
11.52885,24020
11.53818,22071
11.54752,24990
11.55687,34278
11.56620,45251
11.57553,51129
11.58488,46503
11.59422,38365
11.60355,32672
11.61290,27135
11.62223,25712
11.63157,23945
11.64092,22934
11.65025,24307
11.65958,25743
11.66893,26645
11.67827,26102
11.68762,23714
11.69695,25248
11.70628,28450
11.71563,31551
11.72497,30430
11.73430,30563
11.74365,26197
11.75298,24580
11.76232,26395
11.77167,27088
11.78100,30349
11.79033,33427
11.79968,32064
11.80902,27046
11.81835,25848
11.82770,24773
11.83703,25121
11.84637,23462
11.85572,25914
11.86505,27366
11.87440,30469
11.88373,28317
11.89307,25257
11.90242,22645
11.91175,23575
11.92108,24802
11.93043,28798
11.93977,31814
11.94910,32657
11.95845,29237
11.96778,26024
11.97712,24891
11.98647,25457
11.99580,30956
12.00513,39781
12.01448,46363
12.02382,43095
12.03317,34109
12.04250,29169
12.05183,24881
12.06118,21970
12.07052,21059
12.07985,19815
12.08920,21708
12.09853,22626
12.10787,21448
12.11722,21371
12.12655,19883
12.13588,22552
12.14523,22968
12.15457,29041
12.16390,41605
12.17325,57964
12.18258,58871
12.19192,46010
12.20127,34805
12.21060,30417
12.21995,35874
12.22928,42447
12.23862,36509
12.24797,29113
12.25730,27806
12.26663,33529
12.27598,44610
12.28532,43381
12.29465,34416
12.30400,26640
12.31333,24447
12.32267,25264
12.33202,31287
12.34135,31240
12.35068,30339
12.36003,26490
12.36937,23477
12.37870,25141
12.38805,24391
12.39738,22991
12.40673,21208
12.41607,22305
12.42540,22918
12.43475,23593
12.44408,23547
12.45342,24831
12.46277,25391
12.47210,29041
12.48143,30069
12.49078,32722
12.50012,32618
12.50945,31465
12.51880,30218
12.52813,29484
12.53747,29094
12.54682,29351
12.55615,33251
12.56548,36247
12.57483,32572
12.58417,28753
12.59352,24986
12.60285,24638
12.61218,24507
12.62153,26704
12.63087,32246
12.64020,36750
12.64955,37848
12.65888,36899
12.66822,37582
12.67757,34784
12.68690,30500
12.69623,28732
12.70558,29065
12.71492,31580
12.72425,32595
12.73360,32806
12.74293,34555
12.75227,32602
12.76162,33448
12.77095,28857
12.78030,26745
12.78963,28994
12.79897,29051
12.80832,28460
12.81765,28540
12.82698,27960
12.83633,26772
12.84567,26192
12.85500,25734
12.86435,24807
12.87368,26715
12.88302,26171
12.89237,26617
12.90170,26971
12.91103,24454
12.92038,24116
12.92972,23335
12.93905,23028
12.94840,26134
12.95773,25328
12.96708,24879
12.97642,23654
12.98575,24928
12.99510,24415
13.00443,26398
13.01377,27114
13.02312,32213
13.03245,34215
13.04178,31593
13.05113,26441
13.06047,25915
13.06980,28707
13.07915,28943
13.08848,28192
13.09782,26366
13.10717,25896
13.11650,24246
13.12585,28041
13.13518,29089
13.14452,28276
13.15387,28537
13.16320,30185
13.17253,29287
13.18188,37359
13.19122,81141
13.20055,173717
13.20990,228931
13.21923,182311
13.22857,96068
13.23792,61868
13.24725,60358
13.25658,54032
13.26593,45260
13.27527,43920
13.28460,44740
13.29395,40483
13.30328,38414
13.31263,39349
13.32197,36785
13.33130,31808
13.34065,29138
13.34998,29060
13.35932,25003
13.36867,26497
13.37800,27504
13.38733,29593
13.39668,34108
13.40602,31131
13.41535,27009
13.42470,27240
13.43403,30062
13.44337,30070
13.45272,29674
13.46205,27744
13.47138,28136
13.48073,31918
13.49007,31010
13.49942,33059
13.50875,43521
13.51808,62205
13.52743,69831
13.53677,51859
13.54610,34451
13.55545,24984
13.56478,24400
13.57412,23515
13.58347,23376
13.59280,23472
13.60213,23176
13.61148,25770
13.62082,41495
13.63015,78974
13.63950,127853
13.64883,129133
13.65817,88308
13.66752,54006
13.67685,35844
13.68620,31112
13.69553,28829
13.70487,25986
13.71422,24451
13.72355,23613
13.73288,24097
13.74223,26873
13.75157,26332
13.76090,24493
13.77025,23130
13.77958,23988
13.78892,25624
13.79827,28533
13.80760,28588
13.81693,26958
13.82628,26795
13.83562,26212
13.84497,26349
13.85430,27926
13.86363,26969
13.87298,29906
13.88232,39408
13.89165,57228
13.90100,103814
13.91033,157155
13.91967,164279
13.92902,100866
13.93835,51483
13.94768,36222
13.95703,32172
13.96637,29053
13.97570,27427
13.98505,26836
13.99438,28230
14.00372,25511
14.01307,25023
14.02240,28450
14.03175,53496
14.04108,290057
14.05042,1564328
14.05977,4264456
14.06910,5462068
14.07843,3619299
14.08778,1106271
14.09712,206411
14.10645,63239
14.11580,44773
14.12513,39377
14.13447,36984
14.14382,35831
14.15315,39256
14.16248,39974
14.17183,36132
14.18117,36970
14.19050,42260
14.19985,38364
14.20918,33980
14.21853,27010
14.22787,24102
14.23720,25495
14.24655,24076
14.25588,24586
14.26522,26297
14.27457,26710
14.28390,24914
14.29323,25053
14.30258,26036
14.31192,32692
14.32125,41273
14.33060,46903
14.33993,41714
14.34927,34271
14.35862,29295
14.36795,28624
14.37728,33259
14.38663,34205
14.39597,31613
14.40532,26671
14.41465,24721
14.42398,22688
14.43333,23244
14.44267,29968
14.45200,38150
14.46135,42410
14.47068,41119
14.48002,32921
14.48937,29787
14.49870,27516
14.50803,27387
14.51738,28873
14.52672,28357
14.53605,27252
14.54540,28274
14.55473,28231
14.56407,27864
14.57342,25266
14.58275,25010
14.59210,23594
14.60143,23332
14.61077,23579
14.62012,22507
14.62945,24810
14.63878,27187
14.64813,31286
14.65747,32121
14.66680,29212
14.67615,28342
14.68548,27320
14.69482,23629
14.70417,22346
14.71350,21249
14.72283,24181
14.73218,24673
14.74152,26435
14.75087,25281
14.76020,22953
14.76953,24107
14.77888,25697
14.78822,25294
14.79755,25939
14.80690,25655
14.81623,27124
14.82557,26643
14.83492,31628
14.84425,43758
14.85358,53017
14.86293,52017
14.87227,43418
14.88160,36189
14.89095,29963
14.90028,28445
14.90962,27847
14.91897,27280
14.92830,24791
14.93765,23506
14.94698,27378
14.95632,31053
14.96567,36712
14.97500,37838
14.98433,33901
14.99368,33086
15.00302,36897
15.01235,35391
15.02170,31909
15.03103,30460
15.04037,30744
15.04972,33207
15.05905,32504
15.06838,32162
15.07773,28900
15.08707,27573
15.09640,25247
15.10575,27193
15.11508,31232
15.12443,37066
15.13377,38220
15.14310,31680
15.15245,26443
15.16178,23113
15.17112,23055
15.18047,25492
15.18980,31248
15.19913,44911
15.20848,55885
15.21782,58259
15.22715,47376
15.23650,39193
15.24583,32671
15.25517,29879
15.26452,29760
15.27385,29550
15.28318,28422
15.29253,27142
15.30187,26473
15.31122,28514
15.32055,32833
15.32988,34947
15.33923,33840
15.34857,31153
15.35790,31566
15.36725,36155
15.37658,34842
15.38592,27581
15.39527,27166
15.40460,27650
15.41393,30346
15.42328,29635
15.43262,28908
15.44195,27621
15.45130,24281
15.46063,26439
15.46998,25701
15.47932,27308
15.48865,29008
15.49800,35347
15.50733,46680
15.51667,55258
15.52602,48882
15.53535,37636
15.54468,28817
15.55403,25694
15.56337,25154
15.57270,25470
15.58205,25002
15.59138,25486
15.60072,25566
15.61007,26859
15.61940,29275
15.62873,32262
15.63808,32871
15.64742,34502
15.65677,44635
15.66610,95619
15.67543,208194
15.68478,313552
15.69412,280149
15.70345,161188
15.71280,81386
15.72213,53164
15.73147,45001
15.74082,48031
15.75015,48121
15.75948,44080
15.76883,40508
15.77817,37503
15.78750,34779
15.79685,36574
15.80618,48215
15.81552,76638
15.82487,124001
15.83420,170788
15.84355,162724
15.85288,108218
15.86222,64504
15.87157,50970
15.88090,49977
15.89023,52857
15.89958,55957
15.90892,48965
15.91825,40981
15.92760,33996
15.93693,31400
15.94627,32121
15.95562,33113
15.96495,38301
15.97428,41388
15.98363,47498
15.99297,48142
16.00230,41016
16.01165,35022
16.02098,33752
16.03033,34530
16.03967,37332
16.04900,36168
16.05835,38133
16.06768,36235
16.07702,36130
16.08637,34674
16.09570,35234
16.10503,38483
16.11438,38154
16.12372,39172
16.13305,34663
16.14240,33813
16.15173,34406
16.16107,35649
16.17042,32736
16.17975,31541
16.18908,32649
16.19843,34843
16.20777,40967
16.21712,43962
16.22645,49610
16.23578,48940
16.24513,44965
16.25447,41282
16.26380,48062
16.27315,80650
16.28248,173868
16.29182,271276
16.30117,262146
16.31050,156886
16.31983,71484
16.32918,42046
16.33852,34708
16.34785,29664
16.35720,29774
16.36653,29123
16.37587,30378
16.38522,31038
16.39455,33165
16.40390,34491
16.41323,36561
16.42257,36047
16.43192,35982
16.44125,39325
16.45058,39874
16.45993,41631
16.46927,41396
16.47860,40305
16.48795,38616
16.49728,34996
16.50662,34609
16.51597,34920
16.52530,34944
16.53463,33406
16.54398,30226
16.55332,29916
16.56267,31571
16.57200,32891
16.58133,34846
16.59068,33043
16.60002,34136
16.60935,41473
16.61870,47698
16.62803,46584
16.63737,43653
16.64672,36255
16.65605,33369
16.66538,35180
16.67473,35286
16.68407,41013
16.69340,44570
16.70275,41560
16.71208,37525
16.72142,34944
16.73077,45229
16.74010,68413
16.74945,79637
16.75878,62264
16.76812,41941
16.77747,31719
16.78680,30265
16.79613,29995
16.80548,32796
16.81482,36551
16.82415,41145
16.83350,42963
16.84283,38903
16.85217,34795
16.86152,33019
16.87085,32308
16.88018,31853
16.88953,37454
16.89887,43110
16.90820,52129
16.91755,53286
16.92688,48089
16.93623,44791
16.94557,47841
16.95490,48426
16.96425,45529
16.97358,40281
16.98292,34973
16.99227,32793
17.00160,37595
17.01093,39128
17.02028,54185
17.02962,66933
17.03895,60483
17.04830,47343
17.05763,39589
17.06697,38552
17.07632,35685
17.08565,36894
17.09498,35764
17.10433,35852
17.11367,35819
17.12302,38946
17.13235,41407
17.14168,39604
17.15103,33191
17.16037,34236
17.16970,32190
17.17905,31277
17.18838,30198
17.19772,32039
17.20707,28590
17.21640,29208
17.22573,30052
17.23508,29225
17.24442,30166
17.25375,32725
17.26310,34637
17.27243,38020
17.28178,47226
17.29112,69038
17.30045,80481
17.30980,70638
17.31913,52313
17.32847,45242
17.33782,38031
17.34715,33719
17.35648,37819
17.36583,56866
17.37517,99405
17.38450,125509
17.39385,100002
17.40318,58936
17.41252,42902
17.42187,39734
17.43120,38927
17.44053,38382
17.44988,39692
17.45922,34796
17.46857,42995
17.47790,75976
17.48723,312005
17.49658,1218805
17.50592,2220907
17.51525,2125940
17.52460,985501
17.53393,259231
17.54327,74001
17.55262,48812
17.56195,45484
17.57128,45781
17.58063,46367
17.58997,43666
17.59930,40084
17.60865,39765
17.61798,37844
17.62732,37322
17.63667,38303
17.64600,41855
17.65535,46731
17.66468,48820
17.67402,50574
17.68337,51998
17.69270,53806
17.70203,48626
17.71138,45045
17.72072,41235
17.73005,38005
17.73940,40492
17.74873,47606
17.75807,47647
17.76742,47151
17.77675,40924
17.78608,35346
17.79543,32045
17.80477,34032
17.81410,35691
17.82345,37854
17.83278,38015
17.84213,41543
17.85147,47731
17.86080,48691
17.87015,43155
17.87948,42057
17.88882,41229
17.89817,39445
17.90750,34403
17.91683,31969
17.92618,30905
17.93552,33220
17.94485,34088
17.95420,37213
17.96353,39823
17.97287,36456
17.98222,33509
17.99155,33159
18.00088,32595
18.01023,32202
18.01957,33652
18.02892,43815
18.03825,63949
18.04758,90258
18.05693,94884
18.06627,74119
18.07560,46775
18.08495,36126
18.09428,35534
18.10362,37225
18.11297,36847
18.12230,38503
18.13163,39480
18.14098,40611
18.15032,38295
18.15965,38404
18.16900,36247
18.17833,36129
18.18768,34539
18.19702,33841
18.20635,31492
18.21570,34554
18.22503,35205
18.23437,34849
18.24372,32111
18.25305,30443
18.26238,33972
18.27173,35872
18.28107,40499
18.29040,39904
18.29975,45477
18.30908,42736
18.31842,40292
18.32777,43078
18.33710,48683
18.34643,54731
18.35578,52469
18.36512,43161
18.37447,40252
18.38380,36059
18.39313,38165
18.40248,42579
18.41182,41667
18.42115,39675
18.43050,43716
18.43983,47302
18.44917,46350
18.45852,41499
18.46785,37527
18.47718,41790
18.48653,51091
18.49587,66124
18.50520,73408
18.51455,66629
18.52388,56362
18.53322,46914
18.54257,48799
18.55190,47462
18.56125,41316
18.57058,38294
18.57992,40761
18.58927,41423
18.59860,46435
18.60793,48027
18.61728,48016
18.62662,43207
18.63595,44118
18.64530,41396
18.65463,39022
18.66397,41448
18.67332,41190
18.68265,39364
18.69198,42889
18.70133,43011
18.71067,45923
18.72000,43743
18.72935,41365
18.73868,38682
18.74803,37327
18.75737,34076
18.76670,30157
18.77605,31892
18.78538,33131
18.79472,35609
18.80407,36541
18.81340,35370
18.82273,35267
18.83208,34152
18.84142,34431
18.85075,32925
18.86010,32392
18.86943,31009
18.87877,31892
18.88812,35198
18.89745,41882
18.90680,49617
18.91613,49906
18.92547,44864
18.93482,44224
18.94415,47703
18.95348,50542
18.96283,52350
18.97217,44213
18.98150,39701
18.99085,39229
19.00018,36597
19.00952,35693
19.01887,35389
19.02820,42233
19.03753,59391
19.04688,81298
19.05622,94076
19.06555,115253
19.07490,163811
19.08423,175354
19.09358,130163
19.10292,77618
19.11225,48329
19.12160,40408
19.13093,35072
19.14027,33714
19.14962,32061
19.15895,31596
19.16828,31193
19.17763,36943
19.18697,41354
19.19630,42382
19.20565,44178
19.21498,48059
19.22432,42630
19.23367,38174
19.24300,37554
19.25233,33187
19.26168,36054
19.27102,38270
19.28037,39495
19.28970,42013
19.29903,50173
19.30838,58238
19.31772,58261
19.32705,48095
19.33640,38716
19.34573,34214
19.35507,33070
19.36442,31836
19.37375,35637
19.38308,41241
19.39243,52816
19.40177,59563
19.41110,48833
19.42045,37680
19.42978,32815
19.43912,31234
19.44847,32397
19.45780,32668
19.46715,36651
19.47648,37583
19.48582,39312
19.49517,39745
19.50450,35333
19.51383,33313
19.52318,32270
19.53252,32712
19.54185,29678
19.55120,30723
19.56053,32620
19.56987,35489
19.57922,36740
19.58855,39597
19.59788,39815
19.60723,37825
19.61657,39988
19.62590,44159
19.63525,43117
19.64458,38894
19.65393,34467
19.66327,33873
19.67260,32620
19.68195,33684
19.69128,33776
19.70062,36993
19.70997,44475
19.71930,56566
19.72863,66321
19.73798,55298
19.74732,43267
19.75665,38091
19.76600,38410
19.77533,38468
19.78467,38541
19.79402,38082
19.80335,36468
19.81268,36454
19.82203,38489
19.83137,37371
19.84072,34842
19.85005,37109
19.85938,43143
19.86873,54942
19.87807,55317
19.88740,47815
19.89675,37937
19.90608,37764
19.91542,38575
19.92477,35271
19.93410,34870
19.94343,33942
19.95278,35464
19.96212,37343
19.97145,35024
19.98080,33569
19.99013,32341
19.99948,32015
20.00882,34928
20.01815,34140
20.02750,37100
20.03683,39130
20.04617,37854
20.05552,34617
20.06485,35762
20.07418,34746
20.08353,35976
20.09287,32657
20.10220,31438
20.11155,28450
20.12088,29533
20.13022,32823
20.13957,37280
20.14890,41426
20.15823,40710
20.16758,35676
20.17692,32430
20.18627,29557
20.19560,30402
20.20493,31177
20.21428,30548
20.22362,29960
20.23295,29142
20.24230,31914
20.25163,30446
20.26097,30819
20.27032,30970
20.27965,30365
20.28898,29978
20.29833,28368
20.30767,29606
20.31700,28360
20.32635,27852
20.33568,28789
20.34502,31135
20.35437,30745
20.36370,32692
20.37305,30546
20.38238,31512
20.39172,29006
20.40107,29066
20.41040,27527
20.41973,30167
20.42908,28763
20.43842,30047
20.44775,31070
20.45710,33145
20.46643,39402
20.47577,36133
20.48512,32913
20.49445,28905
20.50378,28908
20.51313,31027
20.52247,29497
20.53180,29739
20.54115,32229
20.55048,48768
20.55983,99363
20.56917,180200
20.57850,191927
20.58785,119056
20.59718,60798
20.60652,40534
20.61587,35783
20.62520,34485
20.63453,33810
20.64388,35593
20.65322,36335
20.66255,33565
20.67190,35864
20.68123,32998
20.69057,35012
20.69992,34648
20.70925,36899
20.71860,34581
20.72793,34971
20.73727,34578
20.74662,30887
20.75595,30932
20.76528,28467
20.77463,32255
20.78397,34169
20.79330,35581
20.80265,35962
20.81198,32366
20.82132,30468
20.83067,30681
20.84000,29325
20.84933,28498
20.85868,28937
20.86802,30385
20.87735,31099
20.88670,31256
20.89603,31105
20.90538,30705
20.91472,30670
20.92405,30151
20.93340,28221
20.94273,27291
20.95207,27961
20.96142,25367
20.97075,29478
20.98008,28221
20.98943,28336
20.99877,28634
21.00810,28067
21.01745,29069
21.02678,29363
21.03612,29744
21.04547,31199
21.05480,28442
21.06413,30304
21.07348,28142
21.08282,27070
21.09217,32492
21.10150,32382
21.11083,34186
21.12018,32939
21.12952,30187
21.13885,28655
21.14820,28159
21.15753,29352
21.16687,34441
21.17622,37238
21.18555,38117
21.19488,36004
21.20423,31334
21.21357,32816
21.22290,31271
21.23225,28975
21.24158,30886
21.25092,32886
21.26027,32148
21.26960,36486
21.27895,38993
21.28828,37785
21.29762,35348
21.30697,33839
21.31630,31311
21.32563,32171
21.33498,32993
21.34432,30575
21.35365,30940
21.36300,30043
21.37233,28931
21.38167,28949
21.39102,30460
21.40035,31202
21.40968,32163
21.41903,32611
21.42837,32035
21.43770,31595
21.44705,29485
21.45638,29122
21.46573,29554
21.47507,30916
21.48440,31136
21.49375,29170
21.50308,29084
21.51242,29531
21.52177,29476
21.53110,28694
21.54043,28599
21.54978,35442
21.55912,49112
21.56845,55506
21.57780,52877
21.58713,43591
21.59647,37007
21.60582,32266
21.61515,31599
21.62450,32400
21.63383,29539
21.64317,31274
21.65252,30402
21.66185,30658
21.67118,34052
21.68053,34257
21.68987,34112
21.69920,33794
21.70855,33570
21.71788,34072
21.72722,32770
21.73657,31878
21.74590,31065
21.75523,27761
21.76458,29045
21.77392,29115
21.78325,29010
21.79260,30352
21.80193,33654
21.81128,33469
21.82062,35355
21.82995,34382
21.83930,32243
21.84863,30562
21.85797,30088
21.86732,33791
21.87665,35108
21.88598,39373
21.89533,39388
21.90467,37705
21.91400,33932
21.92335,30587
21.93268,32842
21.94202,31423
21.95137,33196
21.96070,37951
21.97003,40678
21.97938,43482
21.98872,44671
21.99807,38511
22.00740,33950
22.01673,33524
22.02608,34071
22.03542,34035
22.04475,34941
22.05410,31477
22.06343,32028
22.07277,36793
22.08212,33852
22.09145,32135
22.10078,31706
22.11013,31546
22.11947,30385
22.12880,29505
22.13815,31394
22.14748,37044
22.15682,39824
22.16617,44665
22.17550,39384
22.18485,36247
22.19418,32511
22.20352,31058
22.21287,31238
22.22220,33139
22.23153,34789
22.24088,35695
22.25022,34197
22.25955,35467
22.26890,36626
22.27823,40241
22.28757,41430
22.29692,39713
22.30625,35479
22.31558,32216
22.32493,31306
22.33427,31236
22.34362,31760
22.35295,34942
22.36228,34523
22.37163,35262
22.38097,33000
22.39030,28954
22.39965,29808
22.40898,28794
22.41832,30429
22.42767,31840
22.43700,32494
22.44633,32668
22.45568,33634
22.46502,33714
22.47435,32150
22.48370,30553
22.49303,31227
22.50237,31568
22.51172,32470
22.52105,30215
22.53040,29816
22.53973,29339
22.54907,29245
22.55842,30681
22.56775,30930
22.57708,33202
22.58643,32234
22.59577,35005
22.60510,31376
22.61445,34870
22.62378,31747
22.63312,32408
22.64247,30811
22.65180,28229
22.66113,27279
22.67048,31135
22.67982,33372
22.68915,33199
22.69850,32840
22.70783,31022
22.71718,31318
22.72652,31543
22.73585,35349
22.74520,40062
22.75453,38587
22.76387,37483
22.77322,33914
22.78255,33484
22.79188,31999
22.80123,32411
22.81057,30550
22.81990,33395
22.82925,33210
22.83858,32771
22.84792,35814
22.85727,34705
22.86660,34937
22.87593,36436
22.88528,35382
22.89462,35213
22.90397,31801
22.91330,32959
22.92263,32675
22.93198,32620
22.94132,31736
22.95065,33118
22.96000,32078
22.96933,30209
22.97867,28823
22.98802,31651
22.99735,30607
23.00668,30472
23.01603,31123
23.02537,29748
23.03470,30233
23.04405,30614
23.05338,31768
23.06272,30095
23.07207,30383
23.08140,30713
23.09075,29113
23.10008,27818
23.10942,30838
23.11877,28278
23.12810,29396
23.13743,29254
23.14678,28721
23.15612,28921
23.16545,28202
23.17480,30809
23.18413,28063
23.19347,29195
23.20282,29447
23.21215,29197
23.22148,28030
23.23083,29293
23.24017,33547
23.24950,36418
23.25885,39312
23.26818,37936
23.27753,33390
23.28687,31305
23.29620,30716
23.30555,32264
23.31488,33838
23.32422,37313
23.33357,41364
23.34290,35840
23.35223,29916
23.36158,31683
23.37092,30951
23.38025,31468
23.38960,30714
23.39893,31749
23.40827,30306
23.41762,29009
23.42695,30363
23.43630,28368
23.44563,29378
23.45497,30523
23.46432,30191
23.47365,31606
23.48298,31146
23.49233,28993
23.50167,27901
23.51100,28788
23.52035,27974
23.52968,29767
23.53902,29157
23.54837,27862
23.55770,27330
23.56703,28766
23.57638,28732
23.58572,30027
23.59505,27612
23.60440,26749
23.61373,28676
23.62308,27381
23.63242,27786
23.64175,28743
23.65110,29919
23.66043,30429
23.66977,31095
23.67912,29467
23.68845,31265
23.69778,29740
23.70713,31778
23.71647,35516
23.72580,34754
23.73515,34733
23.74448,31508
23.75382,30009
23.76317,30588
23.77250,29864
23.78183,29377
23.79118,29267
23.80052,28665
23.80987,28485
23.81920,29574
23.82853,28977
23.83788,27991
23.84722,28672
23.85655,27905
23.86590,27076
23.87523,28540
23.88457,28098
23.89392,26571
23.90325,28340
23.91258,27210
23.92193,26932
23.93127,27969
23.94060,28699
23.94995,28734
23.95928,28671
23.96862,30328
23.97797,31176
23.98730,31551
23.99665,32023
24.00598,28991
24.01532,30549
24.02467,28027
24.03400,26942
24.04333,27564
24.05268,28933
24.06202,30039
24.07135,28966
24.08070,30723
24.09003,29879
24.09937,30575
24.10872,30287
24.11805,28119
24.12738,28264
24.13673,28834
24.14607,28735
24.15542,27051
24.16475,28703
24.17408,28808
24.18343,28362
24.19277,28737
24.20210,26873
24.21145,28209
24.22078,29091
24.23012,29257
24.23947,26882
24.24880,27170
24.25813,27819
24.26748,28394
24.27682,29404
24.28615,28790
24.29550,28488
24.30483,32036
24.31417,31885
24.32352,30565
24.33285,31075
24.34220,30138
24.35153,27369
24.36087,27937
24.37022,29426
24.37955,29298
24.38888,29310
24.39823,30138
24.40757,30052
24.41690,30889
24.42625,30578
24.43558,30866
24.44492,29683
24.45427,29738
24.46360,30263
24.47293,29053
24.48228,29206
24.49162,29137
24.50095,29116
24.51030,28933
24.51963,28478
24.52898,28206
24.53832,29355
24.54765,30647
24.55700,29044
24.56633,28786
24.57567,27716
24.58502,28568
24.59435,28265
24.60368,30339
24.61303,31022
24.62237,29196
24.63170,27802
24.64105,29143
24.65038,29997
24.65972,30331
24.66907,30093
24.67840,29457
24.68773,29233
24.69708,29501
24.70642,28893
24.71577,26531
24.72510,29293
24.73443,28320
24.74378,28221
24.75312,28278
24.76245,29614
24.77180,28042
24.78113,27587
24.79047,29346
24.79982,28241
24.80915,28698
24.81848,29204
24.82783,28040
24.83717,27990
24.84650,27990
24.85585,30536
24.86518,28594
24.87452,31067
24.88387,31560
24.89320,32004
24.90255,29304
24.91188,29642
24.92122,29640
24.93057,30580
24.93990,30898
24.94923,30812
24.95858,30472
24.96792,30041
24.97725,29838
24.98660,27002
24.99593,42431
25.00527,30292
25.01462,30057
25.02395,27880
25.03328,28543
25.04263,29291
25.05197,29329
25.06132,29667
25.07065,30552
25.07998,30879
25.08933,32585
25.09867,33530
25.10800,31944
25.11735,31798
25.12668,31143
25.13602,30446
25.14537,31006
25.15470,31052
25.16403,30254
25.17338,28953
25.18272,30298
25.19205,29477
25.20140,30022
25.21073,30967
25.22007,32284
25.22942,30255
25.23875,32165
25.24810,37476
25.25743,42244
25.26677,45549
25.27612,46611
25.28545,43252
25.29478,40598
25.30413,54775
25.31347,94116
25.32280,157807
25.33215,208888
25.34148,170281
25.35082,106768
25.36017,68898
25.36950,58711
25.37883,51212
25.38818,47823
25.39752,47229
25.40685,43764
25.41620,43057
25.42553,41933
25.43488,41334
25.44422,41808
25.45355,40585
25.46290,41018
25.47223,44492
25.48157,43145
25.49092,43356
25.50025,41885
25.50958,41338
25.51893,38712
25.52827,38503
25.53760,38108
25.54695,37733
25.55628,38326
25.56562,37466
25.57497,38504
25.58430,35423
25.59363,36493
25.60298,37698
25.61232,34915
25.62167,37541
25.63100,37827
25.64033,36964
25.64968,39830
25.65902,38887
25.66835,39479
25.67770,36250
25.68703,34175
25.69637,35453
25.70572,36134
25.71505,38378
25.72438,35036
25.73373,39579
25.74307,35106
25.75240,37626
25.76175,35941
25.77108,36750
25.78043,36005
25.78977,34971
25.79910,34684
25.80845,35601
25.81778,35227
25.82712,36851
25.83647,36193
25.84580,36525
25.85513,35468
25.86448,35866
25.87382,33983
25.88315,36412
25.89250,35032
25.90183,36664
25.91117,35273
25.92052,34858
25.92985,36705
25.93918,37575
25.94853,37172
25.95787,37303
25.96722,34896
25.97655,34127
25.98588,35210
25.99523,35088
26.00457,33756
26.01390,34241
26.02325,34996
26.03258,32634
26.04192,36660
26.05127,33336
26.06060,35277
26.06993,35853
26.07928,34610
26.08862,34724
26.09795,34026
26.10730,36856
26.11663,36446
26.12597,38946
26.13532,39244
26.14465,37680
26.15400,36353
26.16333,38125
26.17267,34925
26.18202,37596
26.19135,35235
26.20068,36797
26.21003,34784
26.21937,34242
26.22870,36882
26.23805,34820
26.24738,35088
26.25672,36674
26.26607,38314
26.27540,36845
26.28473,37141
26.29408,35228
26.30342,37275
26.31275,37615
26.32210,35833
26.33143,35090
26.34078,36942
26.35012,36268
26.35945,35318
26.36880,35378
26.37813,34469
26.38747,34834
26.39682,36513
26.40615,36863
26.41548,35625
26.42483,38807
26.43417,38011
26.44350,39834
26.45285,38976
26.46218,38820
26.47152,38641
26.48087,38455
26.49020,37176
26.49953,38218
26.50888,36701
26.51822,37810
26.52757,39442
26.53690,40342
26.54623,41310
26.55558,38348
26.56492,39571
26.57425,37957
26.58360,37362
26.59293,38276
26.60227,39020
26.61162,39728
26.62095,38786
26.63028,40966
26.63963,40743
26.64897,37133
26.65830,38821
26.66765,36571
26.67698,38686
26.68633,39339
26.69567,37147
26.70500,38858
26.71435,37717
26.72368,37019
26.73302,38465
26.74237,38690
26.75170,38151
26.76103,36542
26.77038,38884
26.77972,40111
26.78905,40297
26.79840,38357
26.80773,38596
26.81707,39515
26.82642,39733
26.83575,39673
26.84508,41731
26.85443,43096
26.86377,39819
26.87312,39167
26.88245,40298
26.89178,39205
26.90113,38390
26.91047,39472
26.91980,39856
26.92915,39203
26.93848,42925
26.94782,40506
26.95717,40132
26.96650,40325
26.97583,39720
26.98518,40768
26.99452,42069
27.00385,40196
27.01320,41333
27.02253,39763
27.03187,41969
27.04122,42011
27.05055,40073
27.05990,39037
27.06923,40375
27.07857,40349
27.08792,42498
27.09725,41909
27.10658,39786
27.11593,40266
27.12527,40283
27.13460,40939
27.14395,43436
27.15328,40738
27.16262,42446
27.17197,44029
27.18130,42375
27.19063,40871
27.19998,41772
27.20932,43262
27.21865,42244
27.22800,43526
27.23733,44242
27.24668,46180
27.25602,46813
27.26535,43994
27.27470,44315
27.28403,43421
27.29337,41811
27.30272,44324
27.31205,44171
27.32138,41851
27.33073,41325
27.34007,40931
27.34940,41804
27.35875,44424
27.36808,42125
27.37742,43383
27.38677,42832
27.39610,44998
27.40545,47328
27.41478,49618
27.42412,53086
27.43347,52297
27.44280,49168
27.45213,47598
27.46148,46469
27.47082,45243
27.48015,47153
27.48950,46683
27.49883,47183
27.50817,47748
27.51752,47244
27.52685,47935
27.53618,47324
27.54553,43450
27.55487,45922
27.56420,44943
27.57355,46282
27.58288,46605
27.59223,44778
27.60157,47299
27.61090,46004
27.62025,45148
27.62958,45285
27.63892,48060
27.64827,52559
27.65760,72320
27.66693,115465
27.67628,151815
27.68562,138540
27.69495,102496
27.70430,80088
27.71363,68999
27.72297,61500
27.73232,59617
27.74165,58431
27.75098,57523
27.76033,58624
27.76967,60893
27.77902,56148
27.78835,55849
27.79768,56117
27.80703,56128
27.81637,52652
27.82570,56574
27.83505,54889
27.84438,55773
27.85372,56129
27.86307,53710
27.87240,51922
27.88173,54884
27.89108,55872
27.90042,55776
27.90975,55102
27.91910,54401
27.92843,54961
27.93777,53215
27.94712,55481
27.95645,57645
27.96580,56125
27.97513,57568
27.98447,59587
27.99382,58745
28.00315,58590
28.01248,55237
28.02183,56684
28.03117,58516
28.04050,57098
28.04985,56132
28.05918,58948
28.06852,57964
28.07787,57351
28.08720,55272
28.09653,57547
28.10588,57497
28.11522,60466
28.12455,57905
28.13390,56500
28.14323,57939
28.15258,58437
28.16192,58230
28.17125,57972
28.18060,58546
28.18993,57836
28.19927,57055
28.20862,55617
28.21795,57513
28.22728,58758
28.23663,58849
28.24597,59695
28.25530,58371
28.26465,57870
28.27398,59148
28.28332,58360
28.29267,59822
28.30200,59857
28.31133,61116
28.32068,60602
28.33002,59959
28.33937,59033
28.34870,58288
28.35803,59380
28.36738,59123
28.37672,59732
28.38605,59795
28.39540,60796
28.40473,60588
28.41407,58802
28.42342,58787
28.43275,60811
28.44208,62544
28.45143,61015
28.46077,63152
28.47010,62644
28.47945,64458
28.48878,62348
28.49813,61383
28.50747,61555
28.51680,58200
28.52615,62833
28.53548,65925
28.54482,60605
28.55417,62724
28.56350,62166
28.57283,62660
28.58218,61525
28.59152,64224
28.60085,66062
28.61020,66104
28.61953,64020
28.62887,64001
28.63822,66635
28.64755,68081
28.65688,78454
28.66623,86653
28.67557,93127
28.68492,84770
28.69425,75741
28.70358,72713
28.71293,68317
28.72227,70466
28.73160,67790
28.74095,69957
28.75028,70782
28.75962,70058
28.76897,69060
28.77830,69705
28.78763,68031
28.79698,70964
28.80632,69085
28.81565,68925
28.82500,68826
28.83433,68855
28.84367,70990
28.85302,69761
28.86235,69035
28.87170,67218
28.88103,69640
28.89037,71847
28.89972,73800
28.90905,73108
28.91838,72764
28.92773,70928
28.93707,71325
28.94640,71531
28.95575,71881
28.96508,71832
28.97442,72763
28.98377,71740
28.99310,71324
29.00243,72932
29.01178,73996
29.02112,74366
29.03045,77831
29.03980,78165
29.04913,76538
29.05848,78419
29.06782,75850
29.07715,73760
29.08650,75046
29.09583,73983
29.10517,75605
29.11452,76176
29.12385,77993
29.13318,76654
29.14253,80270
29.15187,76898
29.16120,79979
29.17055,81026
29.17988,80477
29.18922,82114
29.19857,82653
29.20790,81691
29.21725,79169
29.22658,81825
29.23592,83304
29.24527,78431
29.25460,81337
29.26393,79960
29.27328,82307
29.28262,80790
29.29195,79914
29.30130,83730
29.31063,82665
29.31997,81593
29.32932,81898
29.33865,82376
29.34798,83547
29.35733,81917
29.36667,83552
29.37600,85369
29.38535,82997
29.39468,81672
29.40403,87341
29.41337,84941
29.42270,84051
29.43205,88905
29.44138,88211
29.45072,89996
29.46007,94705
29.46940,92980
29.47873,87115
29.48808,88131
29.49742,85972
29.50675,87238
29.51610,86924
29.52543,84146
29.53477,85300
29.54412,82976
29.55345,84968
29.56278,85353
29.57213,86779
29.58147,88459
29.59082,86355
29.60015,86180
29.60948,87171
29.61883,87485
29.62817,87306
29.63750,87700
29.64685,88918
29.65618,87585
29.66552,85948
29.67487,86530
29.68420,87472
29.69353,87331
29.70288,88794
29.71222,89182
29.72155,87156
29.73090,87786
29.74023,89404
29.74957,90729
29.75892,88434
29.76825,85709
29.77760,86797
29.78693,88031
29.79627,86346
29.80562,89328
29.81495,91349
29.82428,89354
29.83363,88015
29.84297,89588
29.85230,89483
29.86165,88250
29.87098,88246
29.88032,92775
29.88967,89181
29.89900,91259
29.90833,88461
29.91768,92196
29.92702,89243
29.93635,90693
29.94570,91597
29.95503,90788
29.96438,93007
29.97372,95433
29.98305,89502
29.99240,88836
30.00173,91960
30.01107,92538
30.02042,93028
30.02975,92300
30.03908,94556
30.04843,91933
30.05777,93777
30.06710,93005
30.07645,93268
30.08578,94570
30.09512,96607
30.10447,92961
30.11380,93833
30.12315,89419
30.13248,90964
30.14182,91498
30.15117,91536
30.16050,94111
30.16983,94258
30.17918,90188
30.18852,94730
30.19785,90348
30.20720,93911
30.21653,91077
30.22587,92863
30.23522,94585
30.24455,91970
30.25388,91621
30.26323,92550
30.27257,93132
30.28190,92043
30.29125,92466
30.30058,93531
30.30993,93215
30.31927,90979
30.32860,92956
30.33795,93579
30.34728,92204
30.35662,93138
30.36597,92983
30.37530,96437
30.38463,97277
30.39398,97832
30.40332,97991
30.41265,92700
30.42200,99050
30.43133,91862
30.44067,91433
30.45002,93169
30.45935,93663
30.46868,93630
30.47803,93259
30.48737,92731
30.49672,94036
30.50605,93461
30.51538,93588
30.52473,93922
30.53407,93486
30.54340,96453
30.55275,96802
30.56208,96332
30.57142,93850
30.58077,95705
30.59010,97142
30.59943,101331
30.60878,100575
30.61812,104137
30.62745,105439
30.63680,105429
30.64613,106417
30.65547,107673
30.66482,109153
30.67415,111448
30.68350,107826
30.69283,106865
30.70217,105317
30.71152,107337
30.72085,106096
30.73018,105207
30.73953,101868
30.74887,108911
30.75820,101024
30.76755,102519
30.77688,103750
30.78622,101934
30.79557,105770
30.80490,105451
30.81423,102841
30.82358,105151
30.83292,103542
30.84227,104531
30.85160,106916
30.86093,104619
30.87028,105207
30.87962,105853
30.88895,104927
30.89830,106007
30.90763,108029
30.91697,105232
30.92632,106121
30.93565,107722
30.94498,107350
30.95433,109850
30.96367,109451
30.97300,108881
30.98235,105760
30.99168,107341
31.00102,105978
31.01037,102651
31.01970,103164
31.02905,107295
31.03838,105349
31.04772,105686
31.05707,106439
31.06640,103606
31.07573,100469
31.08508,103738
31.09442,104511
31.10375,102119
31.11310,105485
31.12243,103418
31.13177,105892
31.14112,105699
31.15045,103307
31.15978,101382
31.16913,105485
31.17847,106509
31.18780,104388
31.19715,107694
31.20648,104136
31.21583,103944
31.22517,104795
31.23450,106507
31.24385,105949
31.25318,106109
31.26252,104976
31.27187,106244
31.28120,104694
31.29053,106672
31.29988,106454
31.30922,108325
31.31855,106015
31.32790,108097
31.33723,104497
31.34657,106836
31.35592,106556
31.36525,106460
