D:\数据\20220412\TEST1-SDHX-2.D Tue Apr 12 13:16:31 2022
Start of data points
0.09750,19329
0.10683,19749
0.11617,19042
0.12552,19389
0.13485,19392
0.14418,20860
0.15353,19638
0.16287,18874
0.17220,19650
0.18155,19622
0.19088,19663
0.20022,19294
0.20957,19962
0.21890,18178
0.22823,18712
0.23758,17902
0.24692,19748
0.25627,18906
0.26560,17644
0.27493,18309
0.28428,18656
0.29362,19071
0.30295,17679
0.31230,18271
0.32163,17131
0.33097,17881
0.34032,18691
0.34965,17764
0.35898,18547
0.36833,18562
0.37767,18023
0.38700,17415
0.39635,17920
0.40568,18527
0.41503,17369
0.42437,16445
0.43370,13618
0.44305,11614
0.45238,9252
0.46172,6552
0.47107,4934
0.48040,5300
0.48973,5244
0.49908,5656
0.50842,5173
0.51775,4972
0.52710,4023
0.53643,4523
0.54577,4186
0.55512,4311
0.56445,4630
0.57378,4386
0.58313,3635
0.59247,4642
0.60182,4670
0.61115,4457
0.62048,4099
0.62983,3982
0.63917,4412
0.64850,4027
0.65785,4330
0.66718,4527
0.67652,4300
0.68587,4210
0.69520,4217
0.70453,4578
0.71388,3819
0.72322,4179
0.73255,3972
0.74190,4226
0.75123,4295
0.76057,3528
0.76992,3698
0.77925,4465
0.78860,3748
0.79793,4408
0.80727,4404
0.81662,4221
0.82595,3911
0.83528,3934
0.84463,4529
0.85397,3542
0.86330,4155
0.87265,3954
0.88198,3821
0.89132,4298
0.90067,3777
0.91000,3881
0.91933,4387
0.92868,4220
0.93802,3913
0.94735,4228
0.95670,3798
0.96603,3509
0.97538,3448
0.98472,4092
0.99405,3759
1.00340,3645
1.01273,4154
1.02207,4067
1.03142,3579
1.04075,4479
1.05008,3708
1.05943,3451
1.06877,3523
1.07810,3604
1.08745,3856
1.09678,3235
1.10612,4094
1.11547,3659
1.12480,3682
1.13413,4133
1.14348,3595
1.15282,3297
1.16217,4150
1.17150,3750
1.18083,3838
1.19018,3498
1.19952,4122
1.20885,4261
1.21820,3553
1.22753,3486
1.23687,4473
1.24622,3866
1.25555,3621
1.26488,3601
1.27423,3874
1.28357,4241
1.29290,3364
1.30225,4531
1.31158,3409
1.32093,3653
1.33027,3737
1.33960,3485
1.34895,3449
1.35828,3368
1.36762,4065
1.37697,3867
1.38630,3438
1.39563,3672
1.40498,4085
1.41432,3904
1.42365,4149
1.43300,3584
1.44233,3777
1.45167,3780
1.46102,3402
1.47035,3362
1.47968,3448
1.48903,3579
1.49837,3677
1.50772,3672
1.51705,3042
1.52638,3440
1.53573,3023
1.54507,3654
1.55440,3339
1.56375,3474
1.57308,3788
1.58242,3298
1.59177,4639
1.60110,8800
1.61043,14257
1.61978,18847
1.62912,20359
1.63845,24761
1.64780,28015
1.65713,29373
1.66647,30528
1.67582,28635
1.68515,26316
1.69450,22387
1.70383,16582
1.71317,13746
1.72252,15197
1.73185,17006
1.74118,17518
1.75053,19749
1.75987,19980
1.76920,20332
1.77855,21001
1.78788,21489
1.79722,20472
1.80657,21395
1.81590,21039
1.82523,22923
1.83458,21051
1.84392,21878
1.85325,21832
1.86260,22548
1.87193,28146
1.88128,38554
1.89062,65911
1.89995,92495
1.90930,108291
1.91863,124595
1.92797,146957
1.93732,179177
1.94665,196939
1.95598,195510
1.96533,173958
1.97467,150466
1.98400,125924
1.99335,102354
2.00268,91520
2.01202,85583
2.02137,97931
2.03070,120950
2.04005,112891
2.04938,90115
2.05872,81411
2.06807,70327
2.07740,64088
2.08673,59006
2.09608,53211
2.10542,50178
2.11475,51629
2.12410,57974
2.13343,66142
2.14277,81346
2.15212,90788
2.16145,85854
2.17078,74134
2.18013,80518
2.18947,183254
2.19880,302928
2.20815,240692
2.21748,137728
2.22683,95545
2.23617,120181
2.24550,234774
2.25485,629138
2.26418,1872909
2.27352,2785363
2.28287,2528553
2.29220,1679098
2.30153,1140416
2.31088,2587453
2.32022,6783879
2.32955,7840345
2.33890,4879842
2.34823,2201511
2.35757,946144
2.36692,451257
2.37625,266271
2.38558,186471
2.39493,133710
2.40427,105589
2.41362,97972
2.42295,91668
2.43228,84629
2.44163,78637
2.45097,66257
2.46030,62490
2.46965,64996
2.47898,64928
2.48832,58487
2.49767,52762
2.50700,50311
2.51633,48854
2.52568,48073
2.53502,48567
2.54435,52931
2.55370,60889
2.56303,80145
2.57237,108721
2.58172,134508
2.59105,133665
2.60040,126282
2.60973,125696
2.61907,161251
2.62842,185368
2.63775,161275
2.64708,135405
2.65643,128663
2.66577,102333
2.67510,76151
2.68445,58709
2.69378,49050
2.70312,49509
2.71247,81553
2.72180,192656
2.73113,293556
2.74048,273424
2.74982,221991
2.75915,229936
2.76850,299079
2.77783,485595
2.78718,716485
2.79652,629722
2.80585,439408
2.81520,280095
2.82453,196097
2.83387,155891
2.84322,243892
2.85255,663775
2.86188,1233980
2.87123,1201698
2.88057,721940
2.88990,356666
2.89925,188545
2.90858,116985
2.91792,91461
2.92727,75153
2.93660,65243
2.94593,61665
2.95528,56763
2.96462,52506
2.97397,51256
2.98330,54993
2.99263,63773
3.00198,80489
3.01132,86561
3.02065,96287
3.03000,232687
3.03933,381717
3.04867,341531
3.05802,236503
3.06735,179745
3.07668,141774
3.08603,103404
3.09537,77827
3.10470,60747
3.11405,50039
3.12338,46116
3.13273,48136
3.14207,54063
3.15140,79855
3.16075,139107
3.17008,180739
3.17942,141776
3.18877,86053
3.19810,60057
3.20743,48166
3.21678,45205
3.22612,40770
3.23545,39177
3.24480,39128
3.25413,40582
3.26347,42239
3.27282,40800
3.28215,37190
3.29148,38911
3.30083,40621
3.31017,40551
3.31952,40075
3.32885,37969
3.33818,38210
3.34753,36166
3.35687,39107
3.36620,37553
3.37555,35883
3.38488,35158
3.39422,34042
3.40357,37217
3.41290,45818
3.42223,55902
3.43158,53469
3.44092,51303
3.45025,45869
3.45960,41943
3.46893,38042
3.47827,38098
3.48762,38566
3.49695,39702
3.50630,37698
3.51563,35882
3.52497,33787
3.53432,36735
3.54365,55383
3.55298,118970
3.56233,233538
3.57167,292820
3.58100,238530
3.59035,151064
3.59968,113762
3.60902,93088
3.61837,74243
3.62770,62723
3.63703,54984
3.64638,50053
3.65572,44643
3.66507,44824
3.67440,46186
3.68373,46232
3.69308,41916
3.70242,39423
3.71175,43903
3.72110,51158
3.73043,53044
3.73977,46500
3.74912,38796
3.75845,35724
3.76778,33658
3.77713,34083
3.78647,35509
3.79580,37822
3.80515,45193
3.81448,58552
3.82382,65071
3.83317,59690
3.84250,50990
3.85185,44867
3.86118,40269
3.87052,38944
3.87987,41084
3.88920,48705
3.89853,59789
3.90788,62774
3.91722,60021
3.92655,71877
3.93590,93905
3.94523,97039
3.95457,97410
3.96392,89968
3.97325,86769
3.98258,86039
3.99193,89960
4.00127,96847
4.01060,104513
4.01995,114428
4.02928,139740
4.03863,206534
4.04797,273947
4.05730,275559
4.06665,236832
4.07598,213180
4.08532,148558
4.09467,115572
4.10400,92844
4.11333,72888
4.12268,60186
4.13202,52061
4.14135,48838
4.15070,48576
4.16003,47285
4.16937,44407
4.17872,41826
4.18805,43044
4.19738,43260
4.20673,45690
4.21607,45576
4.22542,42468
4.23475,41688
4.24408,40203
4.25343,40575
4.26277,39982
4.27210,44701
4.28145,50550
4.29078,50539
4.30012,47166
4.30947,47934
4.31880,52626
4.32813,55403
4.33748,52096
4.34682,47242
4.35615,44774
4.36550,39348
4.37483,38782
4.38417,38913
4.39352,37751
4.40285,35006
4.41220,32857
4.42153,35157
4.43087,33381
4.44022,33255
4.44955,33996
4.45888,36337
4.46823,47956
4.47757,59238
4.48690,59212
4.49625,51692
4.50558,40989
4.51492,37376
4.52427,33501
4.53360,33936
4.54293,35733
4.55228,33135
4.56162,32475
4.57095,33094
4.58030,31304
4.58963,33467
4.59898,35591
4.60832,35795
4.61765,35101
4.62700,35489
4.63633,36162
4.64567,37012
4.65502,37654
4.66435,35977
4.67368,36472
4.68303,38873
4.69237,44944
4.70170,52854
4.71105,51130
4.72038,45786
4.72972,39392
4.73907,35611
4.74840,33007
4.75775,33090
4.76708,34938
4.77642,35003
4.78577,34613
4.79510,34307
4.80443,33171
4.81378,38000
4.82312,36860
4.83245,37184
4.84180,33990
4.85113,32736
4.86047,32707
4.86982,36560
4.87915,38737
4.88848,38797
4.89783,38367
4.90717,35641
4.91650,35144
4.92585,36826
4.93518,40229
4.94453,41654
4.95387,36829
4.96320,34683
4.97255,32573
4.98188,28259
4.99122,31171
5.00057,32490
5.00990,34034
5.01923,38288
5.02858,42091
5.03792,41942
5.04725,36609
5.05660,33232
5.06593,31514
5.07527,31195
5.08462,31915
5.09395,33824
5.10328,30160
5.11263,31930
5.12197,29860
5.13132,31278
5.14065,33053
5.14998,32018
5.15933,31572
5.16867,31128
5.17800,33897
5.18735,36152
5.19668,34131
5.20602,31181
5.21537,29355
5.22470,31229
5.23403,34039
5.24338,35823
5.25272,35381
5.26205,38598
5.27140,64764
5.28073,117260
5.29007,160579
5.29942,136720
5.30875,86987
5.31810,56674
5.32743,45867
5.33677,38512
5.34612,34544
5.35545,31955
5.36478,31103
5.37413,31656
5.38347,34473
5.39280,39356
5.40215,41487
5.41148,37095
5.42082,33307
5.43017,31801
5.43950,30052
5.44883,28571
5.45818,30768
5.46752,29789
5.47687,30318
5.48620,32988
5.49553,33788
5.50488,32753
5.51422,35058
5.52355,42492
5.53290,45987
5.54223,45758
5.55157,43821
5.56092,46732
5.57025,50139
5.57958,51150
5.58893,48621
5.59827,38659
5.60760,35402
5.61695,32737
5.62628,32057
5.63562,31834
5.64497,31936
5.65430,31452
5.66365,33403
5.67298,34707
5.68232,32479
5.69167,32515
5.70100,34461
5.71033,37153
5.71968,36502
5.72902,34912
5.73835,38955
5.74770,43941
5.75703,48932
5.76637,44110
5.77572,36486
5.78505,34916
5.79438,30156
5.80373,30213
5.81307,31133
5.82240,32740
5.83175,34756
5.84108,33837
5.85043,31146
5.85977,28469
5.86910,27952
5.87845,26317
5.88778,26687
5.89712,25890
5.90647,33084
5.91580,53521
5.92513,74357
5.93448,72859
5.94382,59608
5.95315,49342
5.96250,42096
5.97183,39452
5.98117,33554
5.99052,28853
5.99985,25525
6.00918,23050
6.01853,19374
6.02787,17679
6.03722,18296
6.04655,19202
6.05588,20193
6.06523,19764
6.07457,19906
6.08390,17921
6.09325,16790
6.10258,17484
6.11192,23950
6.12127,46266
6.13060,79941
6.13993,98497
6.14928,74951
6.15862,40557
6.16795,25438
6.17730,20385
6.18663,19615
6.19597,19416
6.20532,16458
6.21465,18465
6.22400,19264
6.23333,20749
6.24267,19242
6.25202,20177
6.26135,24036
6.27068,27645
6.28003,25566
6.28937,20155
6.29870,16728
6.30805,15584
6.31738,15794
6.32672,14821
6.33607,15688
6.34540,16045
6.35473,16557
6.36408,16630
6.37342,24011
6.38277,45419
6.39210,116875
6.40143,314486
6.41078,488680
6.42012,418491
6.42945,201960
6.43880,68359
6.44813,28604
6.45747,22486
6.46682,21586
6.47615,19143
6.48548,18965
6.49483,18539
6.50417,20659
6.51350,20086
6.52285,19874
6.53218,18234
6.54152,18069
6.55087,16428
6.56020,16301
6.56955,16863
6.57888,16663
6.58822,17243
6.59757,18912
6.60690,19248
6.61623,19486
6.62558,20887
6.63492,20725
6.64425,18246
6.65360,19005
6.66293,21465
6.67227,20057
6.68162,20277
6.69095,21147
6.70028,19952
6.70963,21651
6.71897,20365
6.72830,19086
6.73765,18152
6.74698,16328
6.75633,17090
6.76567,16659
6.77500,18174
6.78435,19346
6.79368,22174
6.80302,25189
6.81237,23132
6.82170,17998
6.83103,16567
6.84038,16372
6.84972,16625
6.85905,17126
6.86840,17356
6.87773,17224
6.88707,18298
6.89642,22144
6.90575,26775
6.91508,28815
6.92443,24279
6.93377,21579
6.94312,20164
6.95245,19521
6.96178,20755
6.97113,18094
6.98047,18402
6.98980,17014
6.99915,18105
7.00848,18772
7.01782,19319
7.02717,18343
7.03650,17912
7.04583,16042
7.05518,15177
7.06452,15846
7.07385,16392
7.08320,17028
7.09253,17749
7.10188,18519
7.11122,18544
7.12055,20267
7.12990,17925
7.13923,18897
7.14857,17692
7.15792,18303
7.16725,16973
7.17658,16487
7.18593,18254
7.19527,15585
7.20460,18680
7.21395,19578
7.22328,32063
7.23262,51656
7.24197,71461
7.25130,62451
7.26063,41197
7.26998,30551
7.27932,27575
7.28867,25621
7.29800,21913
7.30733,19512
7.31668,17607
7.32602,16321
7.33535,15968
7.34470,15835
7.35403,16057
7.36337,16407
7.37272,17475
7.38205,24962
7.39138,55641
7.40073,104916
7.41007,139537
7.41940,123367
7.42875,76974
7.43808,44022
7.44742,26924
7.45677,21257
7.46610,21976
7.47545,23325
7.48478,21792
7.49412,22106
7.50347,18409
7.51280,17016
7.52213,16868
7.53148,16229
7.54082,17568
7.55015,17046
7.55950,18511
7.56883,20831
7.57817,20560
7.58752,19046
7.59685,17574
7.60618,18461
7.61553,19265
7.62487,19289
7.63420,18915
7.64355,17963
7.65288,17084
7.66223,16608
7.67157,17371
7.68090,19525
7.69025,22153
7.69958,27300
7.70892,29734
7.71827,29194
7.72760,28610
7.73693,27623
7.74628,24152
7.75562,22230
7.76495,22243
7.77430,21859
7.78363,23103
7.79297,21307
7.80232,19417
7.81165,20443
7.82098,21024
7.83033,21138
7.83967,22187
7.84902,27779
7.85835,42065
7.86768,56720
7.87703,59200
7.88637,41479
7.89570,32546
7.90505,45235
7.91438,66903
7.92372,76427
7.93307,57918
7.94240,44280
7.95173,35832
7.96108,30017
7.97042,27508
7.97975,26065
7.98910,25367
7.99843,26224
8.00777,23278
8.01712,21769
8.02645,23282
8.03580,31135
8.04513,37064
8.05447,33204
8.06382,25814
8.07315,20953
8.08248,22281
8.09183,26724
8.10117,27681
8.11050,23750
8.11985,22271
8.12918,19994
8.13852,18404
8.14787,18504
8.15720,17566
8.16653,18057
8.17588,16988
8.18522,18346
8.19457,16938
8.20390,18517
8.21323,18429
8.22258,17863
8.23192,17963
8.24125,19504
8.25060,19997
8.25993,19056
8.26927,19798
8.27862,17152
8.28795,18268
8.29728,18638
8.30663,17736
8.31597,17172
8.32530,16919
8.33465,17502
8.34398,18214
8.35332,17954
8.36267,16661
8.37200,18651
8.38135,18480
8.39068,17757
8.40002,20340
8.40937,23177
8.41870,22432
8.42803,22355
8.43738,21001
8.44672,21475
8.45605,20972
8.46540,20873
8.47473,20396
8.48407,21063
8.49342,21626
8.50275,20310
8.51208,19662
8.52143,19616
8.53077,19696
8.54010,20413
8.54945,22497
8.55878,21488
8.56813,21634
8.57747,21380
8.58680,20966
8.59615,24034
8.60548,23913
8.61482,22765
8.62417,21608
8.63350,22185
8.64283,22712
8.65218,23781
8.66152,26456
8.67085,24677
8.68020,23585
8.68953,23928
8.69887,23229
8.70822,23919
8.71755,21955
8.72688,22200
8.73623,21934
8.74557,26666
8.75492,29627
8.76425,27570
8.77358,26616
8.78293,28142
8.79227,43606
8.80160,71331
8.81095,93844
8.82028,78734
8.82962,47579
8.83897,28713
8.84830,23826
8.85763,21573
8.86698,23119
8.87632,22825
8.88565,23849
8.89500,23971
8.90433,23135
8.91368,24513
8.92302,23941
8.93235,26437
8.94170,25278
8.95103,22990
8.96037,22726
8.96972,21165
8.97905,21853
8.98838,19838
8.99773,19742
9.00707,22694
9.01640,23495
9.02575,21069
9.03508,21014
9.04442,21976
9.05377,21740
9.06310,23768
9.07243,26307
9.08178,28379
9.09112,29193
9.10047,26831
9.10980,23838
9.11913,24742
9.12848,34340
9.13782,37372
9.14715,33731
9.15650,25499
9.16583,21509
9.17517,20609
9.18452,22640
9.19385,22200
9.20318,24110
9.21253,27817
9.22187,39546
9.23120,46789
9.24055,45662
9.24988,34262
9.25922,28299
9.26857,23018
9.27790,24499
9.28725,22922
9.29658,22577
9.30592,22747
9.31527,27296
9.32460,32615
9.33393,35647
9.34328,32643
9.35262,39707
9.36195,71282
9.37130,107505
9.38063,103114
9.38997,79915
9.39932,61915
9.40865,46447
9.41798,40178
9.42733,39027
9.43667,32746
9.44600,24051
9.45535,22424
9.46468,21111
9.47403,19811
9.48337,21637
9.49270,23195
9.50205,23086
9.51138,21617
9.52072,22557
9.53007,24796
9.53940,27192
9.54873,33276
9.55808,37582
9.56742,39874
9.57675,32089
9.58610,26776
9.59543,25832
9.60477,25845
9.61412,24846
9.62345,21953
9.63278,22346
9.64213,22699
9.65147,22541
9.66082,22545
9.67015,22357
9.67948,22439
9.68883,21923
9.69817,21662
9.70750,23250
9.71685,38023
9.72618,75661
9.73552,156976
9.74487,241129
9.75420,264384
9.76353,199221
9.77288,130787
9.78222,86747
9.79155,68572
9.80090,55903
9.81023,49060
9.81958,47145
9.82892,52187
9.83825,56423
9.84760,58701
9.85693,49889
9.86627,39383
9.87562,40926
9.88495,45408
9.89428,50094
9.90363,46796
9.91297,43866
9.92230,42481
9.93165,36491
9.94098,33813
9.95032,29678
9.95967,28721
9.96900,34747
9.97833,47556
9.98768,61480
9.99702,61902
10.00637,49664
10.01570,37618
10.02503,28829
10.03438,26587
10.04372,27762
10.05305,30981
10.06240,39770
10.07173,45826
10.08107,44926
10.09042,35756
10.09975,44360
10.10908,125286
10.11843,360222
10.12777,569482
10.13710,509903
10.14645,477346
10.15578,882301
10.16512,1254090
10.17447,891712
10.18380,318046
10.19315,78389
10.20248,35073
10.21182,28052
10.22117,26454
10.23050,29178
10.23983,34660
10.24918,34023
10.25852,27794
10.26785,24332
10.27720,24234
10.28653,25876
10.29587,29759
10.30522,28899
10.31455,27715
10.32388,23598
10.33323,22082
10.34257,20463
10.35190,22852
10.36125,21441
10.37058,21474
10.37993,20308
10.38927,19490
10.39860,21346
10.40795,27594
10.41728,41631
10.42662,49745
10.43597,47263
10.44530,49587
10.45463,62449
10.46398,68393
10.47332,50330
10.48265,32365
10.49200,23274
10.50133,21473
10.51067,20953
10.52002,21279
10.52935,20689
10.53870,22013
10.54803,23670
10.55737,23141
10.56672,22396
10.57605,22409
10.58538,21772
10.59473,20981
10.60407,20251
10.61340,19920
10.62275,22951
10.63208,26099
10.64142,26091
10.65077,22519
10.66010,23374
10.66943,26486
10.67878,27506
10.68812,28041
10.69745,29615
10.70680,44348
10.71613,57279
10.72548,50137
10.73482,34434
10.74415,30358
10.75350,44473
10.76283,60121
10.77217,69056
10.78152,70981
10.79085,113624
10.80018,171307
10.80953,172503
10.81887,105167
10.82820,50821
10.83755,32275
10.84688,27724
10.85622,27470
10.86557,30849
10.87490,37716
10.88423,37212
10.89358,36763
10.90292,30627
10.91227,27454
10.92160,26429
10.93093,28018
10.94028,26362
10.94962,25593
10.95895,26212
10.96830,26484
10.97763,22089
10.98697,20193
10.99632,20642
11.00565,19956
11.01498,19559
11.02433,19871
11.03367,19398
11.04300,19868
11.05235,20167
11.06168,18577
11.07102,18256
11.08037,18121
11.08970,17656
11.09905,19850
11.10838,20646
11.11772,22554
11.12707,21565
11.13640,21192
11.14573,19765
11.15508,18949
11.16442,20661
11.17375,18747
11.18310,20093
11.19243,17538
11.20177,18472
11.21112,19755
11.22045,19807
11.22978,21544
11.23913,20302
11.24847,21634
11.25780,22200
11.26715,24645
11.27648,21386
11.28583,20712
11.29517,21217
11.30450,20053
11.31385,19029
11.32318,21208
11.33252,25482
11.34187,34800
11.35120,43647
11.36053,38841
11.36988,30004
11.37922,23542
11.38855,26917
11.39790,34965
11.40723,40788
11.41657,41666
11.42592,32792
11.43525,26119
11.44458,22442
11.45393,24726
11.46327,30625
11.47262,33947
11.48195,28422
11.49128,22444
11.50063,20200
11.50997,20292
11.51930,19737
11.52865,17657
11.53798,20884
11.54732,22643
11.55667,28055
11.56600,43430
11.57533,56579
11.58468,56087
11.59402,41961
11.60335,34403
11.61270,30749
11.62203,27659
11.63138,26772
11.64072,27630
11.65005,36202
11.65940,45825
11.66873,48862
11.67807,43693
11.68742,36879
11.69675,32851
11.70608,31742
11.71543,32989
11.72477,33160
11.73410,30319
11.74345,27635
11.75278,28210
11.76212,24703
11.77147,27202
11.78080,30010
11.79013,31338
11.79948,27681
11.80882,25764
11.81817,25166
11.82750,25082
11.83683,24302
11.84618,22331
11.85552,22969
11.86485,23916
11.87420,24935
11.88353,23471
11.89287,22793
11.90222,21122
11.91155,19753
11.92088,20265
11.93023,24959
11.93957,31621
11.94890,34044
11.95825,29130
11.96758,24018
11.97692,21191
11.98627,22992
11.99560,24290
12.00495,29319
12.01428,33624
12.02362,32545
12.03297,27710
12.04230,25077
12.05163,23487
12.06098,19705
12.07032,20252
12.07965,20236
12.08900,19633
12.09833,19650
12.10767,19358
12.11702,18875
12.12635,19445
12.13568,19658
12.14503,22071
12.15437,26026
12.16370,38570
12.17305,50764
12.18238,46809
12.19173,34130
12.20107,27312
12.21040,25062
12.21975,29193
12.22908,30807
12.23842,29908
12.24777,25069
12.25710,23707
12.26643,40145
12.27578,63373
12.28512,71031
12.29445,54046
12.30380,37907
12.31313,31635
12.32247,27928
12.33182,30219
12.34115,29103
12.35050,28342
12.35983,27239
12.36917,24960
12.37852,24225
12.38785,25833
12.39718,23114
12.40653,20600
12.41587,20790
12.42520,21310
12.43455,21730
12.44388,19817
12.45322,21919
12.46257,23088
12.47190,23922
12.48123,24664
12.49058,25473
12.49992,26483
12.50925,28067
12.51860,27221
12.52793,27834
12.53728,27557
12.54662,27451
12.55595,30782
12.56530,32363
12.57463,29157
12.58397,24319
12.59332,23111
12.60265,22312
12.61198,21189
12.62133,24630
12.63067,31958
12.64000,36327
12.64935,33779
12.65868,31484
12.66802,28044
12.67737,23854
12.68670,20874
12.69603,18827
12.70538,21420
12.71472,21591
12.72407,21455
12.73340,22465
12.74273,21387
12.75208,23514
12.76142,22209
12.77075,21141
12.78010,19992
12.78943,23021
12.79877,21837
12.80812,20389
12.81745,21650
12.82678,24238
12.83613,23115
12.84547,22177
12.85480,21282
12.86415,20340
12.87348,20425
12.88282,19354
12.89217,18946
12.90150,20705
12.91085,19140
12.92018,20130
12.92952,19531
12.93887,19572
12.94820,21171
12.95753,20497
12.96688,19841
12.97622,17566
12.98555,17922
12.99490,18419
13.00423,19562
13.01357,22680
13.02292,24519
13.03225,25861
13.04158,26491
13.05093,22258
13.06027,20664
13.06960,21843
13.07895,23273
13.08828,22874
13.09763,20823
13.10697,20285
13.11630,20813
13.12565,23095
13.13498,23657
13.14432,23840
13.15367,24785
13.16300,25122
13.17233,25524
13.18168,29774
13.19102,62002
13.20035,135782
13.20970,192852
13.21903,157070
13.22837,85133
13.23772,54277
13.24705,49215
13.25640,40554
13.26573,36667
13.27507,33981
13.28442,33320
13.29375,32290
13.30308,31393
13.31243,28666
13.32177,31497
13.33110,29204
13.34045,27051
13.34978,27624
13.35912,25861
13.36847,22935
13.37780,25264
13.38713,26821
13.39648,27729
13.40582,25596
13.41515,23734
13.42450,24223
13.43383,25730
13.44318,26562
13.45252,26420
13.46185,27400
13.47120,28070
13.48053,28442
13.48987,25095
13.49922,25635
13.50855,31617
13.51788,44002
13.52723,51636
13.53657,41659
13.54590,30332
13.55525,24993
13.56458,25101
13.57392,22742
13.58327,21319
13.59260,20529
13.60193,20458
13.61128,21620
13.62062,21730
13.62997,20504
13.63930,21269
13.64863,23221
13.65798,24725
13.66732,23228
13.67665,21172
13.68600,21503
13.69533,19033
13.70467,17951
13.71402,17009
13.72335,17083
13.73268,17378
13.74203,18069
13.75137,19195
13.76070,19744
13.77005,20248
13.77938,21558
13.78872,21333
13.79807,22960
13.80740,23691
13.81675,22503
13.82608,19815
13.83542,19244
13.84477,20599
13.85410,20466
13.86343,22150
13.87278,25125
13.88212,33811
13.89145,51650
13.90080,81568
13.91013,121151
13.91947,122504
13.92882,75309
13.93815,42575
13.94748,29450
13.95683,27146
13.96617,25911
13.97552,24243
13.98485,24200
13.99418,25269
14.00353,26167
14.01287,24506
14.02220,23352
14.03155,39440
14.04088,189474
14.05022,1015248
14.05957,2865960
14.06890,3662309
14.07823,2422611
14.08758,748217
14.09692,140296
14.10625,48941
14.11560,38815
14.12493,31452
14.13427,32567
14.14362,32608
14.15295,32023
14.16230,34220
14.17163,33051
14.18097,33623
14.19032,37969
14.19965,39899
14.20898,32545
14.21833,28035
14.22767,24770
14.23700,22876
14.24635,24419
14.25568,23895
14.26502,23454
14.27437,23583
14.28370,22614
14.29303,22338
14.30238,23738
14.31172,28229
14.32105,36121
14.33040,38888
14.33973,31392
14.34908,27247
14.35842,23907
14.36775,22060
14.37710,21894
14.38643,22818
14.39577,23527
14.40512,22546
14.41445,19550
14.42378,21056
14.43313,20415
14.44247,25286
14.45180,31635
14.46115,42106
14.47048,43140
14.47982,35238
14.48917,28435
14.49850,26489
14.50783,25649
14.51718,23678
14.52652,22635
14.53587,21976
14.54520,22701
14.55453,23739
14.56388,23746
14.57322,24921
14.58255,22547
14.59190,23719
14.60123,22775
14.61057,21681
14.61992,21986
14.62925,22397
14.63858,22496
14.64793,27339
14.65727,28907
14.66660,29101
14.67595,26250
14.68528,25121
14.69462,21858
14.70397,23096
14.71330,21369
14.72265,22723
14.73198,24192
14.74132,23293
14.75067,24006
14.76000,23711
14.76933,22925
14.77868,23333
14.78802,22798
14.79735,23199
14.80670,24724
14.81603,25578
14.82537,22263
14.83472,20795
14.84405,21243
14.85338,24232
14.86273,28106
14.87207,30458
14.88140,28081
14.89075,23380
14.90008,21590
14.90943,22611
14.91877,22723
14.92810,22947
14.93745,21245
14.94678,21568
14.95612,22081
14.96547,24891
14.97480,25944
14.98413,24396
14.99348,26237
15.00282,31101
15.01215,32007
15.02150,28932
15.03083,26690
15.04017,30536
15.04952,32227
15.05885,31766
15.06820,29945
15.07753,27268
15.08687,24107
15.09622,22616
15.10555,22612
15.11488,28806
15.12423,34065
15.13357,34251
15.14290,29274
15.15225,26124
15.16158,23245
15.17092,21080
15.18027,22772
15.18960,28814
15.19893,37914
15.20828,49976
15.21762,56342
15.22695,48906
15.23630,39329
15.24563,31855
15.25498,30252
15.26432,28407
15.27365,26386
15.28300,29137
15.29233,26725
15.30167,25416
15.31102,27852
15.32035,32832
15.32968,34477
15.33903,32324
15.34837,31114
15.35770,30548
15.36705,35853
15.37638,33875
15.38572,26782
15.39507,25990
15.40440,24089
15.41373,27215
15.42308,25212
15.43242,24849
15.44177,23106
15.45110,23916
15.46043,24551
15.46978,25532
15.47912,25553
15.48845,27530
15.49780,32899
15.50713,43569
15.51647,50134
15.52582,44315
15.53515,32992
15.54448,25491
15.55383,23196
15.56317,21961
15.57250,24307
15.58185,23177
15.59118,25292
15.60052,24998
15.60987,25453
15.61920,27003
15.62855,27287
15.63788,29968
15.64722,31698
15.65657,31101
15.66590,29685
15.67523,26486
15.68458,29345
15.69392,31161
15.70325,35074
15.71260,35930
15.72193,31468
15.73127,29467
15.74062,34978
15.74995,39729
15.75928,37926
15.76863,35470
15.77797,31833
15.78732,31259
15.79665,28202
15.80598,27745
15.81533,35517
15.82467,55635
15.83400,91770
15.84335,106569
15.85268,77407
15.86202,50271
15.87137,40089
15.88070,40655
15.89003,45086
15.89938,44921
15.90872,40152
15.91805,34048
15.92740,29261
15.93673,26473
15.94607,26964
15.95542,28032
15.96475,32169
15.97410,38862
15.98343,43166
15.99277,43824
16.00212,39396
16.01145,35342
16.02078,29196
16.03013,31460
16.03947,33508
16.04880,33509
16.05815,33447
16.06748,34380
16.07682,33054
16.08617,30990
16.09550,30818
16.10483,32192
16.11418,37457
16.12352,36075
16.13285,33734
16.14220,33389
16.15153,30708
16.16088,29233
16.17022,28677
16.17955,28538
16.18890,30488
16.19823,31772
16.20757,34382
16.21692,37034
16.22625,39649
16.23558,43449
16.24493,41669
16.25427,40399
16.26360,41071
16.27295,52709
16.28228,93972
16.29162,154743
16.30097,160745
16.31030,107986
16.31963,58082
16.32898,37772
16.33832,31814
16.34767,28936
16.35700,25706
16.36633,27245
16.37568,25099
16.38502,28751
16.39435,29120
16.40370,31912
16.41303,32558
16.42237,29972
16.43172,29694
16.44105,31662
16.45038,32091
16.45973,33394
16.46907,32251
16.47840,30194
16.48775,28687
16.49708,29736
16.50642,31048
16.51577,31447
16.52510,29572
16.53445,27563
16.54378,29071
16.55312,27215
16.56247,25829
16.57180,26480
16.58113,29521
16.59048,29228
16.59982,28651
16.60915,30279
16.61850,35098
16.62783,36561
16.63717,35038
16.64652,31701
16.65585,30081
16.66518,29527
16.67453,32067
16.68387,35219
16.69322,37243
16.70255,38152
16.71188,33156
16.72123,30835
16.73057,38967
16.73990,55860
16.74925,66461
16.75858,52939
16.76792,37470
16.77727,30592
16.78660,29824
16.79593,27882
16.80528,29039
16.81462,32198
16.82395,36278
16.83330,37862
16.84263,34253
16.85197,29760
16.86132,27058
16.87065,28047
16.88000,27820
16.88933,29792
16.89867,37271
16.90802,44274
16.91735,46025
16.92668,40955
16.93603,38371
16.94537,38854
16.95470,38330
16.96405,38189
16.97338,35304
16.98272,28710
16.99207,28233
17.00140,27018
17.01073,32274
17.02008,43628
17.02942,55832
17.03875,51237
17.04810,40819
17.05743,34325
17.06678,33548
17.07612,31638
17.08545,32864
17.09480,31848
17.10413,29759
17.11347,31692
17.12282,34095
17.13215,36643
17.14148,36087
17.15083,30636
17.16017,30155
17.16950,29934
17.17885,28212
17.18818,28293
17.19752,27827
17.20687,26462
17.21620,26757
17.22553,26454
17.23488,26651
17.24422,29449
17.25357,31398
17.26290,34349
17.27223,33836
17.28158,33312
17.29092,34702
17.30025,34600
17.30960,39031
17.31893,41093
17.32827,38733
17.33762,36502
17.34695,33872
17.35628,32282
17.36563,44522
17.37497,77866
17.38430,101300
17.39365,81016
17.40298,54892
17.41233,40157
17.42167,38252
17.43100,39229
17.44035,36931
17.44968,35149
17.45902,33542
17.46837,32876
17.47770,58133
17.48703,222548
17.49638,851439
17.50572,1787965
17.51505,1787592
17.52440,888532
17.53373,248167
17.54307,70014
17.55242,47660
17.56175,40184
17.57108,40468
17.58043,41088
17.58977,40181
17.59912,37152
17.60845,32787
17.61778,31963
17.62713,34455
17.63647,33357
17.64580,37508
17.65515,40177
17.66448,41032
17.67382,43382
17.68317,46134
17.69250,46955
17.70183,47401
17.71118,43627
17.72052,37469
17.72985,35130
17.73920,34382
17.74853,40846
17.75787,43617
17.76722,43552
17.77655,37199
17.78590,32352
17.79523,28137
17.80457,30509
17.81392,31735
17.82325,33199
17.83258,32298
17.84193,35929
17.85127,42254
17.86060,43260
17.86995,40436
17.87928,39420
17.88862,36056
17.89797,31175
17.90730,29968
17.91663,27588
17.92598,27863
17.93532,27017
17.94465,31399
17.95400,35606
17.96333,37419
17.97268,35014
17.98202,32029
17.99135,29936
18.00070,29590
18.01003,29311
18.01937,29206
18.02872,31842
18.03805,33068
18.04738,38702
18.05673,42913
18.06607,37037
18.07540,30768
18.08475,31132
18.09408,30877
18.10342,33001
18.11277,32006
18.12210,33677
18.13143,31573
18.14078,34401
18.15012,33866
18.15947,33522
18.16880,31341
18.17813,30467
18.18748,29609
18.19682,28727
18.20615,28815
18.21550,30276
18.22483,28462
18.23417,28835
18.24352,27250
18.25285,26962
18.26218,28879
18.27153,33099
18.28087,34909
18.29020,34426
18.29955,37872
18.30888,37479
18.31822,34684
18.32757,36326
18.33690,40473
18.34625,46828
18.35558,46840
18.36492,39553
18.37427,33379
18.38360,32035
18.39293,32035
18.40228,31599
18.41162,33615
18.42095,35353
18.43030,38627
18.43963,41987
18.44897,42023
18.45832,34421
18.46765,31146
18.47698,32262
18.48633,43046
18.49567,57172
18.50502,67768
18.51435,68470
18.52368,57858
18.53303,46324
18.54237,42659
18.55170,42358
18.56105,37119
18.57038,34399
18.57972,33810
18.58907,32680
18.59840,35349
18.60773,38681
18.61708,40511
18.62642,39644
18.63575,41149
18.64510,36624
18.65443,34550
18.66377,36430
18.67312,37297
18.68245,35189
18.69180,35190
18.70113,39286
18.71047,41881
18.71982,43249
18.72915,42264
18.73848,37454
18.74783,37065
18.75717,33268
18.76650,32117
18.77585,29641
18.78518,31563
18.79452,30770
18.80387,34534
18.81320,34973
18.82253,32960
18.83188,31080
18.84122,31453
18.85055,31479
18.85990,31409
18.86923,28790
18.87858,28521
18.88792,32855
18.89725,37077
18.90660,46524
18.91593,44630
18.92527,42744
18.93462,40950
18.94395,45894
18.95328,47444
18.96263,47419
18.97197,42569
18.98130,37358
18.99065,35206
18.99998,34312
19.00932,33174
19.01867,35036
19.02800,41868
19.03733,52849
19.04668,65388
19.05602,72975
19.06537,77328
19.07470,101489
19.08403,120706
19.09338,104198
19.10272,68223
19.11205,45667
19.12140,37594
19.13073,33682
19.14007,33084
19.14942,31341
19.15875,31148
19.16808,30228
19.17743,33832
19.18677,36661
19.19610,37740
19.20545,41672
19.21478,42277
19.22413,40020
19.23347,37907
19.24280,34061
19.25215,32220
19.26148,31064
19.27082,34885
19.28017,34616
19.28950,38452
19.29883,43906
19.30818,48060
19.31752,51607
19.32685,42973
19.33620,37724
19.34553,34027
19.35487,31217
19.36422,31393
19.37355,31367
19.38288,33497
19.39223,35684
19.40157,38098
19.41092,36930
19.42025,32034
19.42958,31131
19.43893,30268
19.44827,28303
19.45760,29107
19.46695,33106
19.47628,35479
19.48562,36160
19.49497,34544
19.50430,32295
19.51363,29797
19.52298,28759
19.53232,29819
19.54165,28103
19.55100,29255
19.56033,29290
19.56967,33653
19.57902,34893
19.58835,32813
19.59770,33280
19.60703,31525
19.61637,35013
19.62572,36166
19.63505,36970
19.64438,38337
19.65373,32338
19.66307,30234
19.67240,32916
19.68175,30931
19.69108,28225
19.70042,31706
19.70977,37845
19.71910,47096
19.72843,55276
19.73778,50450
19.74712,41188
19.75645,35456
19.76580,34748
19.77513,36200
19.78448,35138
19.79382,35571
19.80315,34762
19.81250,33740
19.82183,31768
19.83117,32657
19.84052,31018
19.84985,31790
19.85918,35954
19.86853,44968
19.87787,47930
19.88720,43457
19.89655,34785
19.90588,33393
19.91522,33930
19.92457,33580
19.93390,33066
19.94323,31266
19.95258,32838
19.96192,34840
19.97127,30045
19.98060,29834
19.98993,28395
19.99928,28937
20.00862,30383
20.01795,33654
20.02730,35680
20.03663,36232
20.04597,34463
20.05532,32285
20.06465,30648
20.07398,33016
20.08333,33122
20.09267,31745
20.10200,28260
20.11135,29074
20.12068,26705
20.13003,30885
20.13937,35587
20.14870,37949
20.15805,37541
20.16738,34104
20.17672,31253
20.18607,29049
20.19540,28819
20.20473,28733
20.21408,28550
20.22342,28278
20.23275,28888
20.24210,29425
20.25143,29237
20.26077,29231
20.27012,29378
20.27945,30786
20.28878,29151
20.29813,29028
20.30747,28169
20.31682,25066
20.32615,26472
20.33548,26490
20.34483,26946
20.35417,29777
20.36350,30486
20.37285,28302
20.38218,28661
20.39152,27391
20.40087,25697
20.41020,27333
20.41953,26910
20.42888,29037
20.43822,28177
20.44755,29149
20.45690,31585
20.46623,34469
20.47557,36418
20.48492,31637
20.49425,28289
20.50360,27724
20.51293,27669
20.52227,28494
20.53162,27378
20.54095,32192
20.55028,47580
20.55963,98740
20.56897,193714
20.57830,226440
20.58765,144332
20.59698,68172
20.60632,42758
20.61567,38226
20.62500,36431
20.63433,34131
20.64368,34397
20.65302,34812
20.66235,36957
20.67170,40209
20.68103,38143
20.69038,36285
20.69972,36659
20.70905,34190
20.71840,35800
20.72773,34354
20.73707,32179
20.74642,31570
20.75575,31838
20.76508,30596
20.77443,31266
20.78377,32346
20.79310,35606
20.80245,34381
20.81178,33631
20.82112,31217
20.83047,29767
20.83980,28365
20.84915,28294
20.85848,28679
20.86782,28241
20.87717,30633
20.88650,30742
20.89583,31217
20.90518,34421
20.91452,30578
20.92385,28320
20.93320,28689
20.94253,26816
20.95187,27005
20.96122,28094
20.97055,25985
20.97988,28654
20.98923,27893
20.99857,27549
21.00790,25851
21.01725,26601
21.02658,28619
21.03593,26839
21.04527,28719
21.05460,28609
21.06395,28011
21.07328,28327
21.08262,29664
21.09197,30934
21.10130,31173
21.11063,31826
21.11998,29221
21.12932,27192
21.13865,28168
21.14800,29384
21.15733,29689
21.16667,31179
21.17602,36257
21.18535,40510
21.19468,38930
21.20403,40833
21.21337,40062
21.22272,35916
21.23205,33402
21.24138,30074
21.25073,32146
21.26007,35294
21.26940,38126
21.27875,42412
21.28808,41514
21.29742,36570
21.30677,33579
21.31610,31429
21.32543,30617
21.33478,30291
21.34412,29476
21.35345,29706
21.36280,29104
21.37213,28419
21.38147,27444
21.39082,30129
21.40015,32551
21.40950,33308
21.41883,34210
21.42817,32561
21.43752,30755
21.44685,28042
21.45618,28110
21.46553,30620
21.47487,31218
21.48420,32398
21.49355,30281
21.50288,30047
21.51222,27931
21.52157,26755
21.53090,27515
21.54023,28205
21.54958,28038
21.55892,32595
21.56825,35427
21.57760,39641
21.58693,41605
21.59628,37006
21.60562,33622
21.61495,32597
21.62430,32357
21.63363,32376
21.64297,31029
21.65232,31162
21.66165,30081
21.67098,33806
21.68033,32874
21.68967,32692
21.69900,31972
21.70835,33576
21.71768,32572
21.72702,36809
21.73637,34099
21.74570,31945
21.75505,31229
21.76438,30085
21.77372,29599
21.78307,28093
21.79240,29124
21.80173,31631
21.81108,33274
21.82042,33905
21.82975,33711
21.83910,33524
21.84843,33058
21.85777,31867
21.86712,34180
21.87645,39468
21.88578,41714
21.89513,41957
21.90447,39561
21.91380,38175
21.92315,35928
21.93248,34729
21.94183,32770
21.95117,32961
21.96050,36875
21.96985,42253
21.97918,51085
21.98852,53597
21.99787,45681
22.00720,38350
22.01653,35716
22.02588,33675
22.03522,34660
22.04455,34913
22.05390,34654
22.06323,36290
22.07257,37239
22.08192,36206
22.09125,36522
22.10058,34364
22.10993,32463
22.11927,32191
22.12862,32532
22.13795,33650
22.14728,37150
22.15663,39038
22.16597,42241
22.17530,40941
22.18465,36001
22.19398,32805
22.20332,32444
22.21267,30832
22.22200,30221
22.23133,32155
22.24068,32102
22.25002,34921
22.25935,31952
22.26870,33932
22.27803,33808
22.28737,39832
22.29672,36498
22.30605,34131
22.31540,30035
22.32473,31635
22.33407,32049
22.34342,32795
22.35275,33016
22.36208,32316
22.37143,31947
22.38077,31750
22.39010,32378
22.39945,27818
22.40878,27953
22.41812,27216
22.42747,29418
22.43680,29388
22.44613,30893
22.45548,29805
22.46482,31614
22.47417,30773
22.48350,29065
22.49283,30397
22.50218,30457
22.51152,29990
22.52085,30375
22.53020,31239
22.53953,27639
22.54887,29426
22.55822,28592
22.56755,31235
22.57688,33104
22.58623,30550
22.59557,30212
22.60490,30738
22.61425,29178
22.62358,31658
22.63292,30487
22.64227,28698
22.65160,28923
22.66095,28098
22.67028,29127
22.67962,31819
22.68897,33579
22.69830,33921
22.70763,31874
22.71698,31135
22.72632,32002
22.73565,34267
22.74500,33867
22.75433,34827
22.76367,34017
22.77302,35120
22.78235,31313
22.79168,29425
22.80103,29783
22.81037,31065
22.81970,30321
22.82905,29105
22.83838,30784
22.84773,31076
22.85707,31465
22.86640,29652
22.87575,29970
22.88508,29757
22.89442,31307
22.90377,29805
22.91310,29051
22.92243,31131
22.93178,29136
22.94112,30936
22.95045,32402
22.95980,30792
22.96913,31450
22.97847,31081
22.98782,29805
22.99715,31038
23.00648,28697
23.01583,28776
23.02517,27710
23.03452,29720
23.04385,28730
23.05318,32090
23.06253,30021
23.07187,28724
23.08120,28977
23.09055,28524
23.09988,27965
23.10922,27464
23.11857,26455
23.12790,28220
23.13723,28522
23.14658,26740
23.15592,27847
23.16525,28568
23.17460,27390
23.18393,28405
23.19327,28848
23.20262,28921
23.21195,27101
23.22130,27635
23.23063,27448
23.23997,28342
23.24932,29114
23.25865,29132
23.26798,28098
23.27733,29251
23.28667,30217
23.29600,28693
23.30535,30513
23.31468,35586
23.32402,42080
23.33337,47506
23.34270,42437
23.35203,34126
23.36138,34182
23.37072,31960
23.38005,31609
23.38940,30584
23.39873,31085
23.40808,31410
23.41742,28369
23.42675,29527
23.43610,29254
23.44543,29729
23.45477,31785
23.46412,31872
23.47345,30570
23.48278,29961
23.49213,28418
23.50147,29900
23.51080,28365
23.52015,29325
23.52948,29896
23.53882,29864
23.54817,29420
23.55750,29970
23.56685,29738
23.57618,28442
23.58552,28271
23.59487,29303
23.60420,27712
23.61353,29468
23.62288,27869
23.63222,26784
23.64155,28339
23.65090,27730
23.66023,29323
23.66957,29602
23.67892,28047
23.68825,28580
23.69758,28987
23.70693,28623
23.71627,32498
23.72560,36503
23.73495,37198
23.74428,35775
23.75363,31761
23.76297,31630
23.77230,29890
23.78165,29480
23.79098,28183
23.80032,29135
23.80967,29075
23.81900,29240
23.82833,28170
23.83768,28326
23.84702,30798
23.85635,28663
23.86570,28984
23.87503,30834
23.88437,28870
23.89372,28985
23.90305,28345
23.91238,28526
23.92173,29129
23.93107,28640
23.94042,29634
23.94975,30210
23.95908,28562
23.96843,28866
23.97777,27885
23.98710,28530
23.99645,28458
24.00578,28385
24.01512,27806
24.02447,29086
24.03380,26990
24.04313,29193
24.05248,28664
24.06182,26859
24.07115,28143
24.08050,29690
24.08983,27635
24.09917,26941
24.10852,28436
24.11785,28205
24.12720,27779
24.13653,27651
24.14587,28917
24.15522,29580
24.16455,29396
24.17388,29398
24.18323,30586
24.19257,28022
24.20190,27963
24.21125,28226
24.22058,27554
24.22992,29490
24.23927,29171
24.24860,28429
24.25793,28954
24.26728,29884
24.27662,27942
24.28597,28006
24.29530,28833
24.30463,27847
24.31398,30551
24.32332,33518
24.33265,37072
24.34200,32584
24.35133,30178
24.36067,29844
24.37002,29841
24.37935,29474
24.38868,30071
24.39803,30043
24.40737,29333
24.41670,29023
24.42605,27903
24.43538,28672
24.44472,28121
24.45407,28453
24.46340,28444
24.47275,29938
24.48208,30951
24.49142,30529
24.50077,30465
24.51010,30459
24.51943,30165
24.52878,30408
24.53812,31314
24.54745,31412
24.55680,31276
24.56613,32106
24.57547,30907
24.58482,30709
24.59415,30027
24.60348,31377
24.61283,32133
24.62217,31994
24.63150,32122
24.64085,31122
24.65018,29618
24.65953,33259
24.66887,32091
24.67820,31834
24.68755,32378
24.69688,28214
24.70622,30988
24.71557,30709
24.72490,30943
24.73423,30753
24.74358,31477
24.75292,31542
24.76225,32540
24.77160,31167
24.78093,31066
24.79027,33337
24.79962,33523
24.80895,33335
24.81828,32800
24.82763,33802
24.83697,33944
24.84632,32647
24.85565,33305
24.86498,33875
24.87433,32380
24.88367,34514
24.89300,34932
24.90235,36994
24.91168,34266
24.92102,34233
24.93037,33084
24.93970,33341
24.94903,35541
24.95838,34520
24.96772,35349
24.97705,31542
24.98640,32364
24.99573,34420
25.00507,31718
25.01442,34268
25.02375,33130
25.03310,32639
25.04243,31314
25.05177,33750
25.06112,33271
25.07045,32419
25.07978,31177
25.08913,32267
25.09847,30211
25.10780,31213
25.11715,32193
25.12648,32897
25.13582,30800
25.14517,33830
25.15450,33440
25.16383,35026
25.17318,33350
25.18252,32612
25.19185,31849
25.20120,32325
25.21053,32926
25.21988,33611
25.22922,32940
25.23855,32412
25.24790,33092
25.25723,35174
25.26657,33944
25.27592,33308
25.28525,33458
25.29458,33549
25.30393,32755
25.31327,32702
25.32260,32966
25.33195,34779
25.34128,33651
25.35062,37356
25.35997,38923
25.36930,40027
25.37865,40696
25.38798,39070
25.39732,40138
25.40667,39352
25.41600,38956
25.42533,36805
25.43468,39883
25.44402,37327
25.45335,35831
25.46270,36572
25.47203,37753
25.48137,41337
25.49072,44821
25.50005,43308
25.50938,42037
25.51873,38849
25.52807,37856
25.53740,35306
25.54675,34711
25.55608,37064
25.56543,36655
25.57477,35221
25.58410,35620
25.59345,34525
25.60278,37005
25.61212,38305
25.62147,36200
25.63080,38030
25.64013,40443
25.64948,43778
25.65882,47602
25.66815,43577
25.67750,41635
25.68683,38706
25.69617,35895
25.70552,37029
25.71485,37244
25.72418,37127
25.73353,37216
25.74287,37510
25.75222,38813
25.76155,37439
25.77088,37439
25.78023,37465
25.78957,38201
25.79890,38663
25.80825,38893
25.81758,38713
25.82692,41684
25.83627,40977
25.84560,39747
25.85493,37686
25.86428,38111
25.87362,37731
25.88295,37801
25.89230,38424
25.90163,37484
25.91097,38253
25.92032,37852
25.92965,38664
25.93900,38209
25.94833,39792
25.95767,37489
25.96702,36549
25.97635,38862
25.98568,37539
25.99503,38840
26.00437,36993
26.01370,37682
26.02305,38000
26.03238,38641
26.04172,39175
26.05107,38511
26.06040,37664
26.06973,39866
26.07908,38537
26.08842,39495
26.09777,40387
26.10710,39866
26.11643,41282
26.12578,40889
26.13512,40740
26.14445,43936
26.15380,44255
26.16313,42783
26.17247,41559
26.18182,41829
26.19115,39991
26.20048,39778
26.20983,39720
26.21917,40650
26.22850,40020
26.23785,40237
26.24718,42076
26.25652,40237
26.26587,41107
26.27520,40959
26.28455,41648
26.29388,41728
26.30322,44526
26.31257,42393
26.32190,41682
26.33123,43114
26.34058,42215
26.34992,41487
26.35925,42586
26.36860,43104
26.37793,41488
26.38727,41776
26.39662,41743
26.40595,42543
26.41528,43437
26.42463,41397
26.43397,43311
26.44330,43569
26.45265,44923
26.46198,44135
26.47133,44661
26.48067,43490
26.49000,45153
26.49935,47195
26.50868,45181
26.51802,43852
26.52737,44121
26.53670,45109
26.54603,42605
26.55538,43780
26.56472,44295
26.57405,45421
26.58340,47801
26.59273,46758
26.60207,47260
26.61142,44947
26.62075,44833
26.63008,46276
26.63943,45881
26.64877,45399
26.65812,48198
26.66745,44949
26.67678,48335
26.68613,47612
26.69547,44584
26.70480,46253
26.71415,47185
26.72348,45395
26.73282,44080
26.74217,46163
26.75150,48674
26.76083,47500
26.77018,47595
26.77952,49713
26.78885,48830
26.79820,50299
26.80753,48562
26.81687,49554
26.82622,48466
26.83555,50310
26.84490,48845
26.85423,51772
26.86357,49564
26.87292,48791
26.88225,47072
26.89158,50981
26.90093,52235
26.91027,50640
26.91960,48526
26.92895,50714
26.93828,51287
26.94762,51262
26.95697,50734
26.96630,49833
26.97563,50368
26.98498,50410
26.99432,51844
27.00367,55002
27.01300,51238
27.02233,50679
27.03168,52326
27.04102,50741
27.05035,52533
27.05970,50098
27.06903,51701
27.07837,52422
27.08772,52329
27.09705,51999
27.10638,53012
27.11573,53305
27.12507,52444
27.13440,52689
27.14375,52860
27.15308,51064
27.16242,56373
27.17177,58003
27.18110,55169
27.19045,52427
27.19978,56783
27.20912,53684
27.21847,55274
27.22780,55742
27.23713,53557
27.24648,53685
27.25582,59341
27.26515,58902
27.27450,58184
27.28383,55164
27.29317,56760
27.30252,56313
27.31185,55572
27.32118,57588
27.33053,57063
27.33987,57787
27.34920,56242
27.35855,58550
27.36788,59647
27.37723,57406
27.38657,60955
27.39590,59762
27.40525,60748
27.41458,59806
27.42392,62446
27.43327,64238
27.44260,60732
27.45193,61296
27.46128,60546
27.47062,64206
27.47995,60540
27.48930,61239
27.49863,63613
27.50797,62763
27.51732,61751
27.52665,63607
27.53598,61689
27.54533,63164
27.55467,64187
27.56402,63017
27.57335,63440
27.58268,62973
27.59203,63318
27.60137,62250
27.61070,64340
27.62005,65156
27.62938,63350
27.63872,64095
27.64807,66468
27.65740,64887
27.66673,64665
27.67608,65636
27.68542,64927
27.69475,67351
27.70410,64037
27.71343,64777
27.72278,66819
27.73212,67335
27.74145,69331
27.75080,67460
27.76013,67202
27.76947,65695
27.77882,69301
27.78815,70572
27.79748,70217
27.80683,68225
27.81617,70221
27.82550,70907
27.83485,69871
27.84418,69698
27.85352,70730
27.86287,70320
27.87220,69654
27.88153,70578
27.89088,68046
27.90022,69938
27.90957,70968
27.91890,71720
27.92823,67523
27.93758,71950
27.94692,69938
27.95625,72081
27.96560,74367
27.97493,69659
27.98427,72367
27.99362,75404
28.00295,74594
28.01228,72811
28.02163,73898
28.03097,71218
28.04030,75082
28.04965,74703
28.05898,74598
28.06832,72504
28.07767,74609
28.08700,74837
28.09635,76610
28.10568,77390
28.11502,79448
28.12437,76968
28.13370,75932
28.14303,81266
28.15238,79066
28.16172,78566
28.17105,76788
28.18040,78338
28.18973,78719
28.19907,76970
28.20842,79393
28.21775,79176
28.22708,79227
28.23643,78994
28.24577,81214
28.25510,80594
28.26445,78297
28.27378,79229
28.28313,80357
28.29247,80739
28.30180,79977
28.31115,82510
28.32048,80604
28.32982,81539
28.33917,81853
28.34850,81463
28.35783,83355
28.36718,83115
28.37652,82429
28.38585,84059
28.39520,85771
28.40453,85657
28.41387,83607
28.42322,87243
28.43255,85669
28.44188,84520
28.45123,87314
28.46057,85824
28.46992,90178
28.47925,86085
28.48858,88742
28.49793,86636
28.50727,90044
28.51660,87664
28.52595,87423
28.53528,85348
28.54462,87401
28.55397,88391
28.56330,85729
28.57263,88995
28.58198,89523
28.59132,90523
28.60065,90958
28.61000,91172
28.61933,92426
28.62867,92349
28.63802,91510
28.64735,92995
28.65670,95445
28.66603,99622
28.67537,105516
28.68472,104886
28.69405,106798
28.70338,102377
28.71273,101296
28.72207,99816
28.73140,99250
28.74075,101517
28.75008,100033
28.75942,101040
28.76877,99207
28.77810,104323
28.78743,101706
28.79678,99165
28.80612,100169
28.81547,101017
28.82480,99494
28.83413,103944
28.84348,101699
28.85282,104828
28.86215,102578
28.87150,101921
28.88083,100088
28.89017,104523
28.89952,102764
28.90885,104670
28.91818,105156
28.92753,104412
28.93687,103603
28.94620,106495
28.95555,107247
28.96488,107064
28.97422,107515
28.98357,106876
28.99290,103505
29.00225,107142
29.01158,109910
29.02092,106672
29.03027,109943
29.03960,112316
29.04893,113067
29.05828,111138
29.06762,111976
29.07695,109415
29.08630,109503
29.09563,111616
29.10497,111542
29.11432,114797
29.12365,114140
29.13298,112637
29.14233,111385
29.15167,112015
29.16100,115767
29.17035,114389
29.17968,116549
29.18903,116824
29.19837,115505
29.20770,117010
29.21705,114772
29.22638,114451
29.23572,116821
29.24507,120099
29.25440,115962
29.26373,116004
29.27308,115742
29.28242,118481
29.29175,114887
29.30110,122338
29.31043,119219
29.31977,118323
29.32912,116400
29.33845,117007
29.34778,115842
29.35713,119725
29.36647,117541
29.37582,118314
29.38515,119085
29.39448,120126
29.40383,120387
29.41317,120064
29.42250,118034
29.43185,120211
29.44118,122193
29.45052,127812
29.45987,131168
29.46920,126716
29.47853,126081
29.48788,126270
29.49722,127794
29.50655,123676
29.51590,126823
29.52523,126275
29.53458,125812
29.54392,125091
29.55325,127312
29.56260,125662
29.57193,120830
29.58127,124853
29.59062,127190
29.59995,128153
29.60928,124794
29.61863,129074
29.62797,126640
29.63730,126768
29.64665,126338
29.65598,128672
29.66532,127359
29.67467,128603
29.68400,125920
29.69333,128591
29.70268,127819
29.71202,126079
29.72137,129597
29.73070,131071
29.74003,130244
29.74938,127676
29.75872,130163
29.76805,130122
29.77740,126146
29.78673,132977
29.79607,130187
29.80542,127895
29.81475,127144
29.82408,129760
29.83343,128523
29.84277,131019
29.85210,127154
29.86145,124884
29.87078,130147
29.88012,129649
29.88947,131309
29.89880,130518
29.90815,132652
29.91748,134178
29.92682,135261
29.93617,133056
29.94550,133715
29.95483,132873
29.96418,132532
29.97352,129938
29.98285,131783
29.99220,132502
30.00153,131713
30.01087,135072
30.02022,134200
30.02955,132256
30.03888,133273
30.04823,129247
30.05757,133684
30.06690,136510
30.07625,138301
30.08558,132279
30.09493,135046
30.10427,137440
30.11360,136937
30.12295,134567
30.13228,137912
30.14162,137166
30.15097,133459
30.16030,137307
30.16963,136349
30.17898,135453
30.18832,136288
30.19765,134716
30.20700,133340
30.21633,136910
30.22567,135799
30.23502,138592
30.24435,137353
30.25368,135451
30.26303,138535
30.27237,137627
30.28172,138247
30.29105,139235
30.30038,140736
30.30973,140580
30.31907,138646
30.32840,135106
30.33775,136931
30.34708,139489
30.35642,139868
30.36577,142596
30.37510,140822
30.38443,145856
30.39378,142131
30.40312,145202
30.41245,147423
30.42180,145074
30.43113,140631
30.44048,141047
30.44982,138318
30.45915,137548
30.46850,139789
30.47783,139315
30.48717,140386
30.49652,141360
30.50585,137826
30.51518,138920
30.52453,138149
30.53387,140117
30.54320,142064
30.55255,141040
30.56188,139434
30.57122,144932
30.58057,143723
30.58990,147349
30.59923,146295
30.60858,147090
30.61792,149771
30.62727,154644
30.63660,149969
30.64593,154735
30.65528,154362
30.66462,157043
30.67395,154134
30.68330,156493
30.69263,155376
30.70197,157858
30.71132,151708
30.72065,154293
30.72998,148497
30.73933,154571
30.74867,153238
30.75800,149691
30.76735,149236
30.77668,148887
30.78602,150111
30.79537,149653
30.80470,151563
30.81405,149916
30.82338,152846
30.83272,150667
30.84207,151436
30.85140,150519
30.86073,151094
30.87008,153277
30.87942,152542
30.88875,155123
30.89810,154488
30.90743,158528
30.91677,159883
30.92612,154368
30.93545,156323
30.94478,155256
30.95413,156915
30.96347,160482
30.97280,156119
30.98215,152987
30.99148,154790
31.00083,151993
31.01017,154547
31.01950,155295
31.02885,148964
31.03818,150080
31.04752,151242
31.05687,151736
31.06620,152093
31.07553,153557
31.08488,149731
31.09422,151260
31.10355,149364
31.11290,151803
31.12223,152726
31.13157,151984
31.14092,153366
31.15025,151750
31.15960,150337
31.16893,151683
31.17827,150488
31.18762,148520
31.19695,154909
31.20628,148013
31.21563,150392
31.22497,153337
31.23430,156212
31.24365,153847
31.25298,152917
31.26232,154727
31.27167,152455
31.28100,152596
31.29033,154110
31.29968,154799
31.30902,155185
31.31835,154826
31.32770,154333
31.33703,152240
31.34638,151390
31.35572,152500
31.36505,155390
