D:\数据\20220412\TEST1-ZRHX-2.D Tue Apr 12 11:42:51 2022
Start of data points
0.09762,22603
0.10697,23449
0.11630,22603
0.12563,23086
0.13498,22725
0.14432,22635
0.15365,24834
0.16300,23070
0.17233,23700
0.18167,22453
0.19102,23735
0.20035,23458
0.20970,23100
0.21903,22100
0.22837,22280
0.23772,22630
0.24705,21572
0.25638,21740
0.26573,22130
0.27507,21502
0.28440,20889
0.29375,21729
0.30308,20677
0.31242,20680
0.32177,21729
0.33110,21523
0.34043,21173
0.34978,21123
0.35912,20464
0.36845,21154
0.37780,19884
0.38713,20688
0.39648,21853
0.40582,21072
0.41515,20756
0.42450,20561
0.43383,20324
0.44317,17985
0.45252,14913
0.46185,11710
0.47118,8729
0.48053,8096
0.48987,8080
0.49920,8408
0.50855,7936
0.51788,7951
0.52722,8050
0.53657,6831
0.54590,6714
0.55525,6876
0.56458,6915
0.57392,7261
0.58327,6911
0.59260,7272
0.60193,6194
0.61128,6468
0.62062,6870
0.62995,6208
0.63930,6853
0.64863,6231
0.65797,5541
0.66732,6005
0.67665,6216
0.68598,6162
0.69533,5629
0.70467,7017
0.71400,6518
0.72335,6319
0.73268,7053
0.74203,6902
0.75137,5303
0.76070,6377
0.77005,5993
0.77938,5557
0.78872,6044
0.79807,5964
0.80740,6220
0.81673,6750
0.82608,6161
0.83542,5962
0.84475,6169
0.85410,6026
0.86343,6384
0.87277,5838
0.88212,6397
0.89145,5558
0.90078,5703
0.91013,6304
0.91947,5518
0.92882,6505
0.93815,5131
0.94748,5809
0.95683,6019
0.96617,6220
0.97550,6055
0.98485,5900
0.99418,5892
1.00352,5585
1.01287,6010
1.02220,5728
1.03153,5800
1.04088,5458
1.05022,5537
1.05955,5738
1.06890,5940
1.07823,5879
1.08758,5097
1.09692,5314
1.10625,5625
1.11560,5495
1.12493,5431
1.13427,5651
1.14362,5816
1.15295,6167
1.16228,6357
1.17163,5448
1.18097,5366
1.19030,5148
1.19965,5354
1.20898,5200
1.21832,5871
1.22767,5582
1.23700,5410
1.24633,5693
1.25568,5120
1.26502,5869
1.27437,5629
1.28370,5660
1.29303,6601
1.30238,5306
1.31172,5006
1.32105,5594
1.33040,5356
1.33973,6056
1.34907,5580
1.35842,5225
1.36775,5021
1.37708,5914
1.38643,5033
1.39577,6076
1.40510,5435
1.41445,5746
1.42378,5387
1.43312,5301
1.44247,5745
1.45180,5874
1.46115,5793
1.47048,5327
1.47982,5354
1.48917,4883
1.49850,5696
1.50783,5411
1.51718,5179
1.52652,4981
1.53585,5080
1.54520,5734
1.55453,5079
1.56387,4831
1.57322,5527
1.58255,5388
1.59188,6764
1.60123,9484
1.61057,13584
1.61990,15948
1.62925,22477
1.63858,27453
1.64793,39605
1.65727,52940
1.66660,61755
1.67595,58854
1.68528,48525
1.69462,37690
1.70397,24958
1.71330,16986
1.72263,17393
1.73198,18068
1.74132,20842
1.75065,22982
1.76000,23088
1.76933,24360
1.77867,25580
1.78802,23077
1.79735,23851
1.80668,26525
1.81603,25715
1.82537,25921
1.83472,25788
1.84405,25587
1.85338,26604
1.86273,28553
1.87207,33368
1.88140,47986
1.89075,76132
1.90008,102242
1.90942,114699
1.91877,123233
1.92810,135513
1.93743,156633
1.94678,169578
1.95612,173054
1.96545,165216
1.97480,140115
1.98413,116714
1.99347,103283
2.00282,98384
2.01215,98813
2.02150,115923
2.03083,140019
2.04017,127398
2.04952,105818
2.05885,92808
2.06818,79416
2.07753,73523
2.08687,69194
2.09620,61215
2.10555,61905
2.11488,70812
2.12422,123909
2.13357,250924
2.14290,359743
2.15223,316943
2.16158,228356
2.17092,150960
2.18027,131313
2.18960,233298
2.19893,331219
2.20828,246999
2.21762,149943
2.22695,130234
2.23630,212899
2.24563,744952
2.25497,2624257
2.26432,4074654
2.27365,3770955
2.28298,2692440
2.29233,1616129
2.30167,1163921
2.31100,3267067
2.32035,7994286
2.32968,8584616
2.33902,5128398
2.34837,2293935
2.35770,997459
2.36705,500407
2.37638,305838
2.38572,209651
2.39507,148658
2.40440,125631
2.41373,117897
2.42308,119559
2.43242,110133
2.44175,92423
2.45110,80179
2.46043,73593
2.46977,75956
2.47912,73617
2.48845,71349
2.49778,65696
2.50713,62201
2.51647,61159
2.52580,58560
2.53515,57130
2.54448,65249
2.55383,113380
2.56317,275620
2.57250,346193
2.58185,279598
2.59118,196932
2.60052,156983
2.60987,148868
2.61920,185359
2.62853,203375
2.63788,178935
2.64722,165921
2.65655,151540
2.66590,111163
2.67523,82264
2.68457,66140
2.69392,59234
2.70325,67669
2.71258,115163
2.72193,249304
2.73127,346413
2.74062,309336
2.74995,264933
2.75928,279839
2.76863,396225
2.77797,609019
2.78730,694001
2.79665,565807
2.80598,366593
2.81532,231791
2.82467,164730
2.83400,144347
2.84333,293155
2.85268,836376
2.86202,1425580
2.87135,1278618
2.88070,715114
2.89003,342366
2.89938,177262
2.90872,115526
2.91805,87908
2.92740,79007
2.93673,68504
2.94607,64133
2.95542,58050
2.96475,57392
2.97408,56457
2.98343,58976
2.99277,63328
3.00210,70631
3.01145,94475
3.02078,282596
3.03012,584103
3.03947,568603
3.04880,373674
3.05813,236416
3.06748,173124
3.07682,140102
3.08617,103083
3.09550,79072
3.10483,63108
3.11418,57254
3.12352,54755
3.13285,55160
3.14220,64251
3.15153,105568
3.16087,181419
3.17022,201015
3.17955,143001
3.18888,88436
3.19823,63192
3.20757,53895
3.21690,49987
3.22625,46109
3.23558,44817
3.24492,44106
3.25427,44712
3.26360,45982
3.27295,44707
3.28228,43675
3.29162,44464
3.30097,46394
3.31030,46603
3.31963,43637
3.32898,43973
3.33832,43952
3.34765,42356
3.35700,41804
3.36633,41766
3.37567,40915
3.38502,38881
3.39435,42559
3.40368,48329
3.41303,61946
3.42237,65076
3.43170,63132
3.44105,55367
3.45038,50690
3.45973,48465
3.46907,44878
3.47840,43187
3.48775,43404
3.49708,43228
3.50642,42764
3.51577,40998
3.52510,40688
3.53443,40546
3.54378,61423
3.55312,131130
3.56245,238899
3.57180,287545
3.58113,228092
3.59047,165687
3.59982,130836
3.60915,105668
3.61848,81021
3.62783,67820
3.63717,61569
3.64652,53639
3.65585,51750
3.66518,49499
3.67453,50331
3.68387,48025
3.69320,44494
3.70255,42636
3.71188,48982
3.72122,58504
3.73057,58776
3.73990,50069
3.74923,43556
3.75858,42428
3.76792,37982
3.77725,38186
3.78660,41611
3.79593,45369
3.80528,46885
3.81462,54273
3.82395,55269
3.83330,54438
3.84263,53515
3.85197,50509
3.86132,46532
3.87065,43325
3.87998,48940
3.88933,58236
3.89867,71835
3.90800,73412
3.91735,74391
3.92668,91333
3.93602,109225
3.94537,105818
3.95470,103423
3.96403,101451
3.97338,102134
3.98272,104670
3.99207,108789
4.00140,118457
4.01073,127533
4.02008,141906
4.02942,179121
4.03875,240316
4.04810,280556
4.05743,249944
4.06677,136692
4.07612,103809
4.08545,100034
4.09478,91790
4.10413,78077
4.11347,64279
4.12280,54259
4.13215,50202
4.14148,49111
4.15082,48265
4.16017,46481
4.16950,45052
4.17885,42979
4.18818,41741
4.19752,45464
4.20687,47073
4.21620,46064
4.22553,44508
4.23488,44162
4.24422,43815
4.25355,40994
4.26290,57986
4.27223,76577
4.28157,79254
4.29092,67583
4.30025,61463
4.30958,59189
4.31893,60501
4.32827,62103
4.33760,56079
4.34695,50881
4.35628,44600
4.36563,45247
4.37497,45523
4.38430,43205
4.39365,39738
4.40298,40258
4.41232,38522
4.42167,38968
4.43100,39027
4.44033,36855
4.44968,39767
4.45902,44569
4.46835,52381
4.47770,66842
4.48703,65849
4.49637,52916
4.50572,45342
4.51505,40201
4.52440,38672
4.53373,39119
4.54307,37804
4.55242,39327
4.56175,37542
4.57108,36993
4.58043,37244
4.58977,39645
4.59910,40526
4.60845,41931
4.61778,39141
4.62712,38694
4.63647,41700
4.64580,46595
4.65513,43927
4.66448,41774
4.67382,42116
4.68315,43355
4.69250,51171
4.70183,55358
4.71118,53413
4.72052,48438
4.72985,45377
4.73920,38891
4.74853,36394
4.75787,38067
4.76722,39207
4.77655,39782
4.78588,38849
4.79523,38799
4.80457,42191
4.81390,43774
4.82325,42695
4.83258,39903
4.84192,37905
4.85127,36614
4.86060,37956
4.86993,41926
4.87928,42331
4.88862,43621
4.89797,42522
4.90730,43940
4.91663,42308
4.92598,44195
4.93532,47296
4.94465,48369
4.95400,42432
4.96333,37159
4.97267,36063
4.98202,37464
4.99135,36480
5.00068,38860
5.01003,38185
5.01937,42803
5.02870,46904
5.03805,44002
5.04738,39079
5.05672,37598
5.06607,36251
5.07540,35384
5.08475,35436
5.09408,36527
5.10342,34778
5.11277,33542
5.12210,34653
5.13143,37682
5.14078,39998
5.15012,40896
5.15945,37674
5.16880,39312
5.17813,44160
5.18747,40717
5.19682,37131
5.20615,34813
5.21548,34948
5.22483,33515
5.23417,39647
5.24350,40521
5.25285,39371
5.26218,46581
5.27153,79563
5.28087,139712
5.29020,179630
5.29955,145050
5.30888,95237
5.31822,69031
5.32757,61133
5.33690,47591
5.34623,40128
5.35558,35749
5.36492,35374
5.37425,37282
5.38360,43159
5.39293,48281
5.40227,48885
5.41162,44589
5.42095,40205
5.43030,35723
5.43963,33171
5.44897,33133
5.45832,32388
5.46765,33598
5.47698,34855
5.48633,34745
5.49567,37258
5.50500,37497
5.51435,37841
5.52368,45162
5.53302,47024
5.54237,49419
5.55170,53091
5.56103,58764
5.57038,65035
5.57972,61952
5.58905,47947
5.59840,40527
5.60773,38243
5.61708,36061
5.62642,36105
5.63575,35009
5.64510,34267
5.65443,36673
5.66377,36511
5.67312,36552
5.68245,36480
5.69178,38754
5.70113,41073
5.71047,44236
5.71980,47173
5.72915,43755
5.73848,44737
5.74782,47568
5.75717,52079
5.76650,46439
5.77583,40588
5.78518,37169
5.79452,35191
5.80387,36428
5.81320,37985
5.82253,39946
5.83188,38780
5.84122,34896
5.85055,29170
5.85990,29082
5.86923,28923
5.87857,29409
5.88792,28704
5.89725,30472
5.90658,44669
5.91593,82907
5.92527,111736
5.93460,101373
5.94395,71271
5.95328,54276
5.96262,41683
5.97197,35337
5.98130,29567
5.99065,25985
5.99998,24169
6.00932,21398
6.01867,20811
6.02800,22247
6.03733,24506
6.04668,23910
6.05602,22956
6.06535,23955
6.07470,22907
6.08403,21719
6.09337,20398
6.10272,22025
6.11205,28821
6.12138,53344
6.13073,86746
6.14007,93668
6.14942,68593
6.15875,40412
6.16808,26636
6.17743,24230
6.18677,22397
6.19610,22922
6.20545,22281
6.21478,25543
6.22412,26603
6.23347,28080
6.24280,29699
6.25213,33903
6.26148,42126
6.27082,47033
6.28015,42442
6.28950,36607
6.29883,32335
6.30817,33014
6.31752,32461
6.32685,34639
6.33620,35537
6.34553,35425
6.35487,37531
6.36422,41080
6.37355,45451
6.38288,65732
6.39223,135688
6.40157,286447
6.41090,406437
6.42025,328585
6.42958,164581
6.43892,75396
6.44827,50615
6.45760,45756
6.46693,44472
6.47628,43589
6.48562,44623
6.49495,43705
6.50430,42717
6.51363,42403
6.52298,40198
6.53232,42519
6.54165,41204
6.55100,40187
6.56033,39228
6.56967,38296
6.57902,38269
6.58835,40939
6.59768,42122
6.60703,42988
6.61637,41855
6.62570,42594
6.63505,40716
6.64438,43783
6.65372,41952
6.66307,41376
6.67240,42608
6.68173,41061
6.69108,43058
6.70042,42679
6.70977,42725
6.71910,39259
6.72843,35796
6.73778,36135
6.74712,33861
6.75645,33964
6.76580,35279
6.77513,36844
6.78447,35191
6.79382,39245
6.80315,39600
6.81248,37567
6.82183,33160
6.83117,33366
6.84050,33516
6.84985,31780
6.85918,29892
6.86852,31230
6.87787,30959
6.88720,34201
6.89655,38063
6.90588,41383
6.91522,40980
6.92457,34211
6.93390,32308
6.94323,31693
6.95258,31200
6.96192,30523
6.97125,30214
6.98060,31997
6.98993,31481
6.99927,30651
7.00862,33857
7.01795,31675
7.02728,29272
7.03663,27656
7.04597,27504
7.05530,26986
7.06465,26509
7.07398,27613
7.08333,27866
7.09267,27619
7.10200,29806
7.11135,30739
7.12068,30785
7.13002,28854
7.13937,28615
7.14870,26883
7.15803,27971
7.16738,27244
7.17672,24517
7.18605,25342
7.19540,26428
7.20473,27596
7.21407,29713
7.22342,46632
7.23275,74546
7.24210,94586
7.25143,76878
7.26077,52869
7.27012,40699
7.27945,36613
7.28878,35345
7.29813,33327
7.30747,29166
7.31680,25827
7.32615,25382
7.33548,23683
7.34482,23186
7.35417,23465
7.36350,24102
7.37283,25103
7.38218,39432
7.39152,76146
7.40085,146051
7.41020,183962
7.41953,155237
7.42888,98144
7.43822,54569
7.44755,36788
7.45690,33799
7.46623,31454
7.47557,30435
7.48492,28697
7.49425,27859
7.50358,25198
7.51293,25304
7.52227,22291
7.53160,24461
7.54095,23858
7.55028,27207
7.55962,27469
7.56897,29167
7.57830,28602
7.58763,24960
7.59698,25428
7.60632,25232
7.61567,27655
7.62500,24691
7.63433,26083
7.64368,23821
7.65302,23307
7.66235,24337
7.67170,24929
7.68103,27681
7.69037,30109
7.69972,36741
7.70905,41512
7.71838,42829
7.72773,42719
7.73707,37723
7.74640,32229
7.75575,28869
7.76508,27943
7.77442,28718
7.78377,27902
7.79310,27994
7.80245,25845
7.81178,26946
7.82112,27313
7.83047,31811
7.83980,31512
7.84913,40170
7.85848,66336
7.86782,94260
7.87715,87208
7.88650,59297
7.89583,44710
7.90517,61222
7.91452,91262
7.92385,100143
7.93318,75274
7.94253,53800
7.95187,44073
7.96122,36858
7.97055,34033
7.97988,33534
7.98923,34176
7.99857,32733
8.00790,29667
8.01725,30096
8.02658,31041
8.03592,39871
8.04527,45596
8.05460,39516
8.06393,32790
8.07328,28827
8.08262,30202
8.09195,32904
8.10130,31943
8.11063,30577
8.11997,28617
8.12932,27592
8.13865,28262
8.14800,28179
8.15733,27716
8.16667,25459
8.17602,25895
8.18535,26317
8.19468,25622
8.20403,26858
8.21337,27144
8.22270,26923
8.23205,26957
8.24138,27437
8.25072,26786
8.26007,27010
8.26940,25435
8.27873,25924
8.28808,24929
8.29742,25039
8.30675,23635
8.31610,22431
8.32543,24285
8.33478,23307
8.34412,24703
8.35345,24190
8.36280,23408
8.37213,23315
8.38147,24450
8.39082,28823
8.40015,28240
8.40948,29604
8.41883,30407
8.42817,31352
8.43750,28487
8.44685,28918
8.45618,28008
8.46552,29666
8.47487,29195
8.48420,30025
8.49353,28331
8.50288,29003
8.51222,27688
8.52157,28936
8.53090,27437
8.54023,28486
8.54958,29782
8.55892,29332
8.56825,28693
8.57760,28009
8.58693,29350
8.59627,32927
8.60562,32817
8.61495,31166
8.62428,30447
8.63363,28501
8.64297,29849
8.65230,31723
8.66165,32080
8.67098,33021
8.68032,30938
8.68967,33045
8.69900,31737
8.70835,32435
8.71768,29745
8.72702,28940
8.73637,35201
8.74570,44447
8.75503,48496
8.76438,42225
8.77372,38078
8.78305,39382
8.79240,58818
8.80173,98812
8.81107,120120
8.82042,95643
8.82975,56168
8.83908,35748
8.84843,31324
8.85777,31308
8.86712,32193
8.87645,35760
8.88578,33788
8.89513,33006
8.90447,32034
8.91380,32599
8.92315,33844
8.93248,36499
8.94182,33563
8.95117,29883
8.96050,29818
8.96983,29622
8.97918,28803
8.98852,29577
8.99785,29315
9.00720,30260
9.01653,29194
9.02587,28935
9.03522,28891
9.04455,31090
9.05390,32909
9.06323,33327
9.07257,38315
9.08192,42481
9.09125,47089
9.10058,40808
9.10993,33970
9.11927,33799
9.12860,39110
9.13795,43368
9.14728,38654
9.15662,31897
9.16597,30810
9.17530,28932
9.18463,31113
9.19398,32967
9.20332,36798
9.21265,41152
9.22200,56532
9.23133,73837
9.24068,69999
9.25002,50136
9.25935,35611
9.26870,31755
9.27803,30247
9.28737,30502
9.29672,28989
9.30605,31919
9.31538,39629
9.32473,57712
9.33407,62110
9.34340,54694
9.35275,63474
9.36208,101737
9.37142,132357
9.38077,122838
9.39010,92108
9.39943,68955
9.40878,56597
9.41812,56502
9.42747,50536
9.43680,42668
9.44613,35864
9.45548,31832
9.46482,30066
9.47415,32262
9.48350,34654
9.49283,36213
9.50217,36746
9.51152,33165
9.52085,32871
9.53018,32757
9.53953,39952
9.54887,49876
9.55820,62430
9.56755,64899
9.57688,50900
9.58623,42509
9.59557,41472
9.60490,43884
9.61425,39482
9.62358,32475
9.63292,31670
9.64227,31767
9.65160,32799
9.66093,29524
9.67028,32517
9.67962,32556
9.68895,32229
9.69830,31041
9.70763,34071
9.71697,60427
9.72632,149833
9.73565,328876
9.74498,485838
9.75433,439754
9.76367,291168
9.77302,172670
9.78235,114228
9.79168,88331
9.80103,73324
9.81037,65769
9.81970,66745
9.82905,77423
9.83838,92272
9.84772,94824
9.85707,77227
9.86640,62634
9.87573,61173
9.88508,69835
9.89442,68602
9.90375,62951
9.91310,62555
9.92243,55662
9.93177,50671
9.94112,43614
9.95045,42215
9.95980,43523
9.96913,50704
9.97847,75733
9.98782,97549
9.99715,90430
10.00648,64995
10.01583,49961
10.02517,40209
10.03450,39290
10.04385,39653
10.05318,47464
10.06252,57217
10.07187,65582
10.08120,59506
10.09053,48091
10.09988,60828
10.10922,166249
10.11855,410533
10.12790,606781
10.13723,563019
10.14658,852330
10.15592,1927787
10.16525,2611443
10.17460,1825805
10.18393,612762
10.19327,137837
10.20262,53231
10.21195,46353
10.22128,41581
10.23063,42206
10.23997,43219
10.24930,40414
10.25865,36708
10.26798,36584
10.27732,37513
10.28667,39876
10.29600,42915
10.30533,41127
10.31468,37392
10.32402,35152
10.33337,32818
10.34270,32228
10.35203,29953
10.36138,33106
10.37072,32790
10.38005,30967
10.38940,31264
10.39873,32402
10.40807,41356
10.41742,52709
10.42675,60976
10.43608,61702
10.44543,66022
10.45477,85415
10.46410,81709
10.47345,65192
10.48278,41581
10.49212,35697
10.50147,33179
10.51080,32014
10.52015,32473
10.52948,32281
10.53882,33830
10.54817,34328
10.55750,34420
10.56683,34837
10.57618,35937
10.58552,33639
10.59485,33136
10.60420,30205
10.61353,30309
10.62287,35440
10.63222,39952
10.64155,38803
10.65088,33993
10.66023,35285
10.66957,39179
10.67892,41262
10.68825,41015
10.69758,43165
10.70693,59547
10.71627,74941
10.72560,67089
10.73495,47914
10.74428,46781
10.75362,61435
10.76297,79945
10.77230,76659
10.78163,85475
10.79098,136476
10.80032,206774
10.80965,200545
10.81900,118479
10.82833,63597
10.83767,42175
10.84702,39521
10.85635,40696
10.86570,43995
10.87503,50947
10.88437,49773
10.89372,45026
10.90305,39526
10.91238,40029
10.92173,41103
10.93107,41892
10.94040,38059
10.94975,37055
10.95908,37577
10.96842,36769
10.97777,35303
10.98710,32174
10.99643,30612
11.00578,30501
11.01512,31363
11.02445,30940
11.03380,30233
11.04313,32273
11.05248,30907
11.06182,28242
11.07115,29131
11.08050,27505
11.08983,29159
11.09917,31248
11.10852,30891
11.11785,29682
11.12718,31520
11.13653,29465
11.14587,29174
11.15520,32009
11.16455,31945
11.17388,29695
11.18322,29138
11.19257,28429
11.20190,27200
11.21123,30596
11.22058,30075
11.22992,32655
11.23927,30290
11.24860,30887
11.25793,33896
11.26728,33355
11.27662,31543
11.28595,29536
11.29530,30215
11.30463,29955
11.31397,28871
11.32332,32559
11.33265,40420
11.34198,48225
11.35133,53195
11.36067,49714
11.37000,40023
11.37935,36397
11.38868,38278
11.39803,46520
11.40737,56544
11.41670,54378
11.42605,41037
11.43538,33064
11.44472,30024
11.45407,36911
11.46340,46454
11.47273,49915
11.48208,42587
11.49142,34151
11.50075,30751
11.51010,29052
11.51943,29894
11.52877,29770
11.53812,29912
11.54745,31784
11.55678,38043
11.56613,52378
11.57547,64732
11.58482,60342
11.59415,48063
11.60348,45340
11.61283,37819
11.62217,36510
11.63150,37682
11.64085,47436
11.65018,63492
11.65952,78039
11.66887,73295
11.67820,58380
11.68753,48272
11.69688,44687
11.70622,42364
11.71555,39825
11.72490,38287
11.73423,37940
11.74357,36329
11.75292,35689
11.76225,35803
11.77160,37169
11.78093,39506
11.79027,38346
11.79962,35375
11.80895,32967
11.81828,35795
11.82763,34902
11.83697,30997
11.84630,31563
11.85565,29804
11.86498,29842
11.87432,33833
11.88367,32383
11.89300,30703
11.90233,29321
11.91168,27648
11.92102,30085
11.93035,35589
11.93970,41965
11.94903,40990
11.95838,39976
11.96772,33184
11.97705,30520
11.98640,31961
11.99573,36161
12.00507,42422
12.01442,44845
12.02375,44832
12.03308,38667
12.04243,34978
12.05177,31684
12.06110,29767
12.07045,28881
12.07978,28101
12.08912,30271
12.09847,30218
12.10780,27576
12.11713,26364
12.12648,27048
12.13582,27940
12.14517,30900
12.15450,36627
12.16383,52555
12.17318,73636
12.18252,70111
12.19185,49540
12.20120,37074
12.21053,33599
12.21987,38537
12.22922,40784
12.23855,40011
12.24788,32008
12.25723,32657
12.26657,38390
12.27590,48819
12.28525,47165
12.29458,39344
12.30393,33232
12.31327,31611
12.32260,33918
12.33195,36062
12.34128,40147
12.35062,36030
12.35997,34141
12.36930,34032
12.37863,33067
12.38798,31475
12.39732,31089
12.40665,29017
12.41600,28559
12.42533,27569
12.43467,27080
12.44402,29203
12.45335,30158
12.46268,31649
12.47203,34599
12.48137,33054
12.49072,32138
12.50005,31210
12.50938,33353
12.51873,34499
12.52807,33401
12.53740,35484
12.54675,37763
12.55608,44885
12.56542,48940
12.57477,42571
12.58410,35682
12.59343,31346
12.60278,30875
12.61212,29947
12.62145,33326
12.63080,41664
12.64013,45414
12.64947,47335
12.65882,41489
12.66815,36106
12.67750,27703
12.68683,23798
12.69617,24765
12.70552,26324
12.71485,27784
12.72418,28769
12.73353,30097
12.74287,31449
12.75220,30550
12.76155,29494
12.77088,27149
12.78022,26865
12.78957,25948
12.79890,26866
12.80823,27444
12.81758,27410
12.82692,27740
12.83625,28188
12.84560,28940
12.85493,27374
12.86428,27788
12.87362,28001
12.88295,26280
12.89230,29144
12.90163,26454
12.91097,25418
12.92032,25822
12.92965,25857
12.93898,25679
12.94833,26386
12.95767,28027
12.96700,24544
12.97635,23213
12.98568,22781
12.99502,23624
13.00437,25684
13.01370,28734
13.02305,33747
13.03238,37280
13.04172,35657
13.05107,29288
13.06040,28185
13.06973,29265
13.07908,29146
13.08842,27234
13.09775,27669
13.10710,28002
13.11643,26715
13.12577,30131
13.13512,31013
13.14445,30973
13.15378,27916
13.16313,27611
13.17247,31734
13.18180,36896
13.19115,74860
13.20048,156624
13.20983,201495
13.21917,158982
13.22850,93558
13.23785,79066
13.24718,77677
13.25652,60058
13.26587,44671
13.27520,40903
13.28453,38593
13.29388,34480
13.30322,32790
13.31255,35171
13.32190,38037
13.33123,36778
13.34057,33704
13.34992,31898
13.35925,31892
13.36858,28806
13.37793,29360
13.38727,35431
13.39662,37388
13.40595,33523
13.41528,30564
13.42463,29693
13.43397,32640
13.44330,34093
13.45265,35416
13.46198,32324
13.47132,33936
13.48067,32295
13.49000,29925
13.49933,31112
13.50868,44375
13.51802,70892
13.52735,78185
13.53670,60683
13.54603,39214
13.55537,30114
13.56472,27309
13.57405,28571
13.58340,26996
13.59273,27002
13.60207,26741
13.61142,26923
13.62075,26788
13.63008,25405
13.63943,26061
13.64877,30178
13.65810,28959
13.66745,29052
13.67678,28827
13.68612,26976
13.69547,25704
13.70480,24071
13.71413,22723
13.72348,21776
13.73282,23329
13.74215,24427
13.75150,24871
13.76083,25174
13.77018,25755
13.77952,24228
13.78885,27486
13.79820,30307
13.80753,32087
13.81687,26923
13.82622,27278
13.83555,26163
13.84488,24818
13.85423,26275
13.86357,27621
13.87290,31366
13.88225,42880
13.89158,69190
13.90092,131230
13.91027,216442
13.91960,223030
13.92893,128358
13.93828,60596
13.94762,37338
13.95697,35586
13.96630,32315
13.97563,30233
13.98498,30047
13.99432,30934
14.00365,29733
14.01300,30580
14.02233,30648
14.03167,62788
14.04102,358561
14.05035,1898215
14.05968,4875707
14.06903,6624405
14.07837,4634851
14.08770,1490537
14.09705,260390
14.10638,68209
14.11573,44829
14.12507,40171
14.13440,41383
14.14375,40942
14.15308,44640
14.16242,44601
14.17177,39873
14.18110,38108
14.19043,41847
14.19978,40521
14.20912,37980
14.21845,32809
14.22780,28557
14.23713,25438
14.24647,27924
14.25582,29893
14.26515,30135
14.27448,29008
14.28383,27821
14.29317,27283
14.30252,30161
14.31185,38780
14.32118,44628
14.33053,46381
14.33987,39800
14.34920,33836
14.35855,29263
14.36788,26630
14.37722,28386
14.38657,29000
14.39590,29373
14.40523,28331
14.41458,28112
14.42392,27423
14.43325,27489
14.44260,33200
14.45193,44654
14.46127,55379
14.47062,54889
14.47995,42777
14.48930,37290
14.49863,33699
14.50797,32160
14.51732,32870
14.52665,30891
14.53598,30748
14.54533,29319
14.55467,31076
14.56400,29913
14.57335,30392
14.58268,26835
14.59202,27492
14.60137,26786
14.61070,26503
14.62003,25330
14.62938,26333
14.63872,27237
14.64805,31010
14.65740,35559
14.66673,33969
14.67608,34305
14.68542,33621
14.69475,31022
14.70410,28561
14.71343,26836
14.72277,28193
14.73212,29448
14.74145,30310
14.75078,29193
14.76013,29715
14.76947,28642
14.77880,29711
14.78815,29296
14.79748,29968
14.80682,27734
14.81617,29261
14.82550,28318
14.83485,27706
14.84418,29475
14.85352,33604
14.86287,40645
14.87220,40462
14.88153,36395
14.89088,28827
14.90022,26237
14.90955,27889
14.91890,28407
14.92823,27138
14.93757,25729
14.94692,27716
14.95625,27926
14.96558,31064
14.97493,32270
14.98427,30972
14.99360,33778
15.00295,39158
15.01228,39362
15.02163,34952
15.03097,34093
15.04030,39330
15.04965,40222
15.05898,39847
15.06832,38014
15.07767,35356
15.08700,31811
15.09633,28278
15.10568,31037
15.11502,37578
15.12435,42862
15.13370,42677
15.14303,35483
15.15237,30143
15.16172,27071
15.17105,28363
15.18038,27999
15.18973,35483
15.19907,49904
15.20842,66648
15.21775,67786
15.22708,59820
15.23643,40769
15.24577,36094
15.25510,32265
15.26445,34481
15.27378,33311
15.28312,33055
15.29247,31601
15.30180,32471
15.31113,37691
15.32048,38553
15.32982,41702
15.33915,37501
15.34850,33860
15.35783,38063
15.36717,40357
15.37652,40816
15.38585,33789
15.39520,30568
15.40453,31150
15.41387,32351
15.42322,32595
15.43255,32106
15.44188,30026
15.45123,28627
15.46057,29933
15.46990,30191
15.47925,30509
15.48858,32923
15.49792,40612
15.50727,55862
15.51660,63621
15.52593,55302
15.53528,41675
15.54462,32774
15.55395,30082
15.56330,29298
15.57263,28943
15.58198,28939
15.59132,31349
15.60065,31460
15.61000,30081
15.61933,32346
15.62867,36204
15.63802,38748
15.64735,39930
15.65668,41852
15.66603,40180
15.67537,35991
15.68470,38470
15.69405,42203
15.70338,46121
15.71272,44436
15.72207,39250
15.73140,40822
15.74075,42148
15.75008,46392
15.75942,45109
15.76877,40489
15.77810,37249
15.78743,35400
15.79678,33946
15.80612,36100
15.81545,45640
15.82480,80752
15.83413,124521
15.84347,137655
15.85282,100839
15.86215,61270
15.87148,50941
15.88083,50577
15.89017,55810
15.89950,55360
15.90885,51769
15.91818,44674
15.92753,36522
15.93687,35579
15.94620,33862
15.95555,35111
15.96488,38357
15.97422,48198
15.98357,52527
15.99290,54366
16.00223,45924
16.01158,38391
16.02092,33210
16.03025,37220
16.03960,39513
16.04893,40149
16.05827,42207
16.06762,40227
16.07695,39829
16.08628,37019
16.09563,38135
16.10497,40515
16.11432,41996
16.12365,41474
16.13298,39391
16.14233,37122
16.15167,36141
16.16100,38581
16.17035,33785
16.17968,34991
16.18902,36266
16.19837,39421
16.20770,41009
16.21703,46444
16.22638,52502
16.23572,55620
16.24505,54884
16.25440,51174
16.26373,46897
16.27307,65827
16.28242,118878
16.29175,189571
16.30110,196613
16.31043,136801
16.31977,72080
16.32912,48459
16.33845,37714
16.34778,32980
16.35713,30632
16.36647,31108
16.37580,31785
16.38515,34380
16.39448,37226
16.40382,40155
16.41317,40338
16.42250,38723
16.43183,37914
16.44118,37079
16.45052,43096
16.45987,43296
16.46920,40610
16.47853,39735
16.48788,39622
16.49722,39092
16.50655,41011
16.51590,38666
16.52523,36905
16.53457,36288
16.54392,34398
16.55325,34966
16.56258,33724
16.57193,37574
16.58127,37470
16.59060,36727
16.59995,34005
16.60928,36322
16.61862,39917
16.62797,43225
16.63730,45608
16.64665,40155
16.65598,35696
16.66532,33133
16.67467,40296
16.68400,42728
16.69333,49235
16.70268,47254
16.71202,40812
16.72135,39490
16.73070,53441
16.74003,79143
16.74937,97029
16.75872,77204
16.76805,48149
16.77738,38347
16.78673,35336
16.79607,34256
16.80540,35385
16.81475,39915
16.82408,44864
16.83343,46625
16.84277,40171
16.85210,36196
16.86145,34514
16.87078,34731
16.88012,35955
16.88947,39418
16.89880,43392
16.90813,55449
16.91748,55886
16.92682,48827
16.93615,46971
16.94550,48229
16.95483,51100
16.96417,52326
16.97352,44417
16.98285,37814
16.99218,33713
17.00153,34747
17.01087,42448
17.02022,57854
17.02955,74051
17.03888,69436
17.04823,52120
17.05757,43813
17.06690,40401
17.07625,40160
17.08558,38160
17.09492,40997
17.10427,39224
17.11360,37648
17.12293,43300
17.13228,45426
17.14162,41344
17.15095,38756
17.16030,34937
17.16963,35583
17.17897,34929
17.18832,33335
17.19765,34607
17.20700,32035
17.21633,33927
17.22567,34927
17.23502,32408
17.24435,34244
17.25368,37994
17.26303,42219
17.27237,43882
17.28170,44394
17.29105,41196
17.30038,39692
17.30972,43615
17.31907,46320
17.32840,44153
17.33773,41291
17.34708,37051
17.35642,40326
17.36575,64366
17.37510,117044
17.38443,152329
17.39378,117425
17.40312,72226
17.41245,53393
17.42180,47694
17.43113,47127
17.44047,47002
17.44982,45650
17.45915,40023
17.46848,42891
17.47783,75757
17.48717,343623
17.49650,1327364
17.50585,2569996
17.51518,2462258
17.52452,1219727
17.53387,323164
17.54320,87496
17.55255,51427
17.56188,47160
17.57122,50423
17.58057,49809
17.58990,48746
17.59923,43956
17.60858,40532
17.61792,37855
17.62725,38755
17.63660,40410
17.64593,43341
17.65527,50862
17.66462,51227
17.67395,50598
17.68328,52512
17.69263,55494
17.70197,53633
17.71130,52541
17.72065,43910
17.72998,43280
17.73933,45147
17.74867,49423
17.75800,53447
17.76735,50786
17.77668,43519
17.78602,37152
17.79537,34303
17.80470,37188
17.81403,39092
17.82338,40363
17.83272,40186
17.84205,43437
17.85140,51636
17.86073,55060
17.87007,51246
17.87942,49771
17.88875,47272
17.89808,41504
17.90743,37549
17.91677,35359
17.92612,33877
17.93545,35699
17.94478,37026
17.95413,40696
17.96347,45371
17.97280,43097
17.98215,36567
17.99148,37528
18.00082,36040
18.01017,34637
18.01950,35232
18.02883,36866
18.03818,41172
18.04752,48715
18.05685,49077
18.06620,42625
18.07553,37499
18.08487,34265
18.09422,37388
18.10355,39193
18.11290,41733
18.12223,42431
18.13157,42609
18.14092,45076
18.15025,43963
18.15958,41304
18.16893,38576
18.17827,36592
18.18760,35500
18.19695,34910
18.20628,35966
18.21562,37070
18.22497,33954
18.23430,34606
18.24363,34086
18.25298,34377
18.26232,37851
18.27167,40814
18.28100,44026
18.29033,43779
18.29968,45762
18.30902,42410
18.31835,42241
18.32770,45675
18.33703,51085
18.34637,58052
18.35572,55866
18.36505,48745
18.37438,41027
18.38373,39561
18.39307,37998
18.40240,41589
18.41175,43029
18.42108,44267
18.43042,48231
18.43977,52528
18.44910,53214
18.45845,43413
18.46778,38184
18.47712,41040
18.48647,50459
18.49580,70096
18.50513,82062
18.51448,77469
18.52382,63013
18.53315,54231
18.54250,51557
18.55183,51818
18.56117,45406
18.57052,41324
18.57985,37444
18.58918,39315
18.59853,44690
18.60787,49128
18.61720,51040
18.62655,47809
18.63588,46182
18.64523,42813
18.65457,43530
18.66390,43792
18.67325,41836
18.68258,43008
18.69192,40905
18.70127,46705
18.71060,47872
18.71993,48335
18.72928,49380
18.73862,47309
18.74795,43987
18.75730,39909
18.76663,36285
18.77597,36332
18.78532,35917
18.79465,40802
18.80398,40237
18.81333,41588
18.82267,38531
18.83202,39942
18.84135,38271
18.85068,36271
18.86003,37238
18.86937,37285
18.87870,35762
18.88805,39677
18.89738,45699
18.90672,56073
18.91607,55092
18.92540,52783
18.93473,51539
18.94408,58242
18.95342,57252
18.96275,54604
18.97210,51232
18.98143,44379
18.99077,42507
19.00012,40046
19.00945,39707
19.01880,40874
19.02813,49348
19.03747,64698
19.04682,83103
19.05615,93087
19.06548,94255
19.07483,112773
19.08417,125466
19.09350,108601
19.10285,72615
19.11218,52884
19.12152,42542
19.13087,38502
19.14020,37110
19.14953,36772
19.15888,35899
19.16822,37802
19.17757,39391
19.18690,42963
19.19623,45044
19.20558,48972
19.21492,49163
19.22425,48152
19.23360,42370
19.24293,38130
19.25227,37014
19.26162,38227
19.27095,40292
19.28028,42098
19.28963,47450
19.29897,50936
19.30830,61630
19.31765,62065
19.32698,51685
19.33632,44670
19.34567,37818
19.35500,36715
19.36435,38028
19.37368,38455
19.38302,40180
19.39237,47271
19.40170,51598
19.41103,46320
19.42038,39488
19.42972,37659
19.43905,35705
19.44840,36614
19.45773,34341
19.46707,36851
19.47642,42181
19.48575,43775
19.49508,42119
19.50443,35513
19.51377,34885
19.52310,36222
19.53245,35943
19.54178,36783
19.55113,34441
19.56047,36664
19.56980,38124
19.57915,42624
19.58848,44492
19.59782,39301
19.60717,38944
19.61650,40969
19.62583,43388
19.63518,46270
19.64452,42093
19.65385,39822
19.66320,39748
19.67253,37510
19.68187,37307
19.69122,36550
19.70055,39185
19.70988,47257
19.71923,57208
19.72857,66744
19.73792,61016
19.74725,49953
19.75658,43853
19.76593,42804
19.77527,43034
19.78460,44203
19.79395,41926
19.80328,40245
19.81262,41203
19.82197,37669
19.83130,36383
19.84063,34172
19.84998,38049
19.85932,43287
19.86865,52560
19.87800,56969
19.88733,49708
19.89667,38908
19.90602,39248
19.91535,39221
19.92470,36458
19.93403,36262
19.94337,35855
19.95272,39371
19.96205,37925
19.97138,36313
19.98073,33682
19.99007,34966
19.99940,35447
20.00875,37039
20.01808,39013
20.02742,42303
20.03677,41973
20.04610,39127
20.05543,37180
20.06478,36852
20.07412,38852
20.08347,38278
20.09280,37641
20.10213,32205
20.11148,31751
20.12082,33112
20.13015,35327
20.13950,40077
20.14883,43951
20.15817,43891
20.16752,38321
20.17685,35564
20.18618,33405
20.19553,34612
20.20487,33807
20.21420,36295
20.22355,33353
20.23288,33672
20.24222,32121
20.25157,33069
20.26090,34155
20.27025,34575
20.27958,32366
20.28892,32985
20.29827,30488
20.30760,31942
20.31693,31500
20.32628,33704
20.33562,32447
20.34495,33982
20.35430,33866
20.36363,33385
20.37297,33551
20.38232,33974
20.39165,32587
20.40098,31029
20.41033,31586
20.41967,32456
20.42900,33178
20.43835,31824
20.44768,34982
20.45703,38097
20.46637,44360
20.47570,42124
20.48505,40067
20.49438,34680
20.50372,33081
20.51307,33232
20.52240,32509
20.53173,33763
20.54108,35919
20.55042,57857
20.55975,118634
20.56910,223694
20.57843,235565
20.58777,141493
20.59712,65138
20.60645,45333
20.61578,39687
20.62513,40397
20.63447,36623
20.64382,38853
20.65315,40657
20.66248,41864
20.67183,41569
20.68117,42135
20.69050,41010
20.69985,41547
20.70918,37937
20.71852,38577
20.72787,39050
20.73720,37468
20.74653,37429
20.75588,35388
20.76522,34529
20.77455,33291
20.78390,37114
20.79323,40103
20.80257,40419
20.81192,38509
20.82125,36151
20.83060,31850
20.83993,33029
20.84927,30947
20.85862,31477
20.86795,33932
20.87728,33520
20.88663,34170
20.89597,37713
20.90530,35710
20.91465,36708
20.92398,35596
20.93332,35265
20.94267,30891
20.95200,30675
20.96133,32424
20.97068,32635
20.98002,32670
20.98937,32020
20.99870,32846
21.00803,32660
21.01738,32548
21.02672,33404
21.03605,34630
21.04540,35777
21.05473,34378
21.06407,35299
21.07342,33132
21.08275,34113
21.09208,36666
21.10143,37337
21.11077,38435
21.12010,38679
21.12945,37297
21.13878,35218
21.14812,34877
21.15747,35759
21.16680,36151
21.17615,40537
21.18548,44102
21.19482,45328
21.20417,44908
21.21350,41874
21.22283,41230
21.23218,39097
21.24152,36625
21.25085,37998
21.26020,39448
21.26953,45098
21.27887,48886
21.28822,44663
21.29755,43507
21.30688,38558
21.31623,36354
21.32557,35082
21.33490,34385
21.34425,33691
21.35358,34671
21.36293,33156
21.37227,32315
21.38160,30243
21.39095,35303
21.40028,34645
21.40962,38077
21.41897,38113
21.42830,35657
21.43763,34558
21.44698,33972
21.45632,35914
21.46565,34423
21.47500,36777
21.48433,37550
21.49367,38228
21.50302,34784
21.51235,34970
21.52168,33780
21.53103,33438
21.54037,33384
21.54972,36430
21.55905,37751
21.56838,44431
21.57773,45617
21.58707,42122
21.59640,38727
21.60575,36204
21.61508,38748
21.62442,37187
21.63377,34203
21.64310,33949
21.65243,33856
21.66178,38024
21.67112,38458
21.68045,38263
21.68980,38299
21.69913,36557
21.70848,37032
21.71782,40903
21.72715,41399
21.73650,40679
21.74583,38043
21.75517,36032
21.76452,34639
21.77385,32774
21.78318,34187
21.79253,35026
21.80187,36304
21.81120,40135
21.82055,41331
21.82988,40921
21.83922,39335
21.84857,38472
21.85790,36621
21.86723,39541
21.87658,40783
21.88592,45024
21.89527,45636
21.90460,44629
21.91393,40797
21.92328,40122
21.93262,38911
21.94195,36779
21.95130,39500
21.96063,45397
21.96997,49529
21.97932,52988
21.98865,51274
21.99798,50151
22.00733,42799
22.01667,41975
22.02600,43524
22.03535,41863
22.04468,41400
22.05402,40849
22.06337,41948
22.07270,41360
22.08205,43549
22.09138,44708
22.10072,45060
22.11007,42371
22.11940,42775
22.12873,43813
22.13808,46607
22.14742,53364
22.15675,57169
22.16610,61894
22.17543,61479
22.18477,55980
22.19412,54937
22.20345,57108
22.21278,58867
22.22213,61286
22.23147,62933
22.24080,66932
22.25015,66037
22.25948,65845
22.26883,68007
22.27817,72066
22.28750,73199
22.29685,68771
22.30618,64251
22.31552,62408
22.32487,59670
22.33420,59545
22.34353,62099
22.35288,59833
22.36222,59721
22.37155,59645
22.38090,55840
22.39023,55063
22.39957,55133
22.40892,53456
22.41825,51705
22.42758,49985
22.43693,52423
22.44627,51821
22.45562,51978
22.46495,50086
22.47428,47078
22.48363,47641
22.49297,45299
22.50230,44513
22.51165,43603
22.52098,44854
22.53032,43955
22.53967,43008
22.54900,41521
22.55833,40241
22.56768,41671
22.57702,41138
22.58635,42507
22.59570,40502
22.60503,39764
22.61438,40095
22.62372,37863
22.63305,39260
22.64240,38335
22.65173,34625
22.66107,35315
22.67042,35883
22.67975,37714
22.68908,41098
22.69843,39337
22.70777,38826
22.71710,35961
22.72645,38536
22.73578,40556
22.74512,42593
22.75447,43565
22.76380,41040
22.77313,41454
22.78248,37687
22.79182,37633
22.80117,36964
22.81050,36271
22.81983,36624
22.82918,37776
22.83852,38774
22.84785,34771
22.85720,36357
22.86653,36026
22.87587,35458
22.88522,34216
22.89455,35182
22.90388,36189
22.91323,33714
22.92257,33420
22.93190,35017
22.94125,34980
22.95058,39310
22.95992,35593
22.96927,34000
22.97860,33612
22.98795,33803
22.99728,35173
23.00662,35507
23.01597,34982
23.02530,35656
23.03463,32873
23.04398,34085
23.05332,37118
23.06265,34446
23.07200,35727
23.08133,34958
23.09067,34765
23.10002,34457
23.10935,34053
23.11868,34068
23.12803,34236
23.13737,35135
23.14670,33135
23.15605,34487
23.16538,34567
23.17473,35277
23.18407,35196
23.19340,35528
23.20275,33113
23.21208,35044
23.22142,34614
23.23077,34332
23.24010,34882
23.24943,35299
23.25878,33569
23.26812,34533
23.27745,32858
23.28680,34275
23.29613,34673
23.30547,38282
23.31482,38736
23.32415,43876
23.33348,48170
23.34283,41118
23.35217,36210
23.36152,37118
23.37085,33510
23.38018,35795
23.38953,36000
23.39887,37639
23.40820,38519
23.41755,34636
23.42688,35710
23.43622,35437
23.44557,35746
23.45490,34776
23.46423,36381
23.47358,35439
23.48292,36388
23.49225,34356
23.50160,33734
23.51093,32782
23.52028,33536
23.52962,34256
23.53895,35221
23.54830,33268
23.55763,33247
23.56697,34032
23.57632,34784
23.58565,33697
23.59498,34138
23.60433,33008
23.61367,33414
23.62300,34676
23.63235,33662
23.64168,34221
23.65102,33724
23.66037,34033
23.66970,32315
23.67903,34779
23.68838,34620
23.69772,33023
23.70707,35687
23.71640,37553
23.72573,38169
23.73508,38517
23.74442,37604
23.75375,33258
23.76310,35568
23.77243,33838
23.78177,33935
23.79112,36660
23.80045,34092
23.80978,33367
23.81913,33098
23.82847,34759
23.83780,34533
23.84715,33567
23.85648,34230
23.86582,34962
23.87517,32503
23.88450,33264
23.89385,33808
23.90318,33099
23.91252,32259
23.92187,32786
23.93120,32882
23.94053,35786
23.94988,34711
23.95922,35984
23.96855,33149
23.97790,33949
23.98723,36041
23.99657,34208
24.00592,36669
24.01525,33646
24.02458,35198
24.03393,35595
24.04327,32980
24.05260,34146
24.06195,34231
24.07128,34860
24.08063,33351
24.08997,35318
24.09930,33430
24.10865,34056
24.11798,35443
24.12732,36595
24.13667,34559
24.14600,33557
24.15533,35663
24.16468,34689
24.17402,34873
24.18335,33433
24.19270,33240
24.20203,35196
24.21137,35328
24.22072,33714
24.23005,34420
24.23938,37788
24.24873,36121
24.25807,34800
24.26742,35007
24.27675,35013
24.28608,35527
24.29543,35395
24.30477,36665
24.31410,35409
24.32345,37204
24.33278,39584
24.34212,37239
24.35147,34983
24.36080,37605
24.37013,35021
24.37948,33561
24.38882,35072
24.39815,35157
24.40750,36577
24.41683,34637
24.42618,34207
24.43552,38663
24.44485,34279
24.45420,35707
24.46353,34635
24.47287,33405
24.48222,35839
24.49155,34883
24.50088,34521
24.51023,34538
24.51957,35494
24.52890,36274
24.53825,36124
24.54758,36814
24.55692,36253
24.56627,36971
24.57560,37992
24.58493,36110
24.59428,37057
24.60362,36213
24.61297,37641
24.62230,36212
24.63163,37465
24.64098,35087
24.65032,36092
24.65965,36620
24.66900,38016
24.67833,36784
24.68767,38335
24.69702,36072
24.70635,37555
24.71568,37198
24.72503,38499
24.73437,36201
24.74370,38082
24.75305,35852
24.76238,35848
24.77172,38400
24.78107,35843
24.79040,35997
24.79975,34854
24.80908,37743
24.81842,35577
24.82777,35403
24.83710,34818
24.84643,37001
24.85578,35799
24.86512,36741
24.87445,38460
24.88380,37773
24.89313,37892
24.90247,37791
24.91182,37483
24.92115,38094
24.93048,38538
24.93983,37740
24.94917,37472
24.95850,39899
24.96785,38966
24.97718,36353
24.98653,37650
24.99587,37116
25.00520,36676
25.01455,37446
25.02388,38879
25.03322,39348
25.04257,37963
25.05190,36951
25.06123,37820
25.07058,38741
25.07992,37527
25.08925,37283
25.09860,37317
25.10793,36905
25.11727,37733
25.12662,36409
25.13595,37922
25.14530,39333
25.15463,38205
25.16397,37542
25.17332,40832
25.18265,37068
25.19198,39236
25.20133,39659
25.21067,38613
25.22000,39376
25.22935,37327
25.23868,36922
25.24802,38377
25.25737,37361
25.26670,36958
25.27603,37151
25.28538,38096
25.29472,39210
25.30405,38768
25.31340,38121
25.32273,44320
25.33208,52386
25.34142,57770
25.35075,57372
25.36010,55442
25.36943,52222
25.37877,50774
25.38812,49770
25.39745,48733
25.40678,45435
25.41613,45941
25.42547,43884
25.43480,43752
25.44415,44959
25.45348,47136
25.46282,45919
25.47217,46493
25.48150,48978
25.49083,48048
25.50018,47823
25.50952,45901
25.51887,44685
25.52820,45063
25.53753,42162
25.54688,45303
25.55622,43955
25.56555,44183
25.57490,45043
25.58423,43518
25.59357,43594
25.60292,44698
25.61225,45625
25.62158,45836
25.63093,43827
25.64027,45665
25.64960,47481
25.65895,46455
25.66828,46221
25.67762,44621
25.68697,46119
25.69630,45107
25.70565,43117
25.71498,46484
25.72432,46832
25.73367,46151
25.74300,46971
25.75233,49433
25.76168,49048
25.77102,48839
25.78035,50073
25.78970,47572
25.79903,45187
25.80837,59337
25.81772,49941
25.82705,49873
25.83638,48131
25.84573,44863
25.85507,45989
25.86440,45610
25.87375,44966
25.88308,47161
25.89243,45155
25.90177,48233
25.91110,47259
25.92045,47381
25.92978,46203
25.93912,46815
25.94847,47084
25.95780,47534
25.96713,46335
25.97648,46503
25.98582,44980
25.99515,46580
26.00450,48229
26.01383,46463
26.02317,46360
26.03252,46320
26.04185,45150
26.05120,47264
26.06053,46211
26.06987,46713
26.07922,47057
26.08855,47913
26.09788,49260
26.10723,49983
26.11657,52902
26.12590,51920
26.13525,54247
26.14458,55357
26.15392,52002
26.16327,52800
26.17260,53040
26.18193,52255
26.19128,50577
26.20062,50473
26.20995,50230
26.21930,49094
26.22863,49516
26.23798,49753
26.24732,49602
26.25665,49321
26.26600,50168
26.27533,51220
26.28467,50350
26.29402,50572
26.30335,51928
26.31268,48666
26.32203,52274
26.33137,49491
26.34070,51659
26.35005,52923
26.35938,51257
26.36872,49990
26.37807,49860
26.38740,52056
26.39673,50836
26.40608,50755
26.41542,53129
26.42477,54894
26.43410,51477
26.44343,52412
26.45278,54179
26.46212,55703
26.47145,53312
26.48080,53681
26.49013,54578
26.49947,53743
26.50882,53757
26.51815,55746
26.52748,53325
26.53683,55010
26.54617,53851
26.55550,56656
26.56485,54650
26.57418,56515
26.58352,53912
26.59287,53201
26.60220,55544
26.61155,56227
26.62088,56690
26.63022,56585
26.63957,57177
26.64890,57741
26.65823,55806
26.66758,54830
26.67692,55825
26.68625,56508
26.69560,56388
26.70493,57279
26.71427,57105
26.72362,55180
26.73295,58328
26.74228,53940
26.75163,57340
26.76097,58417
26.77032,58978
26.77965,58975
26.78898,60411
26.79833,58865
26.80767,57889
26.81700,59844
26.82635,57368
26.83568,59548
26.84502,60326
26.85437,60144
26.86370,59121
26.87303,59700
26.88238,58532
26.89172,59647
26.90105,58472
26.91040,58945
26.91973,59575
26.92907,62202
26.93842,59265
26.94775,62357
26.95710,62076
26.96643,61467
26.97577,60978
26.98512,62859
26.99445,62968
27.00378,65287
27.01313,62940
27.02247,62271
27.03180,62347
27.04115,63743
27.05048,64599
27.05982,64762
27.06917,64213
27.07850,62248
27.08783,62597
27.09718,65469
27.10652,64436
27.11585,64342
27.12520,63598
27.13453,66345
27.14388,64091
27.15322,65604
27.16255,66185
27.17190,64261
27.18123,65856
27.19057,66039
27.19992,64350
27.20925,67373
27.21858,68119
27.22793,67715
27.23727,68436
27.24660,68143
27.25595,69803
27.26528,71594
27.27462,71017
27.28397,71391
27.29330,67625
27.30263,70746
27.31198,67156
27.32132,68316
27.33067,69745
27.34000,70061
27.34933,69828
27.35868,66120
27.36802,70366
27.37735,69024
27.38670,70227
27.39603,72025
27.40537,71546
27.41472,75560
27.42405,79384
27.43338,82609
27.44273,83205
27.45207,88616
27.46140,93105
27.47075,95225
27.48008,96335
27.48942,98700
27.49877,100931
27.50810,94046
27.51745,91463
27.52678,88661
27.53612,89575
27.54547,83212
27.55480,82482
27.56413,79783
27.57348,79919
27.58282,81072
27.59215,80256
27.60150,78323
27.61083,79735
27.62017,80584
27.62952,78745
27.63885,75639
27.64818,78115
27.65753,80240
27.66687,77078
27.67620,80719
27.68555,79721
27.69488,79597
27.70423,81037
27.71357,83835
27.72290,84195
27.73225,87319
27.74158,86102
27.75092,85754
27.76027,86377
27.76960,84783
27.77893,86759
27.78828,86581
27.79762,85872
27.80695,85517
27.81630,87564
27.82563,83536
27.83497,84478
27.84432,86241
27.85365,87163
27.86300,84337
27.87233,86137
27.88167,86769
27.89102,88824
27.90035,84443
27.90968,88011
27.91903,88069
27.92837,86424
27.93770,86217
27.94705,85865
27.95638,88490
27.96572,86347
27.97507,88409
27.98440,86548
27.99373,90699
28.00308,86963
28.01242,90821
28.02175,90489
28.03110,89539
28.04043,89306
28.04978,87035
28.05912,90132
28.06845,91490
28.07780,92892
28.08713,92923
28.09647,92480
28.10582,94846
28.11515,96783
28.12448,96058
28.13383,92611
28.14317,94629
28.15250,94575
28.16185,95017
28.17118,97158
28.18052,95722
28.18987,95062
28.19920,93056
28.20853,97182
28.21788,97561
28.22722,97303
28.23657,95639
28.24590,95886
28.25523,97565
28.26458,98791
28.27392,101731
28.28325,98204
28.29260,98477
28.30193,97852
28.31127,96368
28.32062,99867
28.32995,100074
28.33928,100313
28.34863,102031
28.35797,100785
28.36730,102103
28.37665,106099
28.38598,105191
28.39532,104892
28.40467,103909
28.41400,102815
28.42335,103609
28.43268,106938
28.44202,104876
28.45137,104478
28.46070,108697
28.47003,108430
28.47938,109609
28.48872,105611
28.49805,108145
28.50740,108063
28.51673,106363
28.52607,110051
28.53542,108221
28.54475,109502
28.55408,109302
28.56343,113629
28.57277,110792
28.58212,111832
28.59145,111711
28.60078,113033
28.61013,113422
28.61947,112573
28.62880,115060
28.63815,112737
28.64748,116333
28.65682,115542
28.66617,120244
28.67550,127853
28.68483,128580
28.69418,124810
28.70352,121924
28.71285,120172
28.72220,122713
28.73153,121179
28.74087,122199
28.75022,121308
28.75955,122413
28.76890,123144
28.77823,121714
28.78757,124059
28.79692,126575
28.80625,122089
28.81558,125753
28.82493,123809
28.83427,125283
28.84360,125207
28.85295,124816
28.86228,125964
28.87162,126744
28.88097,129109
28.89030,126084
28.89963,129899
28.90898,127344
28.91832,127731
28.92765,132947
28.93700,129787
28.94633,131675
28.95568,130819
28.96502,132251
28.97435,130858
28.98370,133834
28.99303,133387
29.00237,134329
29.01172,134135
29.02105,134233
29.03038,139346
29.03973,138853
29.04907,137338
29.05840,135936
29.06775,139879
29.07708,136912
29.08642,137445
29.09577,137461
29.10510,137418
29.11443,136971
29.12378,144044
29.13312,137526
29.14247,140329
29.15180,142120
29.16113,139723
29.17048,143139
29.17982,143688
29.18915,145155
29.19850,146067
29.20783,144482
29.21717,145158
29.22652,143581
29.23585,143370
29.24518,144386
29.25453,144777
29.26387,145384
29.27320,148685
29.28255,140896
29.29188,147116
29.30122,149270
29.31057,148408
29.31990,144660
29.32925,144747
29.33858,145627
29.34792,151440
29.35727,147752
29.36660,148582
29.37593,150366
29.38528,151635
29.39462,147779
29.40395,152025
29.41330,152239
29.42263,153282
29.43197,153778
29.44132,157435
29.45065,155322
29.45998,158780
29.46933,159941
29.47867,160554
29.48800,160946
29.49735,156780
29.50668,155564
29.51603,158780
29.52537,157493
29.53470,158609
29.54405,156344
29.55338,156937
29.56272,155368
29.57207,154929
29.58140,156056
29.59073,157838
29.60008,162110
29.60942,159686
29.61875,160500
29.62810,160978
29.63743,158379
29.64677,155678
29.65612,158305
29.66545,160719
29.67480,155802
29.68413,162702
29.69347,159867
29.70282,157318
29.71215,160044
29.72148,163050
29.73083,161016
29.74017,162701
29.74950,161499
29.75885,163491
29.76818,162519
29.77752,160560
29.78687,160436
29.79620,159668
29.80553,164223
29.81488,163771
29.82422,162981
29.83355,165598
29.84290,162388
29.85223,164546
29.86158,166614
29.87092,164503
29.88025,168098
29.88960,167790
29.89893,169196
29.90827,167819
29.91762,165980
29.92695,168931
29.93628,170697
29.94563,166901
29.95497,170812
29.96430,168457
29.97365,167721
29.98298,170499
29.99232,168146
30.00167,168785
30.01100,168182
30.02033,168654
30.02968,172238
30.03902,169940
30.04837,169439
30.05770,174090
30.06703,173972
30.07638,174705
30.08572,180555
30.09505,185084
30.10440,180917
30.11373,185705
30.12307,187786
30.13242,190593
30.14175,184809
30.15108,183862
30.16043,178518
30.16977,180885
30.17910,183501
30.18845,180573
30.19778,179467
30.20712,178636
30.21647,178184
30.22580,173863
30.23515,178739
30.24448,176822
30.25382,176933
30.26317,175925
30.27250,179082
30.28183,177525
30.29118,176456
30.30052,174180
30.30985,179083
30.31920,175000
30.32853,180993
30.33787,177549
30.34722,177961
30.35655,181330
30.36588,177724
30.37523,183368
30.38457,179936
30.39392,180988
30.40325,181029
30.41258,179609
30.42193,181993
30.43127,183602
30.44060,178210
30.44995,177669
30.45928,181080
30.46862,183275
30.47797,180394
30.48730,177898
30.49663,180730
30.50598,179882
30.51532,179736
30.52465,177704
30.53400,182591
30.54333,182086
30.55267,185028
30.56202,180346
30.57135,180394
30.58070,187615
30.59003,181944
30.59937,185515
30.60872,188835
30.61805,188711
30.62738,191963
30.63673,192768
30.64607,192837
30.65540,191431
30.66475,198601
30.67408,195126
30.68342,196839
30.69277,189155
30.70210,197198
30.71143,192233
30.72078,194815
30.73012,194173
30.73945,189945
30.74880,188764
30.75813,189582
30.76748,190475
30.77682,187417
30.78615,189268
30.79550,194599
30.80483,197915
30.81417,194864
30.82352,193417
30.83285,194448
30.84218,186564
30.85153,196606
30.86087,197561
30.87020,193128
30.87955,199275
30.88888,195758
30.89822,200708
30.90757,200947
30.91690,194578
30.92623,196580
30.93558,200888
30.94492,198255
30.95427,197550
30.96360,198640
30.97293,201992
30.98228,199695
30.99162,197087
31.00095,201675
31.01030,201722
31.01963,200500
31.02897,199472
31.03832,201792
31.04765,204502
31.05698,200393
31.06633,198835
31.07567,196505
31.08500,196205
31.09435,198098
31.10368,195297
31.11302,198490
31.12237,195412
31.13170,197440
31.14105,198323
31.15038,192174
31.15972,194479
31.16907,197085
31.17840,194815
31.18773,195834
31.19708,197356
31.20642,203362
31.21575,197860
31.22510,198057
31.23443,198595
31.24377,197893
31.25312,196940
31.26245,196950
31.27178,203553
31.28113,199400
31.29047,199798
31.29982,202182
31.30915,203195
31.31848,201785
31.32783,200927
31.33717,197204
31.34650,201442
31.35585,205058
31.36518,205867
