D:\数据\20220412\TEST5-ZRHX-2.D Wed Apr 13 00:13:09 2022
Start of data points
0.09758,18461
0.10693,18149
0.11627,18468
0.12560,17949
0.13495,18638
0.14428,18435
0.15362,18243
0.16297,18697
0.17230,18735
0.18163,16743
0.19098,18709
0.20032,18029
0.20965,17514
0.21900,16934
0.22833,18393
0.23767,17130
0.24702,18189
0.25635,17324
0.26570,16932
0.27503,17491
0.28437,17310
0.29372,17565
0.30305,17764
0.31238,16749
0.32173,16926
0.33107,16644
0.34040,18612
0.34975,17983
0.35908,18025
0.36842,17266
0.37777,17605
0.38710,16789
0.39643,17143
0.40578,17143
0.41512,15353
0.42445,13805
0.43380,12307
0.44313,10093
0.45248,4994
0.46182,4775
0.47115,4056
0.48050,3846
0.48983,4268
0.49917,4981
0.50852,4114
0.51785,4095
0.52718,4187
0.53653,4053
0.54587,3402
0.55520,3997
0.56455,4040
0.57388,3847
0.58322,4493
0.59257,4205
0.60190,3636
0.61123,3513
0.62058,3191
0.62992,3051
0.63927,4085
0.64860,3793
0.65793,4264
0.66728,3810
0.67662,3263
0.68595,2989
0.69530,3621
0.70463,3692
0.71397,3469
0.72332,3429
0.73265,3518
0.74198,3207
0.75133,3735
0.76067,3581
0.77000,3612
0.77935,3953
0.78868,3517
0.79803,3721
0.80737,4156
0.81670,3118
0.82605,3642
0.83538,3736
0.84472,3529
0.85407,3633
0.86340,3385
0.87273,2957
0.88208,3446
0.89142,3317
0.90075,2983
0.91010,3259
0.91943,3484
0.92877,3971
0.93812,3557
0.94745,3075
0.95678,3243
0.96613,3033
0.97547,3321
0.98482,3067
0.99415,2878
1.00348,3461
1.01283,3785
1.02217,3442
1.03150,3767
1.04085,3882
1.05018,3019
1.05952,2876
1.06887,3050
1.07820,3505
1.08753,3308
1.09688,3249
1.10622,3236
1.11555,2844
1.12490,2633
1.13423,3438
1.14357,2954
1.15292,3063
1.16225,3432
1.17160,3211
1.18093,2993
1.19027,3009
1.19962,3209
1.20895,3478
1.21828,3017
1.22763,2843
1.23697,2930
1.24630,2831
1.25565,3169
1.26498,3017
1.27432,3171
1.28367,3492
1.29300,3237
1.30233,2828
1.31168,2787
1.32102,3104
1.33037,3162
1.33970,3035
1.34903,3481
1.35838,3046
1.36772,2806
1.37705,3201
1.38640,2993
1.39573,3355
1.40507,3190
1.41442,3004
1.42375,3286
1.43308,3494
1.44243,3102
1.45177,3078
1.46110,2704
1.47045,2911
1.47978,3168
1.48912,2783
1.49847,2988
1.50780,3202
1.51715,3074
1.52648,3388
1.53582,3362
1.54517,3108
1.55450,2893
1.56383,3011
1.57318,3115
1.58252,2826
1.59185,3117
1.60120,4148
1.61053,9253
1.61987,14260
1.62922,17311
1.63855,22729
1.64788,31122
1.65723,39317
1.66657,40691
1.67590,38074
1.68525,31466
1.69458,25572
1.70393,23374
1.71327,19254
1.72260,13728
1.73195,13195
1.74128,13977
1.75062,15566
1.75997,16012
1.76930,19266
1.77863,19289
1.78798,19425
1.79732,19840
1.80665,20344
1.81600,20110
1.82533,19644
1.83467,20331
1.84402,20968
1.85335,20715
1.86268,21352
1.87203,25057
1.88137,40084
1.89072,63123
1.90005,92276
1.90938,112764
1.91873,123839
1.92807,146766
1.93740,182913
1.94675,206253
1.95608,205657
1.96542,183560
1.97477,147345
1.98410,114223
1.99343,88874
2.00278,78078
2.01212,70478
2.02145,86904
2.03080,112389
2.04013,104441
2.04947,85034
2.05882,70753
2.06815,58491
2.07750,52683
2.08683,48408
2.09617,43519
2.10552,39936
2.11485,48595
2.12418,97368
2.13353,280731
2.14287,494730
2.15220,491415
2.16155,355188
2.17088,231988
2.18022,169796
2.18957,234013
2.19890,319039
2.20823,232129
2.21758,136601
2.22692,101890
2.23625,142004
2.24560,409771
2.25493,1754808
2.26428,3342249
2.27362,3446227
2.28295,2538471
2.29230,1554819
2.30163,1075660
2.31097,2175371
2.32032,5305276
2.32965,5887721
2.33898,3542538
2.34833,1579733
2.35767,690337
2.36700,342994
2.37635,211165
2.38568,150250
2.39502,108275
2.40437,89688
2.41370,92448
2.42305,90507
2.43238,82599
2.44172,66681
2.45107,56230
2.46040,55005
2.46973,52432
2.47908,53589
2.48842,49675
2.49775,45606
2.50710,42474
2.51643,40869
2.52577,38723
2.53512,39970
2.54445,45962
2.55378,51832
2.56313,72505
2.57247,98974
2.58180,98684
2.59115,84164
2.60048,76772
2.60983,84509
2.61917,124344
2.62850,155464
2.63785,139177
2.64718,123155
2.65652,111668
2.66587,82110
2.67520,59097
2.68453,45570
2.69388,42740
2.70322,39753
2.71255,65580
2.72190,152485
2.73123,224826
2.74057,189555
2.74992,129831
2.75925,95488
2.76858,90582
2.77793,104760
2.78727,119821
2.79662,106958
2.80595,93885
2.81528,88118
2.82463,84666
2.83397,87054
2.84330,190406
2.85265,578243
2.86198,1111814
2.87132,1090703
2.88067,641963
2.89000,297214
2.89933,150974
2.90868,89961
2.91802,64830
2.92735,53779
2.93670,49810
2.94603,41856
2.95537,40636
2.96472,39133
2.97405,38705
2.98340,38189
2.99273,39463
3.00207,44873
3.01142,55187
3.02075,148012
3.03008,368900
3.03943,408451
3.04877,287666
3.05810,186732
3.06745,142289
3.07678,112456
3.08612,86817
3.09547,61353
3.10480,46911
3.11413,40586
3.12348,37021
3.13282,37760
3.14217,46889
3.15150,78090
3.16083,136144
3.17018,153211
3.17952,108817
3.18885,68223
3.19820,49762
3.20753,40656
3.21687,38046
3.22622,33149
3.23555,31451
3.24488,32397
3.25423,33621
3.26357,34396
3.27290,32271
3.28225,33332
3.29158,33484
3.30092,35587
3.31027,35637
3.31960,36614
3.32895,32118
3.33828,30096
3.34762,31136
3.35697,30099
3.36630,29899
3.37563,28018
3.38498,29614
3.39432,30326
3.40365,33551
3.41300,40751
3.42233,43556
3.43167,40754
3.44102,39231
3.45035,39894
3.45968,39601
3.46903,36512
3.47837,33997
3.48770,34252
3.49705,34053
3.50638,32031
3.51573,29953
3.52507,28505
3.53440,32716
3.54375,44410
3.55308,95557
3.56242,194381
3.57177,255504
3.58110,219773
3.59043,138584
3.59978,113659
3.60912,95747
3.61845,73356
3.62780,61313
3.63713,50505
3.64647,45845
3.65582,40872
3.66515,42459
3.67448,42555
3.68383,40462
3.69317,39403
3.70252,34966
3.71185,35619
3.72118,37216
3.73053,40260
3.73987,40314
3.74920,35634
3.75855,32071
3.76788,31223
3.77722,29214
3.78657,29183
3.79590,35717
3.80523,49516
3.81458,74597
3.82392,89049
3.83325,75847
3.84260,53713
3.85193,41136
3.86127,36952
3.87062,33579
3.87995,33625
3.88930,39508
3.89863,45028
3.90797,47196
3.91732,42810
3.92665,39039
3.93598,38953
3.94533,41337
3.95467,42742
3.96400,38513
3.97335,35561
3.98268,33246
3.99202,31140
4.00137,29769
4.01070,30163
4.02003,34413
4.02938,53488
4.03872,105578
4.04807,157950
4.05740,154532
4.06673,105143
4.07608,73118
4.08542,64240
4.09475,62594
4.10410,55705
4.11343,44377
4.12277,37584
4.13212,32359
4.14145,31302
4.15078,30945
4.16013,31884
4.16947,29443
4.17880,27705
4.18815,28501
4.19748,28177
4.20682,29250
4.21617,30894
4.22550,30120
4.23485,29741
4.24418,29014
4.25352,28736
4.26287,30905
4.27220,31219
4.28153,31063
4.29088,30936
4.30022,28914
4.30955,28151
4.31890,32354
4.32823,35427
4.33757,36159
4.34692,34322
4.35625,31646
4.36558,29165
4.37493,29221
4.38427,28288
4.39360,28459
4.40295,26436
4.41228,25803
4.42163,26113
4.43097,24436
4.44030,25344
4.44965,26704
4.45898,27190
4.46832,32484
4.47767,36665
4.48700,37816
4.49633,34507
4.50568,29953
4.51502,28016
4.52435,27015
4.53370,27011
4.54303,27300
4.55237,26959
4.56172,25604
4.57105,26189
4.58038,26632
4.58973,26281
4.59907,26202
4.60842,27508
4.61775,27108
4.62708,27885
4.63643,27513
4.64577,27571
4.65510,28747
4.66445,30106
4.67378,28459
4.68312,33414
4.69247,39123
4.70180,47660
4.71113,47960
4.72048,40566
4.72982,39224
4.73915,33584
4.74850,29992
4.75783,29264
4.76718,28272
4.77652,27310
4.78585,29674
4.79520,27806
4.80453,29540
4.81387,30328
4.82322,33611
4.83255,33166
4.84188,28778
4.85123,31082
4.86057,29036
4.86990,35553
4.87925,40474
4.88858,41217
4.89792,35915
4.90727,31962
4.91660,30126
4.92593,30529
4.93528,31003
4.94462,32109
4.95397,31225
4.96330,27001
4.97263,26739
4.98198,25404
4.99132,24754
5.00065,26733
5.01000,25147
5.01933,27921
5.02867,32204
5.03802,32075
5.04735,29899
5.05668,27400
5.06603,26989
5.07537,26370
5.08470,27277
5.09405,26185
5.10338,26214
5.11272,24949
5.12207,26870
5.13140,27483
5.14075,27037
5.15008,27843
5.15942,26404
5.16877,25805
5.17810,28708
5.18743,30335
5.19678,28679
5.20612,26370
5.21545,25817
5.22480,25022
5.23413,25895
5.24347,27522
5.25282,28330
5.26215,29559
5.27148,45683
5.28083,87869
5.29017,131597
5.29950,129128
5.30885,86926
5.31818,58596
5.32753,45212
5.33687,37247
5.34620,31272
5.35555,27433
5.36488,26723
5.37422,27056
5.38357,28990
5.39290,33570
5.40223,34669
5.41158,32907
5.42092,30015
5.43025,28023
5.43960,24833
5.44893,24658
5.45827,24052
5.46762,25607
5.47695,26803
5.48628,25679
5.49563,26372
5.50497,25589
5.51432,26519
5.52365,29709
5.53298,32249
5.54233,28913
5.55167,27680
5.56100,26182
5.57035,24813
5.57968,24855
5.58902,24966
5.59837,23553
5.60770,25706
5.61703,22506
5.62638,24335
5.63572,23401
5.64505,24402
5.65440,25807
5.66373,24314
5.67308,25531
5.68242,26133
5.69175,28244
5.70110,28228
5.71043,31877
5.71977,32100
5.72912,30819
5.73845,30919
5.74778,32111
5.75713,34758
5.76647,33569
5.77580,32418
5.78515,29770
5.79448,26091
5.80382,26097
5.81317,26752
5.82250,29794
5.83183,29792
5.84118,31442
5.85052,27901
5.85987,28869
5.86920,27020
5.87853,28207
5.88788,28559
5.89722,29076
5.90655,34193
5.91590,51746
5.92523,76986
5.93457,74638
5.94392,61979
5.95325,46251
5.96258,36756
5.97193,29234
5.98127,24259
5.99060,24427
5.99995,25073
6.00928,27060
6.01862,26710
6.02797,25316
6.03730,24236
6.04665,21890
6.05598,17729
6.06532,18369
6.07467,16881
6.08400,14018
6.09333,13092
6.10268,13731
6.11202,15548
6.12135,18165
6.13070,26718
6.14003,29725
6.14937,24441
6.15872,16551
6.16805,13348
6.17738,12969
6.18673,12916
6.19607,12080
6.20540,12049
6.21475,12033
6.22408,12696
6.23343,14729
6.24277,14681
6.25210,13789
6.26145,18567
6.27078,22610
6.28012,22635
6.28947,17432
6.29880,12991
6.30813,11984
6.31748,9912
6.32682,9569
6.33615,10511
6.34550,10082
6.35483,9841
6.36417,9750
6.37352,12496
6.38285,16622
6.39220,30084
6.40153,65166
6.41087,114354
6.42022,108356
6.42955,60676
6.43888,27444
6.44823,15291
6.45757,13184
6.46690,12850
6.47625,13398
6.48558,11787
6.49492,12422
6.50427,12824
6.51360,12816
6.52293,12156
6.53228,12583
6.54162,10809
6.55095,12425
6.56030,11661
6.56963,10791
6.57898,11274
6.58832,11330
6.59765,12542
6.60700,12931
6.61633,13032
6.62567,13325
6.63502,13051
6.64435,12403
6.65368,13364
6.66303,14887
6.67237,14816
6.68170,14793
6.69105,13993
6.70038,13969
6.70972,14606
6.71907,12477
6.72840,11794
6.73773,11618
6.74708,12185
6.75642,10753
6.76577,11675
6.77510,11020
6.78443,12301
6.79378,13210
6.80312,14113
6.81245,12917
6.82180,12254
6.83113,11389
6.84047,10756
6.84982,10623
6.85915,10555
6.86848,10154
6.87783,10627
6.88717,9947
6.89650,11899
6.90585,13448
6.91518,14502
6.92452,14045
6.93387,11454
6.94320,10453
6.95255,11865
6.96188,11664
6.97122,11145
6.98057,11915
6.98990,10294
6.99923,9931
7.00858,11082
7.01792,11209
7.02725,11681
7.03660,10436
7.04593,10062
7.05527,9010
7.06462,9134
7.07395,9316
7.08328,9153
7.09263,9398
7.10197,10563
7.11130,11130
7.12065,12694
7.12998,11432
7.13933,12387
7.14867,11591
7.15800,10500
7.16735,10565
7.17668,10191
7.18602,10797
7.19537,10673
7.20470,11227
7.21403,11920
7.22338,19039
7.23272,37004
7.24205,54703
7.25140,49281
7.26073,30528
7.27007,20980
7.27942,17868
7.28875,17288
7.29808,16482
7.30743,14142
7.31677,11209
7.32612,10476
7.33545,9876
7.34478,10361
7.35413,10953
7.36347,9786
7.37280,12373
7.38215,17323
7.39148,35301
7.40082,74185
7.41017,108374
7.41950,99362
7.42883,68156
7.43818,36608
7.44752,21174
7.45685,14888
7.46620,14007
7.47553,14047
7.48488,14594
7.49422,13946
7.50355,11885
7.51290,12157
7.52223,11569
7.53157,9747
7.54092,11124
7.55025,9989
7.55958,11706
7.56893,12478
7.57827,12135
7.58760,11809
7.59695,10783
7.60628,11586
7.61562,11907
7.62497,12025
7.63430,12266
7.64363,12615
7.65298,13579
7.66232,11369
7.67167,12607
7.68100,24413
7.69033,82326
7.69968,233577
7.70902,321070
7.71835,246025
7.72770,102086
7.73703,34265
7.74637,17323
7.75572,15356
7.76505,14907
7.77438,15156
7.78373,16445
7.79307,17025
7.80240,15010
7.81175,12706
7.82108,12902
7.83042,12925
7.83977,14114
7.84910,17515
7.85845,28985
7.86778,46684
7.87712,48481
7.88647,34826
7.89580,27490
7.90513,30922
7.91448,48968
7.92382,60527
7.93315,48728
7.94250,35698
7.95183,33806
7.96117,26973
7.97052,23209
7.97985,20819
7.98918,20637
7.99853,19457
8.00787,16977
8.01720,17469
8.02655,18868
8.03588,22958
8.04523,28459
8.05457,24754
8.06390,19426
8.07325,16152
8.08258,16211
8.09192,18620
8.10127,20333
8.11060,19645
8.11993,15916
8.12928,14442
8.13862,13450
8.14795,14296
8.15730,14164
8.16663,13372
8.17597,13126
8.18532,13242
8.19465,13260
8.20400,12265
8.21333,13516
8.22267,13114
8.23202,14704
8.24135,16929
8.25068,17160
8.26003,15201
8.26937,13291
8.27870,12522
8.28805,12751
8.29738,12264
8.30672,11922
8.31607,12585
8.32540,11871
8.33473,12736
8.34408,12619
8.35342,12670
8.36275,12290
8.37210,11960
8.38143,13914
8.39078,13940
8.40012,16376
8.40945,16638
8.41880,18375
8.42813,17784
8.43747,15604
8.44682,14527
8.45615,14312
8.46548,14494
8.47483,15794
8.48417,15065
8.49350,14740
8.50285,15333
8.51218,13082
8.52152,13662
8.53087,13728
8.54020,15469
8.54953,15053
8.55888,15682
8.56822,15834
8.57757,13357
8.58690,15047
8.59623,16040
8.60558,17098
8.61492,15843
8.62425,14513
8.63360,14566
8.64293,15315
8.65227,15347
8.66162,15596
8.67095,16017
8.68028,16414
8.68963,16634
8.69897,16955
8.70830,17041
8.71765,15719
8.72698,15861
8.73632,17304
8.74567,22621
8.75500,26663
8.76435,25113
8.77368,30937
8.78302,20292
8.79237,29050
8.80170,51813
8.81103,67833
8.82038,57924
8.82972,37276
8.83905,22042
8.84840,17347
8.85773,16427
8.86707,16725
8.87642,18866
8.88575,18474
8.89508,17055
8.90443,15389
8.91377,15574
8.92310,17886
8.93245,18947
8.94178,18332
8.95113,16701
8.96047,15790
8.96980,14963
8.97915,14850
8.98848,14531
8.99782,14715
9.00717,15925
9.01650,15104
9.02583,14737
9.03518,15988
9.04452,15618
9.05385,17732
9.06320,18930
9.07253,21240
9.08187,24057
9.09122,25857
9.10055,23737
9.10990,19244
9.11923,18355
9.12857,22380
9.13792,25228
9.14725,24200
9.15658,18438
9.16593,15908
9.17527,16531
9.18460,15927
9.19395,17178
9.20328,19268
9.21262,21629
9.22197,34819
9.23130,47800
9.24063,47954
9.24998,31909
9.25932,21000
9.26865,16962
9.27800,15016
9.28733,15506
9.29668,15567
9.30602,18045
9.31535,21387
9.32470,31581
9.33403,36428
9.34337,30176
9.35272,28655
9.36205,49578
9.37138,75042
9.38073,84641
9.39007,65864
9.39940,47440
9.40875,34794
9.41808,30764
9.42742,28208
9.43677,23068
9.44610,19046
9.45543,17748
9.46478,15903
9.47412,16759
9.48347,17023
9.49280,19432
9.50213,20106
9.51148,17378
9.52082,17823
9.53015,18981
9.53950,21426
9.54883,26412
9.55817,34777
9.56752,44627
9.57685,36838
9.58618,29282
9.59553,29340
9.60487,28038
9.61420,21838
9.62355,18013
9.63288,16107
9.64222,16252
9.65157,16794
9.66090,15788
9.67025,17151
9.67958,15531
9.68892,17586
9.69827,15682
9.70760,16862
9.71693,24288
9.72628,52070
9.73562,124348
9.74495,238769
9.75430,284755
9.76363,234935
9.77297,155498
9.78232,107211
9.79165,76761
9.80098,62993
9.81033,53674
9.81967,55245
9.82902,60690
9.83835,66542
9.84768,66218
9.85703,54961
9.86637,43136
9.87570,40003
9.88505,44363
9.89438,50255
9.90372,51847
9.91307,56129
9.92240,55710
9.93173,42632
9.94108,34232
9.95042,26557
9.95975,36438
9.96910,96126
9.97843,256585
9.98777,419531
9.99712,360726
10.00645,176786
10.01580,67788
10.02513,32015
10.03447,28629
10.04382,25297
10.05315,29104
10.06248,35100
10.07183,38650
10.08117,35741
10.09050,31355
10.09985,34731
10.10918,88160
10.11852,221796
10.12787,351574
10.13720,359777
10.14653,617497
10.15588,1666336
10.16522,2433771
10.17455,1797517
10.18390,650820
10.19323,141674
10.20258,45073
10.21192,31986
10.22125,29499
10.23060,28825
10.23993,30890
10.24927,31096
10.25862,25217
10.26795,22653
10.27728,22755
10.28663,22678
10.29597,22178
10.30530,22889
10.31465,21803
10.32398,20343
10.33332,20270
10.34267,18123
10.35200,20749
10.36133,19704
10.37068,19300
10.38002,18362
10.38937,16412
10.39870,16676
10.40803,18813
10.41738,21150
10.42672,23058
10.43605,24794
10.44540,33360
10.45473,45038
10.46407,49001
10.47342,38665
10.48275,25247
10.49208,17422
10.50143,16872
10.51077,15628
10.52010,15268
10.52945,16725
10.53878,17956
10.54812,17555
10.55747,18301
10.56680,17263
10.57615,19153
10.58548,17667
10.59482,17149
10.60417,17425
10.61350,17960
10.62283,18752
10.63218,21411
10.64152,21108
10.65085,18629
10.66020,18470
10.66953,19775
10.67887,20789
10.68822,21538
10.69755,22173
10.70688,31014
10.71623,39217
10.72557,36008
10.73490,28217
10.74425,35893
10.75358,65419
10.76293,105629
10.77227,114789
10.78160,97341
10.79095,113528
10.80028,154665
10.80962,149837
10.81897,90556
10.82830,45900
10.83763,28946
10.84698,22873
10.85632,24207
10.86565,25662
10.87500,27647
10.88433,28260
10.89367,26137
10.90302,25288
10.91235,24701
10.92170,29244
10.93103,30702
10.94037,29888
10.94972,26238
10.95905,22979
10.96838,20758
10.97773,19098
10.98707,17652
10.99640,16398
11.00575,16959
11.01508,17490
11.02442,16650
11.03377,16255
11.04310,16576
11.05243,17604
11.06178,15154
11.07112,15931
11.08045,15361
11.08980,14881
11.09913,15672
11.10848,16069
11.11782,16891
11.12715,15842
11.13650,15361
11.14583,16819
11.15517,15387
11.16452,16073
11.17385,15092
11.18318,14463
11.19253,15241
11.20187,15274
11.21120,19195
11.22055,18566
11.22988,17726
11.23922,16159
11.24857,16894
11.25790,16885
11.26723,18619
11.27658,17074
11.28592,16824
11.29527,16999
11.30460,16727
11.31393,15485
11.32328,18210
11.33262,21686
11.34195,25799
11.35130,28542
11.36063,26638
11.36997,23414
11.37932,18598
11.38865,20306
11.39798,26427
11.40733,29385
11.41667,26683
11.42600,22680
11.43535,19445
11.44468,17548
11.45403,20343
11.46337,27253
11.47270,29755
11.48205,24563
11.49138,19190
11.50072,16749
11.51007,16600
11.51940,15451
11.52873,14086
11.53808,15704
11.54742,16461
11.55675,20802
11.56610,26812
11.57543,36128
11.58477,36304
11.59412,32616
11.60345,27159
11.61278,23470
11.62213,22052
11.63147,19351
11.64082,20127
11.65015,21306
11.65948,26298
11.66883,27891
11.67817,28205
11.68750,25792
11.69685,24283
11.70618,22687
11.71552,21596
11.72487,21545
11.73420,23607
11.74353,22690
11.75288,21234
11.76222,21941
11.77155,23010
11.78090,21662
11.79023,22730
11.79957,20769
11.80892,20659
11.81825,20688
11.82760,20767
11.83693,19703
11.84627,20836
11.85562,18581
11.86495,18837
11.87428,19667
11.88363,19540
11.89297,20170
11.90230,19350
11.91165,19464
11.92098,20649
11.93032,23291
11.93967,28363
11.94900,31272
11.95833,27005
11.96768,21713
11.97702,19807
11.98635,19555
11.99570,22691
12.00503,28159
12.01438,31857
12.02372,29605
12.03305,23739
12.04240,21593
12.05173,18174
12.06107,18688
12.07042,16909
12.07975,17754
12.08908,18465
12.09843,17533
12.10777,17485
12.11710,17520
12.12645,17209
12.13578,17436
12.14512,20543
12.15447,24464
12.16380,36624
12.17313,50747
12.18248,49317
12.19182,31546
12.20117,22482
12.21050,20663
12.21983,23148
12.22918,24616
12.23852,23349
12.24785,20477
12.25720,21478
12.26653,29201
12.27587,40272
12.28522,43598
12.29455,34415
12.30388,26591
12.31323,21781
12.32257,20803
12.33190,22115
12.34125,21557
12.35058,21467
12.35992,18289
12.36927,18808
12.37860,19670
12.38795,18798
12.39728,18794
12.40662,17935
12.41597,17873
12.42530,17817
12.43463,17980
12.44398,19220
12.45332,19839
12.46265,20506
12.47200,22017
12.48133,20192
12.49067,22014
12.50002,19940
12.50935,20202
12.51868,20266
12.52803,20571
12.53737,21153
12.54672,20871
12.55605,26902
12.56538,27105
12.57473,27214
12.58407,23319
12.59340,17970
12.60275,18442
12.61208,19367
12.62142,22788
12.63077,25500
12.64010,29732
12.64943,30675
12.65878,28898
12.66812,23221
12.67745,20039
12.68680,15574
12.69613,16580
12.70547,16583
12.71482,17567
12.72415,18248
12.73350,17982
12.74283,20630
12.75217,19719
12.76152,18016
12.77085,17261
12.78018,17399
12.78953,17439
12.79887,15946
12.80820,17020
12.81755,17546
12.82688,18345
12.83622,18516
12.84557,16957
12.85490,15381
12.86423,16961
12.87358,15798
12.88292,16115
12.89225,16998
12.90160,16843
12.91093,16744
12.92028,15613
12.92962,15494
12.93895,15872
12.94830,16885
12.95763,17018
12.96697,15694
12.97632,14910
12.98565,14203
12.99498,13748
13.00433,14777
13.01367,18576
13.02300,22892
13.03235,24578
13.04168,22335
13.05102,18726
13.06037,15949
13.06970,18048
13.07903,18897
13.08838,16938
13.09772,18246
13.10707,16990
13.11640,16952
13.12573,18474
13.13508,19992
13.14442,21440
13.15375,19574
13.16310,19815
13.17243,20450
13.18177,22301
13.19112,37954
13.20045,74010
13.20978,99852
13.21913,84341
13.22847,56355
13.23780,50071
13.24715,52677
13.25648,39582
13.26583,27907
13.27517,22424
13.28450,21738
13.29385,20820
13.30318,20300
13.31252,22795
13.32187,22939
13.33120,22613
13.34053,21861
13.34988,21260
13.35922,20522
13.36855,18885
13.37790,18967
13.38723,23334
13.39657,25531
13.40592,22630
13.41525,19188
13.42458,19271
13.43393,23567
13.44327,24376
13.45262,21095
13.46195,19885
13.47128,21194
13.48063,20699
13.48997,20104
13.49930,21993
13.50865,32030
13.51798,49489
13.52732,58928
13.53667,44898
13.54600,27498
13.55533,20703
13.56468,19514
13.57402,18642
13.58335,17907
13.59270,17633
13.60203,17716
13.61137,17314
13.62072,17280
13.63005,16891
13.63940,17851
13.64873,19555
13.65807,22403
13.66742,21179
13.67675,18429
13.68608,18131
13.69543,15853
13.70477,15654
13.71410,15311
13.72345,13867
13.73278,14067
13.74212,15122
13.75147,15444
13.76080,17107
13.77013,17007
13.77948,17855
13.78882,20343
13.79815,22425
13.80750,23078
13.81683,19855
13.82618,17631
13.83552,17841
13.84485,18160
13.85420,18390
13.86353,18981
13.87287,20753
13.88222,28531
13.89155,51776
13.90088,97753
13.91023,172143
13.91957,182870
13.92890,108410
13.93825,48408
13.94758,27949
13.95692,24414
13.96627,25143
13.97560,23512
13.98493,22026
13.99428,22006
14.00362,21063
14.01297,20830
14.02230,21012
14.03163,48441
14.04098,294876
14.05032,1690654
14.05965,4581954
14.06900,6099732
14.07833,4149622
14.08767,1301957
14.09702,236807
14.10635,61245
14.11568,37136
14.12503,32245
14.13437,30630
14.14370,32587
14.15305,33115
14.16238,35853
14.17173,32288
14.18107,32337
14.19040,33031
14.19975,33816
14.20908,29834
14.21842,24122
14.22777,22083
14.23710,20737
14.24643,20347
14.25578,21083
14.26512,22509
14.27445,20373
14.28380,19072
14.29313,19586
14.30247,20698
14.31182,27596
14.32115,34632
14.33048,37239
14.33983,29084
14.34917,24442
14.35852,20628
14.36785,18262
14.37718,20456
14.38653,21314
14.39587,20927
14.40520,18603
14.41455,18891
14.42388,17212
14.43322,17946
14.44257,20766
14.45190,27294
14.46123,36492
14.47058,38627
14.47992,33442
14.48925,24985
14.49860,19811
14.50793,20322
14.51727,19688
14.52662,20684
14.53595,21543
14.54530,20046
14.55463,21540
14.56397,21514
14.57332,20963
14.58265,19819
14.59198,19283
14.60133,18918
14.61067,18085
14.62000,17919
14.62935,19628
14.63868,22923
14.64802,28467
14.65737,34314
14.66670,30673
14.67603,28629
14.68538,25845
14.69472,24352
14.70405,20437
14.71340,20173
14.72273,22128
14.73208,22432
14.74142,20974
14.75075,21513
14.76010,20697
14.76943,19736
14.77877,20610
14.78812,21672
14.79745,21387
14.80678,20757
14.81613,18562
14.82547,21208
14.83480,22080
14.84415,25652
14.85348,34634
14.86282,40146
14.87217,34925
14.88150,26885
14.89085,20931
14.90018,18799
14.90952,19686
14.91887,20795
14.92820,19365
14.93753,18165
14.94688,18094
14.95622,21398
14.96555,24995
14.97490,23965
14.98423,23846
14.99357,25877
15.00292,29635
15.01225,30641
15.02158,26029
15.03093,26646
15.04027,29101
15.04960,31303
15.05895,29461
15.06828,30671
15.07763,25381
15.08697,20498
15.09630,19845
15.10565,22687
15.11498,27741
15.12432,33201
15.13367,33932
15.14300,29036
15.15233,21898
15.16168,18049
15.17102,20058
15.18035,21539
15.18970,26071
15.19903,38594
15.20837,49583
15.21772,52221
15.22705,42391
15.23638,31266
15.24573,25410
15.25507,24699
15.26442,23969
15.27375,24521
15.28308,22162
15.29243,21737
15.30177,21257
15.31110,21417
15.32045,26507
15.32978,29135
15.33912,28165
15.34847,26312
15.35780,26537
15.36713,30066
15.37648,28809
15.38582,24358
15.39515,21767
15.40450,20784
15.41383,22677
15.42317,25079
15.43252,22570
15.44185,21719
15.45120,20338
15.46053,21038
15.46987,20498
15.47922,22716
15.48855,24837
15.49788,29122
15.50723,41888
15.51657,46357
15.52590,41060
15.53525,31583
15.54458,23792
15.55392,21128
15.56327,20854
15.57260,21518
15.58193,22269
15.59128,24591
15.60062,23294
15.60995,24379
15.61930,25687
15.62863,26805
15.63798,30791
15.64732,32176
15.65665,32774
15.66600,28280
15.67533,25215
15.68467,26471
15.69402,31940
15.70335,35545
15.71268,32207
15.72203,28871
15.73137,30160
15.74070,33400
15.75005,34717
15.75938,31998
15.76872,32181
15.77807,28168
15.78740,25321
15.79673,26817
15.80608,30705
15.81542,45885
15.82477,84015
15.83410,134395
15.84343,143246
15.85278,105175
15.86212,68412
15.87145,52241
15.88080,47742
15.89013,50087
15.89947,49124
15.90882,44758
15.91815,38437
15.92748,33483
15.93683,29706
15.94617,25841
15.95550,30296
15.96485,31317
15.97418,34879
15.98353,44108
15.99287,42949
16.00220,37929
16.01155,30160
16.02088,27425
16.03022,28776
16.03957,29408
16.04890,31766
16.05823,33358
16.06758,30701
16.07692,31351
16.08625,28193
16.09560,27413
16.10493,30491
16.11427,32095
16.12362,32262
16.13295,30000
16.14228,28141
16.15163,27610
16.16097,27764
16.17032,26771
16.17965,25372
16.18898,26589
16.19833,27568
16.20767,27022
16.21700,28101
16.22635,30873
16.23568,32544
16.24502,33284
16.25437,31913
16.26370,32398
16.27303,39389
16.28238,70779
16.29172,119250
16.30105,138273
16.31040,105597
16.31973,57766
16.32907,34966
16.33842,28503
16.34775,25329
16.35710,22733
16.36643,23776
16.37577,23126
16.38512,24811
16.39445,26735
16.40378,29559
16.41313,28976
16.42247,31178
16.43180,28077
16.44115,29726
16.45048,33731
16.45982,32663
16.46917,29537
16.47850,27504
16.48783,28320
16.49718,27840
16.50652,29674
16.51585,29696
16.52520,28031
16.53453,26296
16.54388,26675
16.55322,23246
16.56255,23462
16.57190,27748
16.58123,26454
16.59057,26383
16.59992,25088
16.60925,27388
16.61858,32235
16.62793,31320
16.63727,32309
16.64660,27623
16.65595,25458
16.66528,25763
16.67462,28296
16.68397,33407
16.69330,34618
16.70265,33133
16.71198,29187
16.72132,28609
16.73067,37209
16.74000,57471
16.74933,69605
16.75868,56810
16.76802,35010
16.77735,27688
16.78670,23823
16.79603,25362
16.80537,26378
16.81472,28287
16.82405,30278
16.83338,33241
16.84273,30271
16.85207,26427
16.86140,24240
16.87075,25389
16.88008,25583
16.88943,25472
16.89877,30901
16.90810,38887
16.91745,40344
16.92678,38917
16.93612,35630
16.94547,38557
16.95480,38724
16.96413,36487
16.97348,30504
16.98282,25891
16.99215,25399
17.00150,24465
17.01083,30294
17.02017,42982
17.02952,51553
17.03885,46220
17.04818,37042
17.05753,33660
17.06687,30799
17.07622,28190
17.08555,29136
17.09488,27755
17.10423,26805
17.11357,27238
17.12290,29733
17.13225,33136
17.14158,32485
17.15092,27642
17.16027,24671
17.16960,24748
17.17893,24712
17.18828,23250
17.19762,24330
17.20695,24067
17.21630,25396
17.22563,23690
17.23497,23400
17.24432,24046
17.25365,24512
17.26300,28649
17.27233,28338
17.28167,27222
17.29102,27931
17.30035,26686
17.30968,29790
17.31903,31263
17.32837,31795
17.33770,29361
17.34705,26840
17.35638,28553
17.36572,42257
17.37507,72437
17.38440,92795
17.39373,79199
17.40308,48259
17.41242,38911
17.42175,33975
17.43110,34531
17.44043,32886
17.44978,30946
17.45912,29707
17.46845,31511
17.47780,53676
17.48713,222500
17.49647,931742
17.50582,1871639
17.51515,1835507
17.52448,863020
17.53383,226007
17.54317,67859
17.55250,41956
17.56185,37252
17.57118,38581
17.58052,38154
17.58987,37301
17.59920,31774
17.60855,31072
17.61788,27711
17.62722,27692
17.63657,28612
17.64590,33614
17.65523,36328
17.66458,37525
17.67392,35673
17.68325,38549
17.69260,39964
17.70193,40619
17.71127,38517
17.72062,31742
17.72995,30912
17.73928,31976
17.74863,34569
17.75797,35675
17.76730,35775
17.77665,33160
17.78598,26611
17.79533,25975
17.80467,25459
17.81400,25981
17.82335,29458
17.83268,26987
17.84202,31166
17.85137,36201
17.86070,44424
17.87003,39993
17.87938,38690
17.88872,35112
17.89805,31796
17.90740,28017
17.91673,23736
17.92607,25409
17.93542,25797
17.94475,26310
17.95408,31029
17.96343,32094
17.97277,29577
17.98212,25488
17.99145,25339
18.00078,23795
18.01013,22861
18.01947,23146
18.02880,25481
18.03815,26965
18.04748,29595
18.05682,31408
18.06617,27363
18.07550,23564
18.08483,24988
18.09418,26553
18.10352,29620
18.11285,28718
18.12220,27880
18.13153,29451
18.14087,29553
18.15022,30120
18.15955,28240
18.16890,29871
18.17823,24217
18.18757,23247
18.19692,25693
18.20625,23963
18.21558,25191
18.22493,24820
18.23427,24080
18.24360,24376
18.25295,23289
18.26228,25050
18.27162,27335
18.28097,28900
18.29030,31283
18.29963,31499
18.30898,32124
18.31832,30416
18.32767,30886
18.33700,33841
18.34633,38938
18.35568,38298
18.36502,34001
18.37435,28428
18.38370,25342
18.39303,24934
18.40237,26786
18.41172,28483
18.42105,30594
18.43038,32425
18.43973,36440
18.44907,37118
18.45840,31382
18.46775,26966
18.47708,28911
18.48642,35348
18.49577,46907
18.50510,51699
18.51445,52740
18.52378,42148
18.53312,35466
18.54247,34104
18.55180,35620
18.56113,32282
18.57048,25600
18.57982,25640
18.58915,23708
18.59850,30724
18.60783,32678
18.61717,33488
18.62652,32298
18.63585,29976
18.64518,25994
18.65453,26800
18.66387,25561
18.67320,28055
18.68255,27069
18.69188,27662
18.70123,28505
18.71057,31119
18.71990,31743
18.72925,31676
18.73858,32356
18.74792,31480
18.75727,27343
18.76660,26234
18.77593,23708
18.78528,23671
18.79462,25011
18.80395,27224
18.81330,25009
18.82263,25161
18.83197,25246
18.84132,26574
18.85065,25638
18.85998,22856
18.86933,22848
18.87867,23411
18.88802,26355
18.89735,30979
18.90668,39856
18.91603,37292
18.92537,33133
18.93470,31697
18.94405,38190
18.95338,37943
18.96272,38551
18.97207,32912
18.98140,30675
18.99073,27814
19.00008,26613
19.00942,26729
19.01875,26765
19.02810,31873
19.03743,45470
19.04677,59536
19.05612,64888
19.06545,61904
19.07480,76181
19.08413,91831
19.09347,88464
19.10282,60065
19.11215,38208
19.12148,29128
19.13083,24699
19.14017,22797
19.14950,22571
19.15885,21535
19.16818,24303
19.17752,25383
19.18687,27729
19.19620,29661
19.20553,29590
19.21488,30988
19.22422,30332
19.23355,28805
19.24290,23435
19.25223,23843
19.26158,23034
19.27092,24712
19.28025,26865
19.28960,28617
19.29893,30136
19.30827,35751
19.31762,33945
19.32695,32722
19.33628,27555
19.34563,23566
19.35497,23065
19.36430,23120
19.37365,20757
19.38298,23547
19.39232,23981
19.40167,27285
19.41100,25309
19.42035,23020
19.42968,22130
19.43902,22751
19.44837,21720
19.45770,22566
19.46703,23772
19.47638,24568
19.48572,26702
19.49505,24986
19.50440,22830
19.51373,21373
19.52307,23792
19.53242,23707
19.54175,22576
19.55108,22038
19.56043,24201
19.56977,25086
19.57910,26346
19.58845,26508
19.59778,24257
19.60713,23540
19.61647,24152
19.62580,27749
19.63515,28397
19.64448,26157
19.65382,23184
19.66317,22102
19.67250,22672
19.68183,22368
19.69118,22849
19.70052,23752
19.70985,29405
19.71920,36129
19.72853,43476
19.73787,39693
19.74722,30721
19.75655,27412
19.76588,26267
19.77523,25954
19.78457,25713
19.79392,25103
19.80325,24179
19.81258,25013
19.82193,23805
19.83127,20744
19.84060,21087
19.84995,22680
19.85928,27426
19.86862,33354
19.87797,34868
19.88730,29988
19.89663,26158
19.90598,23808
19.91532,22728
19.92465,22536
19.93400,21398
19.94333,23224
19.95268,22886
19.96202,21892
19.97135,23569
19.98070,20025
19.99003,19072
19.99937,20697
20.00872,22597
20.01805,22069
20.02738,23843
20.03673,24909
20.04607,24395
20.05540,22249
20.06475,22173
20.07408,23674
20.08342,23823
20.09277,21241
20.10210,20588
20.11143,19257
20.12078,18663
20.13012,20237
20.13947,24547
20.14880,27449
20.15813,27165
20.16748,23641
20.17682,22164
20.18615,20632
20.19550,20271
20.20483,20516
20.21417,20588
20.22352,20943
20.23285,20056
20.24218,19109
20.25153,18531
20.26087,20477
20.27020,21585
20.27955,20827
20.28888,21036
20.29822,19738
20.30757,19183
20.31690,18535
20.32625,19335
20.33558,19616
20.34492,20521
20.35427,21274
20.36360,21188
20.37293,19723
20.38228,19835
20.39162,18272
20.40095,18938
20.41030,18835
20.41963,18417
20.42897,19100
20.43832,20057
20.44765,20769
20.45698,23440
20.46633,23477
20.47567,24400
20.48500,21773
20.49435,20281
20.50368,19644
20.51303,18659
20.52237,19962
20.53170,19855
20.54105,22316
20.55038,29020
20.55972,57944
20.56907,103976
20.57840,120715
20.58773,84607
20.59708,41083
20.60642,26852
20.61575,23483
20.62510,23530
20.63443,22576
20.64377,23280
20.65312,23356
20.66245,24325
20.67178,26617
20.68113,25524
20.69047,24535
20.69982,24496
20.70915,25241
20.71848,23358
20.72783,23533
20.73717,22711
20.74650,23132
20.75585,21293
20.76518,21012
20.77452,20604
20.78387,22954
20.79320,24554
20.80253,23779
20.81188,24096
20.82122,21224
20.83055,21429
20.83990,21812
20.84923,21383
20.85857,20820
20.86792,19594
20.87725,20621
20.88660,21681
20.89593,22298
20.90527,22659
20.91462,21498
20.92395,20431
20.93328,19946
20.94263,19294
20.95197,19776
20.96130,18641
20.97065,17947
20.97998,18833
20.98932,19235
20.99867,18999
21.00800,18208
21.01733,16785
21.02668,17733
21.03602,18926
21.04537,19409
21.05470,19156
21.06403,19430
21.07338,18301
21.08272,19541
21.09205,19867
21.10140,21151
21.11073,22968
21.12007,23142
21.12942,21899
21.13875,19911
21.14808,19442
21.15743,19510
21.16677,20097
21.17610,21328
21.18545,24005
21.19478,24954
21.20412,24015
21.21347,26158
21.22280,24553
21.23215,23918
21.24148,21963
21.25082,21788
21.26017,22976
21.26950,26188
21.27883,27589
21.28818,25409
21.29752,22788
21.30685,22603
21.31620,21953
21.32553,21508
21.33487,20933
21.34422,20574
21.35355,20421
21.36288,19819
21.37223,18996
21.38157,20404
21.39090,19776
21.40025,21785
21.40958,21254
21.41893,22267
21.42827,22125
21.43760,20011
21.44695,20657
21.45628,19448
21.46562,20030
21.47497,22772
21.48430,20843
21.49363,21084
21.50298,20567
21.51232,21473
21.52165,19807
21.53100,20548
21.54033,18660
21.54967,20023
21.55902,20709
21.56835,25711
21.57768,29568
21.58703,31049
21.59637,25278
21.60572,22367
21.61505,22240
21.62438,21258
21.63373,20533
21.64307,19359
21.65240,20253
21.66175,21405
21.67108,20886
21.68042,20936
21.68977,21589
21.69910,21194
21.70843,20494
21.71778,23319
21.72712,24055
21.73645,24108
21.74580,23366
21.75513,18310
21.76448,19159
21.77382,18298
21.78315,19751
21.79250,19688
21.80183,21172
21.81117,21899
21.82052,22138
21.82985,22703
21.83918,21657
21.84853,20998
21.85787,20354
21.86720,21498
21.87655,23074
21.88588,25618
21.89522,27452
21.90457,23004
21.91390,22265
21.92323,21063
21.93258,20550
21.94192,21467
21.95127,21123
21.96060,24265
21.96993,26598
21.97928,28756
21.98862,28734
21.99795,24668
22.00730,22437
22.01663,22501
22.02597,21554
22.03532,21821
22.04465,20346
22.05398,21041
22.06333,21609
22.07267,23623
22.08200,22453
22.09135,23984
22.10068,22580
22.11002,21141
22.11937,20856
22.12870,21503
22.13805,21206
22.14738,25410
22.15672,26368
22.16607,26878
22.17540,26804
22.18473,23478
22.19408,20731
22.20342,20356
22.21275,21548
22.22210,20832
22.23143,22262
22.24077,21993
22.25012,23707
22.25945,22019
22.26878,21934
22.27813,21024
22.28747,23136
22.29680,21353
22.30615,21424
22.31548,21088
22.32483,20275
22.33417,19887
22.34350,21577
22.35285,21553
22.36218,20787
22.37152,20028
22.38087,19003
22.39020,20268
22.39953,18556
22.40888,17934
22.41822,19461
22.42755,20112
22.43690,21101
22.44623,19008
22.45557,19510
22.46492,19708
22.47425,19376
22.48358,19472
22.49293,19766
22.50227,21025
22.51162,20286
22.52095,20766
22.53028,22166
22.53963,20231
22.54897,17837
22.55830,18301
22.56765,20662
22.57698,20518
22.58632,20647
22.59567,20216
22.60500,19541
22.61433,20749
22.62368,19710
22.63302,19443
22.64235,19658
22.65170,18716
22.66103,19383
22.67038,18460
22.67972,21365
22.68905,21459
22.69840,20994
22.70773,19743
22.71707,19608
22.72642,19804
22.73575,21613
22.74508,22066
22.75443,22133
22.76377,22069
22.77310,21285
22.78245,20976
22.79178,20567
22.80112,20406
22.81047,21093
22.81980,20909
22.82913,21230
22.83848,20848
22.84782,20031
22.85717,21858
22.86650,20890
22.87583,20073
22.88518,20542
22.89452,21130
22.90385,21290
22.91320,18314
22.92253,20990
22.93187,20482
22.94122,20450
22.95055,20067
22.95988,20325
22.96923,19499
22.97857,19381
22.98790,20788
22.99725,20470
23.00658,19857
23.01592,18075
23.02527,18554
23.03460,20369
23.04395,19943
23.05328,20002
23.06262,19802
23.07197,19462
23.08130,19258
23.09063,18584
23.09998,16863
23.10932,17524
23.11865,18818
23.12800,17710
23.13733,18300
23.14667,18752
23.15602,18804
23.16535,18735
23.17468,17939
23.18403,18846
23.19337,17235
23.20270,18066
23.21205,17824
23.22138,17934
23.23073,18133
23.24007,17587
23.24940,17300
23.25875,17895
23.26808,17669
23.27742,17650
23.28677,18347
23.29610,18424
23.30543,19254
23.31478,21344
23.32412,22988
23.33345,25998
23.34280,24182
23.35213,21669
23.36147,19205
23.37082,20337
23.38015,20382
23.38950,20152
23.39883,20500
23.40817,20114
23.41752,21363
23.42685,19533
23.43618,21269
23.44553,19916
23.45487,21197
23.46420,22039
23.47355,21526
23.48288,21368
23.49222,19717
23.50157,19405
23.51090,18725
23.52023,20366
23.52958,18703
23.53892,19154
23.54825,19403
23.55760,19659
23.56693,20385
23.57628,21589
23.58562,19596
23.59495,20448
23.60430,21350
23.61363,20066
23.62297,19512
23.63232,18923
23.64165,18675
23.65098,19764
23.66033,20304
23.66967,18193
23.67900,20597
23.68835,19318
23.69768,20500
23.70702,20256
23.71637,20698
23.72570,21815
23.73503,22660
23.74438,21980
23.75372,19271
23.76307,19440
23.77240,20466
23.78173,20748
23.79108,19820
23.80042,19132
23.80975,19346
23.81910,19617
23.82843,18735
23.83777,19263
23.84712,19068
23.85645,19019
23.86578,19043
23.87513,19383
23.88447,19040
23.89380,18702
23.90315,19954
23.91248,18397
23.92182,19328
23.93117,17710
23.94050,19273
23.94985,19616
23.95918,18993
23.96852,19220
23.97787,19077
23.98720,18679
23.99653,18164
24.00588,19132
24.01522,17952
24.02455,19045
24.03390,18241
24.04323,19289
24.05257,18324
24.06192,18380
24.07125,19349
24.08058,19176
24.08993,18470
24.09927,18342
24.10860,19456
24.11795,20281
24.12728,19286
24.13663,19302
24.14597,19898
24.15530,20838
24.16465,20406
24.17398,20098
24.18332,19655
24.19267,20080
24.20200,18857
24.21133,18790
24.22068,20181
24.23002,20355
24.23935,19985
24.24870,19906
24.25803,20634
24.26737,20714
24.27672,18623
24.28605,18859
24.29538,19159
24.30473,20247
24.31407,20180
24.32342,21217
24.33275,21703
24.34208,19628
24.35143,21075
24.36077,20112
24.37010,20306
24.37945,19843
24.38878,18943
24.39812,19554
24.40747,19450
24.41680,19234
24.42613,19568
24.43548,20278
24.44482,20042
24.45415,18080
24.46350,19676
24.47283,19093
24.48218,19516
24.49152,18699
24.50085,19380
24.51020,20200
24.51953,18900
24.52887,19667
24.53822,20159
24.54755,19449
24.55688,19886
24.56623,18760
24.57557,19815
24.58490,20518
24.59425,20332
24.60358,19817
24.61292,19981
24.62227,18970
24.63160,19574
24.64093,20062
24.65028,19252
24.65962,18991
24.66897,20440
24.67830,20769
24.68763,21082
24.69698,19946
24.70632,19903
24.71565,19604
24.72500,19505
24.73433,19253
24.74367,20967
24.75302,20363
24.76235,19285
24.77168,21090
24.78103,19462
24.79037,18912
24.79970,19727
24.80905,20593
24.81838,20445
24.82772,20655
24.83707,19622
24.84640,18805
24.85575,18360
24.86508,19325
24.87442,19210
24.88377,20763
24.89310,21388
24.90243,20717
24.91178,19938
24.92112,19873
24.93045,20390
24.93980,20773
24.94913,20301
24.95847,21889
24.96782,20578
24.97715,21159
24.98648,20138
24.99583,19528
25.00517,20265
25.01450,20662
25.02385,20825
25.03318,19771
25.04253,20718
25.05187,19529
25.06120,21373
25.07055,21096
25.07988,20808
25.08922,21452
25.09857,20902
25.10790,21430
25.11723,20367
25.12658,21075
25.13592,20166
25.14525,21199
25.15460,20796
25.16393,20544
25.17327,19532
25.18262,20118
25.19195,20904
25.20130,21125
25.21063,19943
25.21997,19906
25.22932,21659
25.23865,20571
25.24798,19653
25.25733,20888
25.26667,20302
25.27600,20916
25.28535,21277
25.29468,21265
25.30402,21373
25.31337,22311
25.32270,25817
25.33203,34110
25.34138,43474
25.35072,42358
25.36005,39796
25.36940,34588
25.37873,32520
25.38808,31508
25.39742,27959
25.40675,27596
25.41610,25811
25.42543,25283
25.43477,24685
25.44412,24287
25.45345,23173
25.46278,24778
25.47213,22876
25.48147,24474
25.49080,27679
25.50015,25959
25.50948,23879
25.51882,24515
25.52817,23733
25.53750,21782
25.54683,22087
25.55618,22876
25.56552,23467
25.57487,22561
25.58420,22415
25.59353,22142
25.60288,21555
25.61222,21004
25.62155,21598
25.63090,23687
25.64023,21966
25.64957,22192
25.65892,22096
25.66825,21873
25.67758,22696
25.68693,22861
25.69627,22212
25.70560,23593
25.71495,23025
25.72428,23401
25.73362,22575
25.74297,22370
25.75230,23666
25.76165,21649
25.77098,21906
25.78032,22148
25.78967,24117
25.79900,22463
25.80833,23125
25.81768,24007
25.82702,24817
25.83635,24596
25.84570,24553
25.85503,23874
25.86437,23376
25.87372,22033
25.88305,22238
25.89238,22733
25.90173,23605
25.91107,23550
25.92040,23421
25.92975,24738
25.93908,23348
25.94843,23934
25.95777,22977
25.96710,23140
25.97645,24022
25.98578,24136
25.99512,24996
26.00447,22662
26.01380,24649
26.02313,23936
26.03248,23583
26.04182,24345
26.05115,23214
26.06050,22906
26.06983,23902
26.07917,22860
26.08852,24296
26.09785,23043
26.10720,23681
26.11653,22904
26.12587,25753
26.13522,26818
26.14455,25810
26.15388,24604
26.16323,26177
26.17257,24037
26.18190,24488
26.19125,25872
26.20058,24725
26.20992,24177
26.21927,23948
26.22860,24220
26.23793,24099
26.24728,24497
26.25662,23604
26.26595,24314
26.27530,25040
26.28463,25530
26.29398,22876
26.30332,23770
26.31265,22542
26.32200,24085
26.33133,24715
26.34067,23546
26.35002,23604
26.35935,23310
26.36868,25049
26.37803,24147
26.38737,23910
26.39670,24298
26.40605,24029
26.41538,23973
26.42472,24250
26.43407,25889
26.44340,24092
26.45273,25111
26.46208,24269
26.47142,25125
26.48077,24905
26.49010,25979
26.49943,25311
26.50878,24387
26.51812,24587
26.52745,24870
26.53680,25135
26.54613,25618
26.55547,24987
26.56482,25109
26.57415,25424
26.58348,26508
26.59283,26088
26.60217,25397
26.61150,27104
26.62085,25220
26.63018,24970
26.63952,26954
26.64887,26051
26.65820,27543
26.66755,26172
26.67688,26993
26.68622,26601
26.69557,25707
26.70490,27072
26.71423,26771
26.72358,25098
26.73292,26852
26.74225,25843
26.75160,27415
26.76093,28199
26.77027,27179
26.77962,28005
26.78895,28430
26.79828,26979
26.80763,26120
26.81697,27900
26.82632,26750
26.83565,26006
26.84498,27920
26.85433,27259
26.86367,26333
26.87300,25981
26.88235,26047
26.89168,28133
26.90102,26548
26.91037,27668
26.91970,26708
26.92903,26675
26.93838,27030
26.94772,26301
26.95705,27180
26.96640,28482
26.97573,27901
26.98507,27822
26.99442,27903
27.00375,29987
27.01310,28797
27.02243,29230
27.03177,28321
27.04112,28198
27.05045,28961
27.05978,29291
27.06913,27671
27.07847,28052
27.08780,30155
27.09715,28803
27.10648,29881
27.11582,29868
27.12517,29771
27.13450,27234
27.14383,28945
27.15318,29472
27.16252,30208
27.17185,29180
27.18120,29907
27.19053,29267
27.19988,27354
27.20922,27043
27.21855,28877
27.22790,29369
27.23723,28301
27.24657,30087
27.25592,28845
27.26525,29787
27.27458,29941
27.28393,28362
27.29327,28638
27.30260,28183
27.31195,29827
27.32128,28985
27.33062,31403
27.33997,30322
27.34930,30045
27.35863,28745
27.36798,29695
27.37732,29127
27.38667,29158
27.39600,29795
27.40533,29150
27.41468,30769
27.42402,29664
27.43335,31348
27.44270,31301
27.45203,31418
27.46137,32310
27.47072,31107
27.48005,30627
27.48938,31791
27.49873,32170
27.50807,30732
27.51740,28842
27.52675,31115
27.53608,31767
27.54542,31776
27.55477,33060
27.56410,32397
27.57345,32003
27.58278,30834
27.59212,30083
27.60147,32066
27.61080,31684
27.62013,30911
27.62948,31791
27.63882,30686
27.64815,30229
27.65750,31261
27.66683,31410
27.67617,34360
27.68552,32239
27.69485,34312
27.70418,36675
27.71353,38225
27.72287,41584
27.73220,37391
27.74155,37348
27.75088,37093
27.76023,37230
27.76957,37481
27.77890,37464
27.78825,35372
27.79758,35528
27.80692,36328
27.81627,37324
27.82560,36104
27.83493,35773
27.84428,35531
27.85362,36111
27.86295,37940
27.87230,35264
27.88163,36970
27.89097,36609
27.90032,36283
27.90965,36331
27.91900,36334
27.92833,38390
27.93767,35265
27.94702,37331
27.95635,35766
27.96568,36381
27.97503,37043
27.98437,36849
27.99370,35538
28.00305,35770
28.01238,36951
28.02172,37014
28.03107,36558
28.04040,36110
28.04973,34388
28.05908,34876
28.06842,35481
28.07775,36847
28.08710,35618
28.09643,34615
28.10578,38047
28.11512,37008
28.12445,38122
28.13380,39108
28.14313,37589
28.15247,38035
28.16182,37455
28.17115,39577
28.18048,36161
28.18983,38381
28.19917,38277
28.20850,38469
28.21785,38419
28.22718,37965
28.23652,39868
28.24587,39397
28.25520,37113
28.26453,36326
28.27388,37246
28.28322,38668
28.29257,37103
28.30190,36406
28.31123,36426
28.32058,38713
28.32992,36801
28.33925,38050
28.34860,39012
28.35793,39290
28.36727,37350
28.37662,38104
28.38595,38175
28.39528,39930
28.40463,38445
28.41397,38685
28.42330,38341
28.43265,38450
28.44198,39924
28.45133,40192
28.46067,39705
28.47000,39633
28.47935,40658
28.48868,40513
28.49802,42468
28.50737,40946
28.51670,41709
28.52603,39586
28.53538,40061
28.54472,40835
28.55405,39423
28.56340,39840
28.57273,43443
28.58207,42836
28.59142,40820
28.60075,43846
28.61008,42081
28.61943,44207
28.62877,44766
28.63812,40748
28.64745,42029
28.65678,45028
28.66613,43596
28.67547,47247
28.68480,46183
28.69415,47409
28.70348,44128
28.71282,45065
28.72217,46741
28.73150,43242
28.74083,42660
28.75018,45305
28.75952,47825
28.76885,45696
28.77820,45762
28.78753,45509
28.79687,45116
28.80622,44789
28.81555,43113
28.82490,44366
28.83423,44184
28.84357,44712
28.85292,44788
28.86225,48140
28.87158,46962
28.88093,47360
28.89027,47851
28.89960,45476
28.90895,47573
28.91828,47507
28.92762,47261
28.93697,44948
28.94630,47252
28.95563,47155
28.96498,47130
28.97432,48942
28.98365,47768
28.99300,45594
29.00233,46403
29.01168,48565
29.02102,46708
29.03035,46998
29.03970,48599
29.04903,50162
29.05837,49911
29.06772,49426
29.07705,49137
29.08638,50391
29.09573,50091
29.10507,49374
29.11440,51014
29.12375,46943
29.13308,49400
29.14242,50436
29.15177,48464
29.16110,50455
29.17043,50184
29.17978,51338
29.18912,55695
29.19847,53595
29.20780,50903
29.21713,51366
29.22648,52675
29.23582,49701
29.24515,52326
29.25450,50727
29.26383,50109
29.27317,52174
29.28252,50780
29.29185,53491
29.30118,50844
29.31053,50093
29.31987,50860
29.32920,50715
29.33855,53485
29.34788,54221
29.35722,51918
29.36657,52231
29.37590,53392
29.38525,52246
29.39458,52821
29.40392,51025
29.41327,52708
29.42260,50129
29.43193,53425
29.44128,54269
29.45062,56860
29.45995,57500
29.46930,55788
29.47863,57098
29.48797,58446
29.49732,56663
29.50665,54432
29.51598,54448
29.52533,53469
29.53467,51664
29.54402,56590
29.55335,55388
29.56268,54220
29.57203,54104
29.58137,53502
29.59070,53794
29.60005,55794
29.60938,52349
29.61872,54313
29.62807,52840
29.63740,54026
29.64673,55365
29.65608,54445
29.66542,54366
29.67475,55251
29.68410,54704
29.69343,56461
29.70277,56665
29.71212,55375
29.72145,55927
29.73080,56769
29.74013,58269
29.74947,54804
29.75882,56408
29.76815,56137
29.77748,57681
29.78683,54679
29.79617,55028
29.80550,57087
29.81485,55735
29.82418,55318
29.83352,53612
29.84287,56493
29.85220,56426
29.86153,54958
29.87088,55472
29.88022,54806
29.88955,53177
29.89890,54505
29.90823,53757
29.91758,57838
29.92692,59676
29.93625,54148
29.94560,56432
29.95493,55120
29.96427,58689
29.97362,54916
29.98295,59054
29.99228,58204
30.00163,56966
30.01097,58056
30.02030,53651
30.02965,56258
30.03898,58577
30.04832,57602
30.05767,58517
30.06700,57257
30.07633,58909
30.08568,58483
30.09502,57534
30.10437,59620
30.11370,57117
30.12303,58855
30.13238,54915
30.14172,58100
30.15105,56846
30.16040,57775
30.16973,57850
30.17907,56413
30.18842,58609
30.19775,59842
30.20708,56812
30.21643,57798
30.22577,56754
30.23510,57698
30.24445,59263
30.25378,56216
30.26313,54695
30.27247,58269
30.28180,58150
30.29115,56425
30.30048,57368
30.30982,58292
30.31917,58031
30.32850,58917
30.33783,57798
30.34718,56856
30.35652,61027
30.36585,58743
30.37520,60754
30.38453,60014
30.39387,59736
30.40322,58495
30.41255,57641
30.42188,59023
30.43123,58886
30.44057,58270
30.44992,56664
30.45925,58769
30.46858,58681
30.47793,58298
30.48727,57391
30.49660,57475
30.50595,59270
30.51528,59059
30.52462,57695
30.53397,58984
30.54330,59057
30.55263,58240
30.56198,59723
30.57132,60929
30.58065,63578
30.59000,62401
30.59933,62437
30.60867,67901
30.61802,67693
30.62735,69651
30.63670,72265
30.64603,73741
30.65537,71734
30.66472,73493
30.67405,73332
30.68338,69289
30.69273,70787
30.70207,71048
30.71140,67682
30.72075,67939
30.73008,65473
30.73942,64372
30.74877,66201
30.75810,64913
30.76743,65630
30.77678,63474
30.78612,63323
30.79545,63897
30.80480,63561
30.81413,65190
30.82348,67759
30.83282,66791
30.84215,65886
30.85150,65748
30.86083,68883
30.87017,68732
30.87952,68043
30.88885,69337
30.89818,70345
30.90753,69986
30.91687,70115
30.92620,70510
30.93555,68279
30.94488,69124
30.95422,69274
30.96357,70989
30.97290,67664
30.98223,66810
30.99158,65589
31.00092,68267
31.01027,65271
31.01960,65594
31.02893,66299
31.03828,67080
31.04762,68163
31.05695,67836
31.06630,68232
31.07563,67410
31.08497,67468
31.09432,67492
31.10365,66567
31.11298,67228
31.12233,67685
31.13167,69258
31.14100,67131
31.15035,68087
31.15968,68079
31.16903,70892
31.17837,71601
31.18770,70731
31.19705,69316
31.20638,71217
31.21572,71903
31.22507,72936
31.23440,71426
31.24373,70810
31.25308,73206
31.26242,70040
31.27175,71948
31.28110,69868
31.29043,70891
31.29977,73196
31.30912,69919
31.31845,68951
31.32778,70174
31.33713,68856
31.34647,69206
31.35582,70028
31.36515,70101
