D:\数据\20220421\20220421-参观测试2.D Thu Apr 21 15:41:57 2022
Start of data points
0.09752,25602
0.10687,25877
0.11620,24368
0.12553,25386
0.13488,27071
0.14422,26304
0.15355,26679
0.16290,25734
0.17223,26021
0.18157,24908
0.19092,24051
0.20025,25896
0.20958,24579
0.21893,24248
0.22827,23477
0.23760,24367
0.24695,22878
0.25628,24824
0.26563,23376
0.27497,23249
0.28430,24497
0.29365,23629
0.30298,24599
0.31232,23398
0.32167,23185
0.33100,22631
0.34033,23515
0.34968,22448
0.35902,23070
0.36835,22635
0.37770,23405
0.38703,22427
0.39637,23397
0.40572,22900
0.41505,24193
0.42440,22594
0.43373,22128
0.44307,23460
0.45242,21540
0.46175,19251
0.47108,16535
0.48043,14331
0.48977,10493
0.49910,7715
0.50845,7824
0.51778,7585
0.52712,7343
0.53647,6888
0.54580,6728
0.55513,6342
0.56448,6549
0.57382,5984
0.58315,6297
0.59250,7241
0.60183,6329
0.61118,6217
0.62052,6667
0.62985,5989
0.63920,6624
0.64853,5309
0.65787,6172
0.66722,5946
0.67655,5778
0.68588,6266
0.69523,5631
0.70457,6091
0.71390,6161
0.72325,4981
0.73258,5728
0.74192,6144
0.75127,6185
0.76060,5666
0.76993,5858
0.77928,5718
0.78862,5476
0.79797,6169
0.80730,5419
0.81663,5504
0.82598,5667
0.83532,5483
0.84465,5276
0.85400,6178
0.86333,5548
0.87267,5601
0.88202,5713
0.89135,6179
0.90068,5395
0.91003,5335
0.91937,4839
0.92870,5431
0.93805,5916
0.94738,5956
0.95672,5024
0.96607,6282
0.97540,5246
0.98475,4306
0.99408,5388
1.00342,5599
1.01277,4614
1.02210,4784
1.03143,4747
1.04078,5540
1.05012,5799
1.05945,5025
1.06880,5420
1.07813,4870
1.08747,5294
1.09682,5079
1.10615,4801
1.11548,5669
1.12483,4623
1.13417,5321
1.14352,5201
1.15285,4615
1.16218,5062
1.17153,4676
1.18087,4927
1.19020,4575
1.19955,4930
1.20888,4965
1.21822,4607
1.22757,4310
1.23690,4421
1.24623,5339
1.25558,5349
1.26492,4763
1.27425,4487
1.28360,5153
1.29293,5360
1.30227,3856
1.31162,3975
1.32095,5270
1.33030,5110
1.33963,4518
1.34897,4767
1.35832,4502
1.36765,5240
1.37698,4392
1.38633,4678
1.39567,4953
1.40500,5314
1.41435,4477
1.42368,4198
1.43302,4791
1.44237,4612
1.45170,5054
1.46103,4737
1.47038,4887
1.47972,4973
1.48905,5019
1.49840,3975
1.50773,4909
1.51708,4133
1.52642,4614
1.53575,4927
1.54510,4588
1.55443,4770
1.56377,4777
1.57312,4690
1.58245,4387
1.59178,4536
1.60113,4604
1.61047,5862
1.61980,10743
1.62915,14994
1.63848,19767
1.64782,25571
1.65717,36478
1.66650,48088
1.67583,53467
1.68518,51321
1.69452,43309
1.70387,34050
1.71320,24064
1.72253,17276
1.73188,18088
1.74122,19685
1.75055,20367
1.75990,22649
1.76923,22105
1.77857,23356
1.78792,25249
1.79725,25497
1.80658,25925
1.81593,24579
1.82527,26587
1.83460,25930
1.84395,26479
1.85328,25668
1.86262,27639
1.87197,30488
1.88130,44209
1.89065,69650
1.89998,101528
1.90932,119993
1.91867,128998
1.92800,143543
1.93733,168030
1.94668,184911
1.95602,180007
1.96535,168207
1.97470,138977
1.98403,115702
1.99337,97556
2.00272,90390
2.01205,87762
2.02138,93350
2.03073,97271
2.04007,94360
2.04942,84360
2.05875,78935
2.06808,70619
2.07743,59592
2.08677,56385
2.09610,51044
2.10545,53701
2.11478,63090
2.12412,90801
2.13347,164327
2.14280,265966
2.15213,271241
2.16148,210054
2.17082,144469
2.18015,144677
2.18950,389881
2.19883,697305
2.20817,545963
2.21752,279940
2.22685,165618
2.23620,172477
2.24553,343624
2.25487,1555327
2.26422,3358705
2.27355,3611501
2.28288,2772591
2.29223,1728008
2.30157,1199293
2.31090,3095914
2.32025,8539971
2.32958,1.000606E+07
2.33892,6265662
2.34827,2861292
2.35760,1238316
2.36693,713332
2.37628,621615
2.38562,470041
2.39495,300750
2.40430,198952
2.41363,174069
2.42298,199294
2.43232,211313
2.44165,162790
2.45100,113661
2.46033,85570
2.46967,78032
2.47902,73573
2.48835,66793
2.49768,59427
2.50703,55699
2.51637,54464
2.52570,52691
2.53505,51893
2.54438,53990
2.55372,69801
2.56307,221836
2.57240,359003
2.58173,317968
2.59108,242534
2.60042,210764
2.60977,233463
2.61910,363578
2.62843,452700
2.63778,358280
2.64712,297028
2.65645,288733
2.66580,209963
2.67513,135553
2.68447,93186
2.69382,67482
2.70315,57688
2.71248,89976
2.72183,219091
2.73117,361704
2.74050,324135
2.74985,216479
2.75918,147153
2.76853,115762
2.77787,114756
2.78720,131197
2.79655,125499
2.80588,106070
2.81522,91146
2.82457,83251
2.83390,81725
2.84323,123102
2.85258,362540
2.86192,826773
2.87125,908810
2.88060,583246
2.88993,307891
2.89927,174170
2.90862,114544
2.91795,90769
2.92728,78430
2.93663,65492
2.94597,59757
2.95532,57875
2.96465,51208
2.97398,51101
2.98333,49593
2.99267,55372
3.00200,61185
3.01135,67195
3.02068,102108
3.03002,288550
3.03937,386321
3.04870,309811
3.05803,219810
3.06738,186800
3.07672,174400
3.08605,142426
3.09540,109855
3.10473,75412
3.11407,56097
3.12342,53266
3.13275,56969
3.14210,71932
3.15143,103412
3.16077,152983
3.17012,170180
3.17945,130729
3.18878,84276
3.19813,63831
3.20747,56229
3.21680,53684
3.22615,49197
3.23548,45293
3.24482,41217
3.25417,41688
3.26350,42992
3.27283,41495
3.28218,39776
3.29152,38878
3.30085,39316
3.31020,40063
3.31953,39218
3.32888,37766
3.33822,37628
3.34755,39550
3.35690,36936
3.36623,38200
3.37557,36328
3.38492,35608
3.39425,39298
3.40358,46414
3.41293,73669
3.42227,92250
3.43160,84953
3.44095,79534
3.45028,78669
3.45962,71964
3.46897,58970
3.47830,52702
3.48763,50122
3.49698,48331
3.50632,43355
3.51567,40398
3.52500,38517
3.53433,37743
3.54368,44404
3.55302,89177
3.56235,217682
3.57170,357514
3.58103,355008
3.59037,270835
3.59972,249242
3.60905,242209
3.61838,191440
3.62773,138056
3.63707,122042
3.64640,103349
3.65575,75746
3.66508,59512
3.67442,51514
3.68377,49153
3.69310,45283
3.70245,52242
3.71178,89596
3.72112,164978
3.73047,213075
3.73980,169329
3.74913,103241
3.75848,70947
3.76782,60555
3.77715,53858
3.78650,46085
3.79583,43770
3.80517,43406
3.81452,47320
3.82385,52120
3.83318,60989
3.84253,76280
3.85187,86478
3.86122,79871
3.87055,68778
3.87988,64335
3.88923,72114
3.89857,84582
3.90790,85917
3.91725,72301
3.92658,68397
3.93592,101116
3.94527,111145
3.95460,93844
3.96393,72854
3.97328,58534
3.98262,47983
3.99195,41364
4.00130,39322
4.01063,36477
4.01997,46343
4.02932,85738
4.03865,223671
4.04800,402860
4.05733,400660
4.06667,261147
4.07602,194192
4.08535,238599
4.09468,290169
4.10403,276372
4.11337,197553
4.12270,119978
4.13205,71599
4.14138,53616
4.15072,47142
4.16007,45780
4.16940,44892
4.17873,42145
4.18808,37819
4.19742,38609
4.20675,39696
4.21610,40392
4.22543,39367
4.23478,39996
4.24412,39455
4.25345,38177
4.26280,38672
4.27213,40651
4.28147,40797
4.29082,41107
4.30015,41237
4.30948,48846
4.31883,70698
4.32817,89689
4.33750,81577
4.34685,61567
4.35618,50410
4.36552,52831
4.37487,72677
4.38420,77466
4.39353,65565
4.40288,50735
4.41222,41602
4.42157,39779
4.43090,40070
4.44023,39729
4.44958,42497
4.45892,58157
4.46825,108641
4.47760,165788
4.48693,186642
4.49627,139367
4.50562,81767
4.51495,50878
4.52428,41815
4.53363,40544
4.54297,41306
4.55230,41407
4.56165,39738
4.57098,36323
4.58033,37169
4.58967,37688
4.59900,45191
4.60835,50283
4.61768,46928
4.62702,44338
4.63637,49707
4.64570,99372
4.65503,196227
4.66438,196605
4.67372,142736
4.68305,139029
4.69240,214612
4.70173,312190
4.71107,290212
4.72042,188560
4.72975,108245
4.73908,72044
4.74843,52329
4.75777,48044
4.76712,45176
4.77645,49290
4.78578,49318
4.79513,43439
4.80447,43459
4.81380,52248
4.82315,55709
4.83248,52863
4.84182,48859
4.85117,42026
4.86050,42454
4.86983,47559
4.87918,53614
4.88852,51494
4.89785,45664
4.90720,41540
4.91653,40065
4.92587,42246
4.93522,49738
4.94455,53058
4.95390,48656
4.96323,40322
4.97257,38367
4.98192,36206
4.99125,37727
5.00058,36659
5.00993,38065
5.01927,44443
5.02860,55076
5.03795,54732
5.04728,48243
5.05662,43241
5.06597,37898
5.07530,38889
5.08463,41154
5.09398,41049
5.10332,38564
5.11265,35811
5.12200,38049
5.13133,41425
5.14068,44434
5.15002,43065
5.15935,39849
5.16870,61925
5.17803,111540
5.18737,121932
5.19672,89338
5.20605,57548
5.21538,43970
5.22473,43526
5.23407,52452
5.24340,64062
5.25275,65597
5.26208,112851
5.27142,423610
5.28077,1218174
5.29010,1946505
5.29943,1741979
5.30878,963880
5.31812,378494
5.32747,149167
5.33680,85222
5.34613,58709
5.35548,53575
5.36482,48741
5.37415,49680
5.38350,61756
5.39283,75139
5.40217,74735
5.41152,62180
5.42085,53761
5.43018,41917
5.43953,39694
5.44887,35237
5.45820,37531
5.46755,38277
5.47688,39425
5.48623,42043
5.49557,44305
5.50490,43636
5.51425,44470
5.52358,46326
5.53292,45605
5.54227,43223
5.55160,39242
5.56093,39371
5.57028,38870
5.57962,39850
5.58895,36073
5.59830,34595
5.60763,32724
5.61697,30562
5.62632,31879
5.63565,34359
5.64498,33503
5.65433,33134
5.66367,33565
5.67302,36322
5.68235,39490
5.69168,40774
5.70103,48828
5.71037,68872
5.71970,71797
5.72905,61131
5.73838,47507
5.74772,48175
5.75707,50199
5.76640,48498
5.77573,46630
5.78508,38980
5.79442,36086
5.80375,35626
5.81310,35548
5.82243,35000
5.83177,36330
5.84112,36614
5.85045,35650
5.85980,34607
5.86913,35148
5.87847,37216
5.88782,37148
5.89715,32432
5.90648,39865
5.91583,65376
5.92517,95187
5.93450,93434
5.94385,73022
5.95318,60848
5.96252,46408
5.97187,41173
5.98120,37047
5.99053,35054
5.99988,33632
6.00922,31633
6.01855,29894
6.02790,28860
6.03723,29499
6.04658,26774
6.05592,23894
6.06525,20704
6.07460,20325
6.08393,20090
6.09327,20362
6.10262,20403
6.11195,27158
6.12128,56952
6.13063,111758
6.13997,145269
6.14930,118293
6.15865,64309
6.16798,32318
6.17732,22819
6.18667,19558
6.19600,18924
6.20535,18233
6.21468,18640
6.22402,18658
6.23337,20358
6.24270,23149
6.25203,35821
6.26138,82308
6.27072,110692
6.28005,88643
6.28940,57040
6.29873,38563
6.30807,33829
6.31742,29929
6.32675,33556
6.33608,33768
6.34543,35667
6.35477,40190
6.36410,42160
6.37345,49077
6.38278,57741
6.39213,78855
6.40147,131057
6.41080,185322
6.42015,173973
6.42948,117559
6.43882,74101
6.44817,62658
6.45750,60095
6.46683,60032
6.47618,61393
6.48552,59967
6.49485,60226
6.50420,61933
6.51353,64603
6.52287,66987
6.53222,65136
6.54155,62197
6.55088,59813
6.56023,59090
6.56957,58676
6.57892,60954
6.58825,60065
6.59758,62973
6.60693,63892
6.61627,63686
6.62560,63651
6.63495,69133
6.64428,63925
6.65362,63250
6.66297,62487
6.67230,61461
6.68163,62761
6.69098,61096
6.70032,62938
6.70965,64993
6.71900,59429
6.72833,55227
6.73767,53584
6.74702,51647
6.75635,53039
6.76570,52216
6.77503,51508
6.78437,52306
6.79372,53390
6.80305,55028
6.81238,52981
6.82173,49694
6.83107,49411
6.84040,47850
6.84975,45141
6.85908,46305
6.86842,44797
6.87777,44635
6.88710,43711
6.89643,45261
6.90578,46535
6.91512,50385
6.92445,44021
6.93380,44336
6.94313,42284
6.95248,42899
6.96182,41410
6.97115,40118
6.98050,38323
6.98983,38633
6.99917,39266
7.00852,42051
7.01785,41115
7.02718,39704
7.03653,36411
7.04587,34935
7.05520,34834
7.06455,33142
7.07388,32826
7.08322,33907
7.09257,35465
7.10190,35117
7.11123,37819
7.12058,38080
7.12992,34626
7.13927,33632
7.14860,31906
7.15793,31607
7.16728,31558
7.17662,31225
7.18595,30732
7.19530,30294
7.20463,32116
7.21397,48234
7.22332,112470
7.23265,264907
7.24198,390245
7.25133,328696
7.26067,168595
7.27000,83194
7.27935,56861
7.28868,48314
7.29803,45588
7.30737,40233
7.31670,31353
7.32605,28492
7.33538,27417
7.34472,27787
7.35407,27147
7.36340,27320
7.37273,30580
7.38208,63764
7.39142,198616
7.40075,464582
7.41010,669430
7.41943,610745
7.42877,370404
7.43812,178758
7.44745,77723
7.45678,45423
7.46613,36917
7.47547,36365
7.48482,35177
7.49415,33215
7.50348,31005
7.51283,28172
7.52217,25446
7.53150,25591
7.54085,26833
7.55018,26654
7.55952,29593
7.56887,30296
7.57820,27537
7.58753,25955
7.59688,24685
7.60622,25578
7.61555,25820
7.62490,24935
7.63423,24185
7.64357,23111
7.65292,23397
7.66225,22124
7.67160,25033
7.68093,23928
7.69027,27415
7.69962,32375
7.70895,34481
7.71828,31257
7.72763,28622
7.73697,30745
7.74630,27999
7.75565,24964
7.76498,25393
7.77432,27126
7.78367,30292
7.79300,31679
7.80233,26996
7.81168,22225
7.82102,21899
7.83035,22987
7.83970,25866
7.84903,32332
7.85838,53636
7.86772,79675
7.87705,83532
7.88640,62425
7.89573,67520
7.90507,151099
7.91442,297908
7.92375,354160
7.93308,240565
7.94243,127083
7.95177,76738
7.96110,51785
7.97045,40590
7.97978,35565
7.98912,34186
7.99847,30917
8.00780,27406
8.01715,27459
8.02648,33170
8.03582,50856
8.04517,63482
8.05450,54399
8.06383,34662
8.07318,28312
8.08252,30435
8.09185,33952
8.10120,37060
8.11053,35949
8.11987,31620
8.12922,25892
8.13855,24662
8.14788,21538
8.15723,21846
8.16657,21951
8.17590,21257
8.18525,21603
8.19458,21077
8.20393,24041
8.21327,24337
8.22260,22574
8.23195,19736
8.24128,20163
8.25062,21523
8.25997,19545
8.26930,20295
8.27863,20715
8.28798,20767
8.29732,21208
8.30665,20464
8.31600,19822
8.32533,19250
8.33467,19220
8.34402,18198
8.35335,17746
8.36268,19439
8.37203,20368
8.38137,20601
8.39072,23127
8.40005,26337
8.40938,32282
8.41873,33177
8.42807,31635
8.43740,27325
8.44675,25315
8.45608,23597
8.46542,24990
8.47477,26693
8.48410,27083
8.49343,25256
8.50278,25157
8.51212,24076
8.52145,22373
8.53080,22918
8.54013,23143
8.54947,24636
8.55882,25704
8.56815,25528
8.57750,25480
8.58683,27748
8.59617,34152
8.60552,40543
8.61485,36161
8.62418,30260
8.63353,27222
8.64287,25015
8.65220,26743
8.66155,27038
8.67088,28245
8.68022,27352
8.68957,27462
8.69890,28610
8.70823,27865
8.71758,26787
8.72692,24651
8.73625,25773
8.74560,30265
8.75493,32152
8.76428,33668
8.77362,32383
8.78295,33119
8.79230,42994
8.80163,65171
8.81097,84513
8.82032,68020
8.82965,43016
8.83898,29251
8.84833,23410
8.85767,22671
8.86700,22982
8.87635,24408
8.88568,27070
8.89502,25416
8.90437,26962
8.91370,27110
8.92305,26615
8.93238,27358
8.94172,26092
8.95107,23991
8.96040,23697
8.96973,21796
8.97908,20622
8.98842,20514
8.99775,22432
9.00710,21892
9.01643,23353
9.02577,21980
9.03512,22703
9.04445,22224
9.05378,21789
9.06313,23748
9.07247,27162
9.08180,27724
9.09115,29781
9.10048,25683
9.10983,23170
9.11917,25273
9.12850,34680
9.13785,39136
9.14718,35676
9.15652,26479
9.16587,23229
9.17520,22040
9.18453,22520
9.19388,22095
9.20322,25933
9.21255,36912
9.22190,52921
9.23123,66375
9.24057,59445
9.24992,40485
9.25925,28223
9.26858,23870
9.27793,23644
9.28727,23145
9.29662,22915
9.30595,22812
9.31528,27481
9.32463,35347
9.33397,39459
9.34330,36505
9.35265,47202
9.36198,87611
9.37132,129667
9.38067,135988
9.39000,114978
9.39933,97868
9.40868,79344
9.41802,69193
9.42735,65225
9.43670,51862
9.44603,34991
9.45537,24507
9.46472,22231
9.47405,22760
9.48340,22711
9.49273,24197
9.50207,25198
9.51142,23392
9.52075,24247
9.53008,31183
9.53943,37389
9.54877,42796
9.55810,50436
9.56745,50482
9.57678,39813
9.58612,32398
9.59547,27772
9.60480,26565
9.61413,25717
9.62348,22516
9.63282,24606
9.64217,24214
9.65150,24889
9.66083,23234
9.67018,23142
9.67952,23799
9.68885,22853
9.69820,21709
9.70753,22782
9.71687,50425
9.72622,208883
9.73555,659073
9.74488,1135378
9.75423,1061502
9.76357,667866
9.77290,355401
9.78225,219069
9.79158,159643
9.80092,117195
9.81027,92225
9.81960,81358
9.82895,81801
9.83828,82265
9.84762,80356
9.85697,70180
9.86630,56258
9.87563,57218
9.88498,64149
9.89432,67906
9.90365,73290
9.91300,83065
9.92233,83061
9.93167,65861
9.94102,51444
9.95035,41116
9.95968,39942
9.96903,54861
9.97837,92760
9.98770,126244
9.99705,114091
10.00638,78262
10.01573,49377
10.02507,38866
10.03440,34333
10.04375,34037
10.05308,47406
10.06242,71755
10.07177,89919
10.08110,76803
10.09043,50773
10.09978,43637
10.10912,81468
10.11845,179233
10.12780,262839
10.13713,254474
10.14647,420665
10.15582,1049842
10.16515,1427036
10.17448,943002
10.18383,324435
10.19317,85050
10.20252,41349
10.21185,33704
10.22118,33865
10.23053,36793
10.23987,45276
10.24920,43483
10.25855,34824
10.26788,29227
10.27722,27503
10.28657,29322
10.29590,30765
10.30523,28433
10.31458,29281
10.32392,26857
10.33325,25951
10.34260,25080
10.35193,24941
10.36127,25915
10.37062,24855
10.37995,24080
10.38930,22547
10.39863,22235
10.40797,25424
10.41732,27880
10.42665,30735
10.43598,34928
10.44533,45740
10.45467,63974
10.46400,64473
10.47335,48977
10.48268,32306
10.49202,26448
10.50137,23378
10.51070,24245
10.52003,23495
10.52938,24542
10.53872,24893
10.54807,26054
10.55740,24511
10.56673,25038
10.57608,26751
10.58542,27022
10.59475,25691
10.60410,24425
10.61343,23528
10.62277,27465
10.63212,31766
10.64145,31502
10.65078,28918
10.66013,31715
10.66947,35361
10.67880,39280
10.68815,35231
10.69748,34757
10.70682,39452
10.71617,46966
10.72550,41610
10.73485,33759
10.74418,37209
10.75352,53599
10.76287,76813
10.77220,83206
10.78153,102319
10.79088,201477
10.80022,324550
10.80955,311607
10.81890,179321
10.82823,74308
10.83757,40726
10.84692,34660
10.85625,35866
10.86558,41148
10.87493,50515
10.88427,49166
10.89360,43376
10.90295,36146
10.91228,33830
10.92163,31541
10.93097,32244
10.94030,31812
10.94965,32790
10.95898,36473
10.96832,33430
10.97767,30819
10.98700,26139
10.99633,23149
11.00568,23188
11.01502,23249
11.02435,22508
11.03370,23187
11.04303,22691
11.05237,22601
11.06172,21006
11.07105,21633
11.08038,21920
11.08973,22157
11.09907,21568
11.10842,24225
11.11775,24998
11.12708,22835
11.13643,24802
11.14577,22145
11.15510,23745
11.16445,23441
11.17378,22105
11.18312,21708
11.19247,21085
11.20180,20259
11.21113,22929
11.22048,27055
11.22982,27219
11.23915,26196
11.24850,27805
11.25783,30765
11.26718,31720
11.27652,28001
11.28585,26409
11.29520,23467
11.30453,22678
11.31387,23599
11.32322,26938
11.33255,37079
11.34188,41734
11.35123,45837
11.36057,42808
11.36990,32951
11.37925,29975
11.38858,32625
11.39792,40239
11.40727,43143
11.41660,36017
11.42593,29186
11.43528,27516
11.44462,24325
11.45397,29302
11.46330,36688
11.47263,39563
11.48198,31843
11.49132,26628
11.50065,22796
11.51000,23187
11.51933,22129
11.52867,21220
11.53802,22469
11.54735,24984
11.55668,31274
11.56603,46381
11.57537,58666
11.58470,59509
11.59405,50838
11.60338,44783
11.61272,37553
11.62207,32629
11.63140,30272
11.64075,37656
11.65008,59864
11.65942,79889
11.66877,79022
11.67810,62948
11.68743,49542
11.69678,41128
11.70612,41302
11.71545,41646
11.72480,39923
11.73413,38685
11.74347,35185
11.75282,33277
11.76215,32182
11.77148,33866
11.78083,38060
11.79017,36013
11.79950,32538
11.80885,32698
11.81818,32169
11.82753,33260
11.83687,27713
11.84620,27817
11.85555,27387
11.86488,28067
11.87422,28058
11.88357,27283
11.89290,26132
11.90223,26276
11.91158,24826
11.92092,24905
11.93025,30965
11.93960,41453
11.94893,45771
11.95827,39718
11.96762,29651
11.97695,24899
11.98628,27895
11.99563,29825
12.00497,36532
12.01432,37696
12.02365,35319
12.03298,31045
12.04233,29962
12.05167,29141
12.06100,24501
12.07035,23870
12.07968,23331
12.08902,24725
12.09837,23722
12.10770,22649
12.11703,22339
12.12638,20965
12.13572,24968
12.14505,27939
12.15440,36162
12.16373,58431
12.17307,84204
12.18242,81625
12.19175,50050
12.20110,32402
12.21043,29948
12.21977,31528
12.22912,34099
12.23845,30905
12.24778,26436
12.25713,32288
12.26647,52944
12.27580,82660
12.28515,83417
12.29448,59148
12.30382,39125
12.31317,34125
12.32250,32250
12.33183,31783
12.34118,29319
12.35052,28819
12.35987,29894
12.36920,31207
12.37853,32501
12.38788,28156
12.39722,25800
12.40655,24470
12.41590,24669
12.42523,25111
12.43457,23920
12.44392,24615
12.45325,25324
12.46258,27947
12.47193,30674
12.48127,27581
12.49060,28803
12.49995,28441
12.50928,29546
12.51862,31535
12.52797,31569
12.53730,30280
12.54665,33458
12.55598,37149
12.56532,34623
12.57467,30395
12.58400,27401
12.59333,23451
12.60268,24204
12.61202,27941
12.62135,34927
12.63070,42266
12.64003,47121
12.64937,46552
12.65872,45047
12.66805,42458
12.67738,32816
12.68673,26021
12.69607,22990
12.70540,25691
12.71475,26120
12.72408,24738
12.73343,23503
12.74277,24010
12.75210,24787
12.76145,23470
12.77078,24122
12.78012,22731
12.78947,24596
12.79880,24153
12.80813,23695
12.81748,23457
12.82682,24657
12.83615,24090
12.84550,23406
12.85483,21771
12.86417,21356
12.87352,20974
12.88285,22580
12.89218,24043
12.90153,22287
12.91087,21777
12.92022,20972
12.92955,21578
12.93888,21956
12.94823,24410
12.95757,25248
12.96690,24015
12.97625,20761
12.98558,19350
12.99492,18965
13.00427,22961
13.01360,25620
13.02293,29659
13.03228,29256
13.04162,27040
13.05095,25439
13.06030,23758
13.06963,24559
13.07898,24040
13.08832,23743
13.09765,21495
13.10700,22579
13.11633,24779
13.12567,26869
13.13502,25934
13.14435,28021
13.15368,28208
13.16303,28976
13.17237,28961
13.18170,33461
13.19105,62140
13.20038,122510
13.20972,160645
13.21907,134534
13.22840,83376
13.23773,58947
13.24708,51869
13.25642,43076
13.26577,33739
13.27510,32627
13.28443,34934
13.29378,33665
13.30312,34060
13.31245,34378
13.32180,34731
13.33113,33774
13.34047,29248
13.34982,28763
13.35915,25908
13.36848,26400
13.37783,27825
13.38717,30036
13.39650,32380
13.40585,29445
13.41518,25480
13.42452,26335
13.43387,28006
13.44320,27503
13.45255,26639
13.46188,27647
13.47122,28746
13.48057,26281
13.48990,25495
13.49923,25512
13.50858,35393
13.51792,47934
13.52725,54816
13.53660,44086
13.54593,33172
13.55527,27520
13.56462,27206
13.57395,25090
13.58328,23941
13.59263,23309
13.60197,22931
13.61130,22957
13.62065,22695
13.62998,21246
13.63933,23582
13.64867,25720
13.65800,28215
13.66735,24684
13.67668,23862
13.68602,22874
13.69537,20514
13.70470,19934
13.71403,18954
13.72338,18642
13.73272,18893
13.74205,19899
13.75140,21895
13.76073,21337
13.77007,21161
13.77942,22246
13.78875,24404
13.79808,27431
13.80743,25989
13.81677,24586
13.82612,24605
13.83545,23620
13.84478,22549
13.85413,22941
13.86347,24830
13.87280,26359
13.88215,36837
13.89148,53648
13.90082,86889
13.91017,117852
13.91950,108165
13.92883,68308
13.93818,40257
13.94752,33354
13.95685,31249
13.96620,29078
13.97553,26812
13.98488,26682
13.99422,28483
14.00355,27043
14.01290,26290
14.02223,28217
14.03157,45503
14.04092,214004
14.05025,1081895
14.05958,2708448
14.06893,3122561
14.07827,1781151
14.08760,498299
14.09695,104607
14.10628,46561
14.11562,38743
14.12497,34678
14.13430,34752
14.14363,35021
14.15298,35647
14.16232,35200
14.17167,35152
14.18100,41353
14.19033,51247
14.19968,51270
14.20902,39200
14.21835,30154
14.22770,25957
14.23703,25701
14.24637,24450
14.25572,26335
14.26505,26900
14.27438,26110
14.28373,27247
14.29307,25578
14.30240,28210
14.31175,35340
14.32108,41916
14.33042,43250
14.33977,35024
14.34910,30794
14.35845,26346
14.36778,24833
14.37712,25704
14.38647,25731
14.39580,27601
14.40513,24954
14.41448,24944
14.42382,22939
14.43315,24795
14.44250,26320
14.45183,34378
14.46117,43117
14.47052,43316
14.47985,38018
14.48918,31905
14.49853,31004
14.50787,29152
14.51720,27101
14.52655,27676
14.53588,27319
14.54523,27350
14.55457,27777
14.56390,28679
14.57325,26845
14.58258,26947
14.59192,24655
14.60127,24503
14.61060,23817
14.61993,25166
14.62928,24031
14.63862,28051
14.64795,32887
14.65730,33982
14.66663,31343
14.67597,30362
14.68532,27726
14.69465,26606
14.70400,25674
14.71333,25235
14.72267,27923
14.73202,27270
14.74135,28098
14.75068,27515
14.76003,26738
14.76937,26262
14.77870,27529
14.78805,28330
14.79738,28945
14.80672,28480
14.81607,29734
14.82540,29515
14.83473,28319
14.84408,28040
14.85342,30937
14.86275,34878
14.87210,35033
14.88143,31801
14.89078,25601
14.90012,26273
14.90945,28117
14.91880,27329
14.92813,26133
14.93747,25335
14.94682,25082
14.95615,25408
14.96548,29478
14.97483,30099
14.98417,29644
14.99350,31622
15.00285,39057
15.01218,39753
15.02152,34319
15.03087,34480
15.04020,35942
15.04953,40436
15.05888,37414
15.06822,34301
15.07757,30451
15.08690,28042
15.09623,27626
15.10558,30699
15.11492,36336
15.12425,45103
15.13360,43769
15.14293,37000
15.15227,31827
15.16162,28850
15.17095,26762
15.18028,27980
15.18963,35199
15.19897,42073
15.20830,51750
15.21765,57007
15.22698,49286
15.23632,38501
15.24567,33470
15.25500,32748
15.26435,33145
15.27368,35047
15.28302,35157
15.29237,33221
15.30170,31884
15.31103,34266
15.32038,41132
15.32972,42166
15.33905,38228
15.34840,35316
15.35773,38684
15.36707,41654
15.37642,40077
15.38575,31862
15.39508,27372
15.40443,29490
15.41377,30901
15.42310,28742
15.43245,28992
15.44178,26774
15.45113,25604
15.46047,28151
15.46980,27353
15.47915,28603
15.48848,31654
15.49782,37532
15.50717,46659
15.51650,52982
15.52583,46564
15.53518,36484
15.54452,29296
15.55385,27732
15.56320,28003
15.57253,28600
15.58187,29147
15.59122,29194
15.60055,30365
15.60988,29715
15.61923,34381
15.62857,36477
15.63792,39416
15.64725,40309
15.65658,36076
15.66593,34418
15.67527,33904
15.68460,33703
15.69395,39947
15.70328,44832
15.71262,41614
15.72197,36316
15.73130,36901
15.74063,39062
15.74998,40713
15.75932,41466
15.76865,41250
15.77800,36996
15.78733,34919
15.79668,40702
15.80602,62745
15.81535,122053
15.82470,220594
15.83403,289414
15.84337,254778
15.85272,169444
15.86205,103605
15.87138,75765
15.88073,68155
15.89007,66563
15.89940,68122
15.90875,60809
15.91808,51964
15.92742,43884
15.93677,38942
15.94610,38824
15.95543,38675
15.96478,41618
15.97412,47517
15.98347,56224
15.99280,55380
16.00213,48989
16.01148,41646
16.02082,40209
16.03015,39732
16.03950,41270
16.04883,45407
16.05817,44578
16.06752,44856
16.07685,40910
16.08618,39950
16.09553,35560
16.10487,37754
16.11420,39847
16.12355,40978
16.13288,39974
16.14222,39710
16.15157,39254
16.16090,37198
16.17025,33164
16.17958,33493
16.18892,34735
16.19827,35977
16.20760,36022
16.21693,40874
16.22628,44111
16.23562,46632
16.24495,46985
16.25430,43219
16.26363,45203
16.27297,64646
16.28232,130240
16.29165,207900
16.30098,219360
16.31033,142451
16.31967,73040
16.32900,45513
16.33835,37574
16.34768,31953
16.35703,32364
16.36637,29894
16.37570,32403
16.38505,35191
16.39438,37484
16.40372,40441
16.41307,40808
16.42240,39722
16.43173,36122
16.44108,39930
16.45042,41511
16.45975,40149
16.46910,37011
16.47843,36785
16.48777,37491
16.49712,38298
16.50645,37733
16.51580,37681
16.52513,34750
16.53447,33908
16.54382,33313
16.55315,30955
16.56248,31545
16.57183,30692
16.58117,34322
16.59050,33987
16.59985,34058
16.60918,37214
16.61852,39513
16.62787,40807
16.63720,37737
16.64653,36918
16.65588,32240
16.66522,32877
16.67455,35048
16.68390,38954
16.69323,43266
16.70258,43184
16.71192,37437
16.72125,33051
16.73060,38485
16.73993,50094
16.74927,56160
16.75862,45684
16.76795,37476
16.77728,31572
16.78663,29386
16.79597,32153
16.80530,31425
16.81465,35728
16.82398,38776
16.83332,40207
16.84267,37534
16.85200,35495
16.86133,33255
16.87068,34648
16.88002,33967
16.88937,34233
16.89870,42264
16.90803,49473
16.91738,52427
16.92672,47868
16.93605,46569
16.94540,47367
16.95473,47630
16.96407,43332
16.97342,38790
16.98275,35527
16.99208,32975
17.00143,32117
17.01077,36805
17.02010,46495
17.02945,53105
17.03878,51899
17.04812,42755
17.05747,38657
17.06680,38060
17.07615,36838
17.08548,35347
17.09482,33662
17.10417,36250
17.11350,35635
17.12283,39058
17.13218,41710
17.14152,39815
17.15085,35790
17.16020,32900
17.16953,33084
17.17887,30678
17.18822,31872
17.19755,29318
17.20688,30642
17.21623,31556
17.22557,31724
17.23490,32737
17.24425,32772
17.25358,32521
17.26293,34019
17.27227,35476
17.28160,35522
17.29095,34375
17.30028,35984
17.30962,37409
17.31897,40855
17.32830,40401
17.33763,39018
17.34698,35710
17.35632,34405
17.36565,41232
17.37500,57395
17.38433,66165
17.39367,57856
17.40302,51381
17.41235,53984
17.42170,52936
17.43103,49743
17.44037,44901
17.44972,39705
17.45905,39715
17.46838,40821
17.47773,53935
17.48707,133581
17.49640,404773
17.50575,744410
17.51508,685525
17.52442,320359
17.53377,101926
17.54310,53065
17.55243,42223
17.56178,40993
17.57112,44000
17.58045,41808
17.58980,42548
17.59913,36325
17.60848,34587
17.61782,34094
17.62715,36483
17.63650,36885
17.64583,37758
17.65517,41341
17.66452,46298
17.67385,45711
17.68318,49468
17.69253,50641
17.70187,46307
17.71120,43963
17.72055,37912
17.72988,38247
17.73922,38187
17.74857,40223
17.75790,43063
17.76723,43238
17.77658,39604
17.78592,36178
17.79527,34227
17.80460,34882
17.81393,34468
17.82328,34298
17.83262,37174
17.84195,38383
17.85130,43481
17.86063,45639
17.86997,42619
17.87932,40467
17.88865,38221
17.89798,36475
17.90733,32650
17.91667,31318
17.92600,29737
17.93535,32785
17.94468,34213
17.95402,38080
17.96337,41254
17.97270,36336
17.98205,33582
17.99138,31438
18.00072,29460
18.01007,31323
18.01940,32269
18.02873,33842
18.03808,42057
18.04742,47985
18.05675,49591
18.06610,43926
18.07543,33454
18.08477,35587
18.09412,34893
18.10345,38853
18.11278,37032
18.12213,37254
18.13147,36204
18.14082,37619
18.15015,39352
18.15948,38394
18.16883,37276
18.17817,33765
18.18750,32502
18.19685,33262
18.20618,32977
18.21552,33200
18.22487,33159
18.23420,31792
18.24353,30870
18.25288,30485
18.26222,33622
18.27155,36130
18.28090,38416
18.29023,38931
18.29957,39836
18.30892,39665
18.31825,37908
18.32760,39296
18.33693,43414
18.34627,47721
18.35562,45228
18.36495,37707
18.37428,34865
18.38363,32162
18.39297,36737
18.40230,42829
18.41165,47915
18.42098,46670
18.43032,45339
18.43967,47157
18.44900,44886
18.45833,40612
18.46768,37058
18.47702,37852
18.48635,48233
18.49570,63421
18.50503,71280
18.51438,62268
18.52372,52679
18.53305,45654
18.54240,43109
18.55173,43124
18.56107,37535
18.57042,35419
18.57975,33059
18.58908,33102
18.59843,39524
18.60777,41101
18.61710,40343
18.62645,40109
18.63578,40602
18.64512,40487
18.65447,39720
18.66380,41965
18.67313,42083
18.68248,39780
18.69182,40299
18.70117,42657
18.71050,45541
18.71983,47963
18.72918,46227
18.73852,43091
18.74785,38395
18.75720,34773
18.76653,32777
18.77587,32366
18.78522,32837
18.79455,35761
18.80388,35739
18.81323,34470
18.82257,32667
18.83190,32612
18.84125,32098
18.85058,29997
18.85992,31173
18.86927,30505
18.87860,31377
18.88795,33538
18.89728,40640
18.90662,45259
18.91597,47055
18.92530,43710
18.93463,39669
18.94398,43598
18.95332,46901
18.96265,45398
18.97200,42447
18.98133,37834
18.99067,35306
19.00002,34332
19.00935,34493
19.01868,33710
19.02803,40245
19.03737,51859
19.04670,70286
19.05605,73386
19.06538,80642
19.07473,107702
19.08407,121750
19.09340,99003
19.10275,63939
19.11208,45142
19.12142,37338
19.13077,33905
19.14010,32914
19.14943,31679
19.15878,32294
19.16812,32056
19.17745,35540
19.18680,39154
19.19613,39543
19.20547,39559
19.21482,39523
19.22415,37515
19.23350,37071
19.24283,35967
19.25217,32992
19.26152,33539
19.27085,37111
19.28018,35666
19.28953,39466
19.29887,41489
19.30820,48267
19.31755,46097
19.32688,40919
19.33622,36656
19.34557,33597
19.35490,31271
19.36423,32324
19.37358,33897
19.38292,33307
19.39225,36042
19.40160,36770
19.41093,36403
19.42028,32452
19.42962,30535
19.43895,30481
19.44830,28104
19.45763,29192
19.46697,32473
19.47632,34632
19.48565,35664
19.49498,34653
19.50433,31884
19.51367,31600
19.52300,32563
19.53235,30781
19.54168,30402
19.55102,29748
19.56037,30444
19.56970,33060
19.57903,35753
19.58838,35512
19.59772,34140
19.60707,33206
19.61640,34044
19.62573,36991
19.63508,37903
19.64442,33491
19.65375,32368
19.66310,33382
19.67243,33021
19.68177,30721
19.69112,29297
19.70045,32119
19.70978,37756
19.71913,47871
19.72847,50663
19.73780,48128
19.74715,39353
19.75648,34017
19.76582,35962
19.77517,34806
19.78450,34833
19.79385,34343
19.80318,32866
19.81252,33383
19.82187,33810
19.83120,33243
19.84053,31728
19.84988,31230
19.85922,34216
19.86855,38580
19.87790,39980
19.88723,36282
19.89657,32275
19.90592,34575
19.91525,35150
19.92458,32542
19.93393,31073
19.94327,30561
19.95262,33151
19.96195,34682
19.97128,32235
19.98063,32804
19.98997,30817
19.99930,31710
20.00865,31352
20.01798,35984
20.02732,36918
20.03667,36991
20.04600,35078
20.05533,32758
20.06468,31066
20.07402,31366
20.08335,32459
20.09270,32102
20.10203,31515
20.11137,29482
20.12072,29135
20.13005,30973
20.13940,35893
20.14873,37271
20.15807,36088
20.16742,33280
20.17675,32012
20.18608,28193
20.19543,29933
20.20477,27716
20.21410,29804
20.22345,29189
20.23278,29924
20.24212,30570
20.25147,29930
20.26080,28724
20.27013,30714
20.27948,30089
20.28882,30672
20.29815,30158
20.30750,28700
20.31683,28976
20.32618,27914
20.33552,28970
20.34485,29770
20.35420,29819
20.36353,28823
20.37287,30155
20.38222,30158
20.39155,30537
20.40088,27120
20.41023,29163
20.41957,29416
20.42890,30581
20.43825,28687
20.44758,30130
20.45692,30029
20.46627,32103
20.47560,31741
20.48493,31026
20.49428,29001
20.50362,30940
20.51297,29264
20.52230,28968
20.53163,30363
20.54098,31634
20.55032,38416
20.55965,55183
20.56900,81719
20.57833,84920
20.58767,59745
20.59702,41019
20.60635,34758
20.61568,33597
20.62503,34771
20.63437,34317
20.64370,35140
20.65305,33828
20.66238,34370
20.67172,34882
20.68107,35046
20.69040,33045
20.69975,34330
20.70908,33341
20.71842,34012
20.72777,33922
20.73710,33214
20.74643,30799
20.75578,30544
20.76512,31641
20.77445,30878
20.78380,34728
20.79313,37959
20.80247,38048
20.81182,34142
20.82115,32799
20.83048,28953
20.83983,31109
20.84917,28923
20.85852,29482
20.86785,28749
20.87718,31514
20.88653,31430
20.89587,34916
20.90520,34829
20.91455,35326
20.92388,31411
20.93322,31395
20.94257,29134
20.95190,29515
20.96123,29845
20.97058,29184
20.97992,30511
20.98925,29879
20.99860,28523
21.00793,30431
21.01727,28807
21.02662,27806
21.03595,28257
21.04530,30971
21.05463,30026
21.06397,31267
21.07332,31383
21.08265,31191
21.09198,31682
21.10133,34792
21.11067,32762
21.12000,33374
21.12935,30773
21.13868,31120
21.14802,30279
21.15737,32872
21.16670,34863
21.17603,39094
21.18538,42181
21.19472,42569
21.20405,40003
21.21340,37160
21.22273,36070
21.23208,33312
21.24142,33239
21.25075,34151
21.26010,36088
21.26943,39616
21.27877,43585
21.28812,43249
21.29745,36387
21.30678,34171
21.31613,33020
21.32547,32329
21.33480,32099
21.34415,31844
21.35348,32519
21.36282,29598
21.37217,30519
21.38150,30438
21.39083,32554
21.40018,32939
21.40952,34457
21.41887,32763
21.42820,35033
21.43753,32234
21.44688,30598
21.45622,31292
21.46555,31939
21.47490,33589
21.48423,34246
21.49357,31519
21.50292,31374
21.51225,32868
21.52158,30708
21.53093,30651
21.54027,31336
21.54960,31655
21.55895,37285
21.56828,38320
21.57763,40969
21.58697,37319
21.59630,33423
21.60565,34484
21.61498,32516
21.62432,31463
21.63367,31518
21.64300,29399
21.65233,29599
21.66168,32126
21.67102,33115
21.68035,36298
21.68970,35961
21.69903,36432
21.70837,35931
21.71772,35042
21.72705,36631
21.73638,34495
21.74573,34676
21.75507,30800
21.76442,30415
21.77375,30785
21.78308,31523
21.79243,31517
21.80177,33714
21.81110,34487
21.82045,35732
21.82978,36872
21.83912,32729
21.84847,31343
21.85780,33637
21.86713,35782
21.87648,39694
21.88582,41640
21.89515,39382
21.90450,41270
21.91383,38282
21.92317,36019
21.93252,35136
21.94185,33760
21.95120,35965
21.96053,41631
21.96987,47002
21.97922,52621
21.98855,51633
21.99788,45767
22.00723,40238
22.01657,40351
22.02590,37884
22.03525,37981
22.04458,40182
22.05392,41440
22.06327,41638
22.07260,41820
22.08193,44911
22.09128,42438
22.10062,41106
22.10995,41193
22.11930,41308
22.12863,40059
22.13798,43282
22.14732,49168
22.15665,55675
22.16600,59843
22.17533,57296
22.18467,53030
22.19402,52747
22.20335,55105
22.21268,55315
22.22203,57029
22.23137,60610
22.24070,60479
22.25005,60645
22.25938,60960
22.26872,61969
22.27807,63692
22.28740,64607
22.29673,60293
22.30608,58875
22.31542,52487
22.32477,54016
22.33410,52673
22.34343,52526
22.35278,52861
22.36212,50593
22.37145,49678
22.38080,48379
22.39013,45250
22.39947,46066
22.40882,43488
22.41815,42822
22.42748,40269
22.43683,42525
22.44617,42333
22.45550,41211
22.46485,40905
22.47418,38929
22.48352,37738
22.49287,38058
22.50220,39297
22.51155,36704
22.52088,35927
22.53022,38595
22.53957,34992
22.54890,34819
22.55823,34928
22.56758,37196
22.57692,36666
22.58625,36676
22.59560,37609
22.60493,35364
22.61427,35236
22.62362,36012
22.63295,37226
22.64228,34084
22.65163,34505
22.66097,33548
22.67032,34253
22.67965,36414
22.68898,37381
22.69833,36283
22.70767,35739
22.71700,33148
22.72635,35111
22.73568,39174
22.74502,39648
22.75437,38328
22.76370,37369
22.77303,36179
22.78238,35937
22.79172,36525
22.80105,33291
22.81040,36017
22.81973,34403
22.82907,34497
22.83842,34921
22.84775,35475
22.85710,35541
22.86643,33805
22.87577,34045
22.88512,34087
22.89445,32924
22.90378,32198
22.91313,33673
22.92247,32623
22.93180,31970
22.94115,31830
22.95048,33631
22.95982,31801
22.96917,32291
22.97850,32813
22.98783,31667
22.99718,32119
23.00652,31827
23.01585,31623
23.02520,32527
23.03453,31012
23.04388,30922
23.05322,31576
23.06255,32349
23.07190,33075
23.08123,31466
23.09057,30703
23.09992,32226
23.10925,31295
23.11858,30429
23.12793,30316
23.13727,31309
23.14660,30607
23.15595,30670
23.16528,30611
23.17462,31030
23.18397,29782
23.19330,31490
23.20263,32219
23.21198,30174
23.22132,31823
23.23067,31169
23.24000,30487
23.24933,32288
23.25868,35595
23.26802,35077
23.27735,36664
23.28670,35102
23.29603,34609
23.30537,35908
23.31472,36723
23.32405,41436
23.33338,41457
23.34273,39030
23.35207,37277
23.36140,33877
23.37075,33511
23.38008,32929
23.38943,33312
23.39877,34372
23.40810,33981
23.41745,35021
23.42678,31718
23.43612,35161
23.44547,34028
23.45480,36199
23.46413,36766
23.47348,35521
23.48282,34661
23.49215,33071
23.50150,33710
23.51083,31848
23.52017,31986
23.52952,31776
23.53885,34331
23.54818,33899
23.55753,32223
23.56687,32380
23.57622,32583
23.58555,32787
23.59488,33396
23.60423,33292
23.61357,33335
23.62290,31065
23.63225,30923
23.64158,33104
23.65092,33216
23.66027,31999
23.66960,33506
23.67893,34334
23.68828,32438
23.69762,32005
23.70695,35392
23.71630,34644
23.72563,33011
23.73497,32841
23.74432,32501
23.75365,32146
23.76300,33501
23.77233,32390
23.78167,33783
23.79102,32932
23.80035,33139
23.80968,32643
23.81903,32972
23.82837,33134
23.83770,31142
23.84705,31266
23.85638,33061
23.86572,33402
23.87507,33180
23.88440,32489
23.89373,31637
23.90308,31339
23.91242,32815
23.92175,31186
23.93110,34035
23.94043,32028
23.94978,32064
23.95912,35219
23.96845,33036
23.97780,34227
23.98713,33062
23.99647,32625
24.00582,34698
24.01515,32762
24.02448,31084
24.03383,31630
24.04317,31107
24.05250,30563
24.06185,32056
24.07118,31592
24.08052,33299
24.08987,31739
24.09920,32998
24.10853,31663
24.11788,33471
24.12722,33309
24.13657,32354
24.14590,33287
24.15523,32132
24.16458,33812
24.17392,33300
24.18325,30916
24.19260,31486
24.20193,32625
24.21127,33621
24.22062,32520
24.22995,34017
24.23928,34326
24.24863,33821
24.25797,34287
24.26730,33034
24.27665,33618
24.28598,32901
24.29532,33075
24.30467,35053
24.31400,37872
24.32335,37312
24.33268,36847
24.34202,34373
24.35137,33946
24.36070,34343
24.37003,34342
24.37938,34852
24.38872,33959
24.39805,33993
24.40740,33396
24.41673,33278
24.42607,32366
24.43542,33102
24.44475,32377
24.45408,32051
24.46343,31522
24.47277,31030
24.48212,32405
24.49145,32343
24.50078,31270
24.51013,32181
24.51947,32883
24.52880,32442
24.53815,32201
24.54748,32809
24.55682,31210
24.56617,31858
24.57550,31677
24.58483,33590
24.59418,33703
24.60352,35965
24.61285,34998
24.62220,32658
24.63153,33309
24.64087,31913
24.65022,34295
24.65955,35496
24.66890,34778
24.67823,32591
24.68757,31766
24.69692,34056
24.70625,33678
24.71558,31553
24.72493,32004
24.73427,31551
24.74360,30917
24.75295,31719
24.76228,32211
24.77162,31945
24.78097,31531
24.79030,33469
24.79963,34042
24.80898,33344
24.81832,33367
24.82765,34088
24.83700,34042
24.84633,33704
24.85568,33090
24.86502,35057
24.87435,36364
24.88370,34922
24.89303,35736
24.90237,33835
24.91172,33619
24.92105,34125
24.93038,32882
24.93973,34440
24.94907,35235
24.95840,33795
24.96775,35239
24.97708,33433
24.98642,32152
24.99577,33940
25.00510,32674
25.01443,32168
25.02378,32767
25.03312,33982
25.04247,32999
25.05180,33436
25.06113,33647
25.07048,32735
25.07982,33476
25.08915,33816
25.09850,33568
25.10783,34743
25.11717,32735
25.12652,33498
25.13585,33118
25.14518,35712
25.15453,35118
25.16387,36040
25.17320,35211
25.18255,35834
25.19188,33643
25.20123,35718
25.21057,35204
25.21990,33906
25.22925,34479
25.23858,32858
25.24792,32821
25.25727,32988
25.26660,32932
25.27593,33241
25.28528,35036
25.29462,36771
25.30395,43277
25.31330,69742
25.32263,113757
25.33197,126330
25.34132,102756
25.35065,76412
25.35998,60055
25.36933,52482
25.37867,50003
25.38802,48216
25.39735,44702
25.40668,42202
25.41603,43246
25.42537,42749
25.43470,41222
25.44405,42342
25.45338,42868
25.46272,43989
25.47207,45491
25.48140,47479
25.49073,44796
25.50008,41529
25.50942,42200
25.51875,42350
25.52810,38850
25.53743,41066
25.54677,40091
25.55612,40776
25.56545,38515
25.57480,39620
25.58413,38796
25.59347,38838
25.60282,38615
25.61215,40370
25.62148,41139
25.63083,39022
25.64017,39457
25.64950,40971
25.65885,40154
25.66818,37800
25.67752,37712
25.68687,40199
25.69620,37937
25.70553,40027
25.71488,37726
25.72422,39401
25.73355,39808
25.74290,40789
25.75223,40903
25.76158,39314
25.77092,41175
25.78025,42191
25.78960,44899
25.79893,41739
25.80827,42873
25.81762,44873
25.82695,43849
25.83628,42551
25.84563,41903
25.85497,40709
25.86430,40265
25.87365,39176
25.88298,40303
25.89232,38794
25.90167,39037
25.91100,38814
25.92033,37707
25.92968,39665
25.93902,38464
25.94837,39558
25.95770,38927
25.96703,37169
25.97638,38118
25.98572,38115
25.99505,38866
26.00440,37497
26.01373,39437
26.02307,39380
26.03242,40138
26.04175,39398
26.05108,39084
26.06043,38204
26.06977,39119
26.07910,39091
26.08845,38573
26.09778,40700
26.10713,42858
26.11647,46665
26.12580,45225
26.13515,46439
26.14448,45944
26.15382,43143
26.16317,41984
26.17250,44154
26.18183,41970
26.19118,42900
26.20052,41206
26.20985,41216
26.21920,39890
26.22853,40043
26.23787,40849
26.24722,42432
26.25655,41447
26.26588,40965
26.27523,40443
26.28457,41510
26.29392,40623
26.30325,39593
26.31258,42167
26.32193,41651
26.33127,43196
26.34060,40985
26.34995,38583
26.35928,40505
26.36862,41005
26.37797,40002
26.38730,40245
26.39663,41366
26.40598,42197
26.41532,44203
26.42465,43026
26.43400,42835
26.44333,43784
26.45267,41709
26.46202,42852
26.47135,41430
26.48070,42394
26.49003,44529
26.49937,42104
26.50872,41819
26.51805,41796
26.52738,41595
26.53673,41608
26.54607,42726
26.55540,41582
26.56475,44162
26.57408,42803
26.58342,43479
26.59277,44003
26.60210,43945
26.61143,43368
26.62078,44733
26.63012,43077
26.63945,44539
26.64880,42601
26.65813,44247
26.66748,40820
26.67682,43997
26.68615,42627
26.69550,44471
26.70483,42054
26.71417,41546
26.72352,45023
26.73285,43270
26.74218,43562
26.75153,45117
26.76087,45817
26.77020,45993
26.77955,47169
26.78888,46228
26.79822,43876
26.80757,42812
26.81690,43986
26.82625,43909
26.83558,47772
26.84492,44991
26.85427,47639
26.86360,47807
26.87293,46704
26.88228,45195
26.89162,47393
26.90095,46703
26.91030,46890
26.91963,44861
26.92897,46347
26.93832,45859
26.94765,46673
26.95698,45787
26.96633,44250
26.97567,48059
26.98500,44028
26.99435,46466
27.00368,45012
27.01303,43979
27.02237,45053
27.03170,45705
27.04105,44472
27.05038,43992
27.05972,45675
27.06907,43570
27.07840,46123
27.08773,45024
27.09708,45123
27.10642,47439
27.11575,45188
27.12510,49396
27.13443,45679
27.14377,48480
27.15312,48765
27.16245,48052
27.17178,50431
27.18113,47081
27.19047,47223
27.19982,47694
27.20915,47187
27.21848,49178
27.22783,50181
27.23717,47513
27.24650,50023
27.25585,48587
27.26518,47877
27.27452,49567
27.28387,47488
27.29320,47250
27.30253,48879
27.31188,47669
27.32122,47222
27.33055,48922
27.33990,46436
27.34923,50417
27.35857,48665
27.36792,49350
27.37725,51979
27.38660,50343
27.39593,53290
27.40527,55701
27.41462,58366
27.42395,61554
27.43328,64803
27.44263,67852
27.45197,70504
27.46130,74940
27.47065,77667
27.47998,82272
27.48932,84010
27.49867,80509
27.50800,74710
27.51733,70849
27.52668,65528
27.53602,63104
27.54535,59936
27.55470,59290
27.56403,55307
27.57338,54985
27.58272,56642
27.59205,54849
27.60140,53302
27.61073,54961
27.62007,53410
27.62942,54659
27.63875,54232
27.64808,53956
27.65743,56280
27.66677,61142
27.67610,72982
27.68545,78328
27.69478,74903
27.70412,73210
27.71347,70988
27.72280,67659
27.73215,66887
27.74148,64834
27.75082,66099
27.76017,64121
27.76950,62713
27.77883,60295
27.78818,62295
27.79752,62585
27.80685,61120
27.81620,60661
27.82553,61299
27.83487,58999
27.84422,59764
27.85355,59797
27.86288,60124
27.87223,59173
27.88157,60224
27.89090,58321
27.90025,59103
27.90958,58723
27.91893,58595
27.92827,61272
27.93760,58055
27.94695,57503
27.95628,60063
27.96562,59172
27.97497,60317
27.98430,60259
27.99363,59958
28.00298,60526
28.01232,57681
28.02165,60034
28.03100,59962
28.04033,61765
28.04967,60002
28.05902,61194
28.06835,62404
28.07768,57657
28.08703,64104
28.09637,61742
28.10572,65021
28.11505,66021
28.12438,61947
28.13373,65208
28.14307,62893
28.15240,60948
28.16175,63702
28.17108,61408
28.18042,60950
28.18977,65410
28.19910,63141
28.20843,63056
28.21778,63056
28.22712,62676
28.23645,64272
28.24580,63634
28.25513,62001
28.26447,63687
28.27382,62546
28.28315,63565
28.29250,64312
28.30183,62357
28.31117,61621
28.32052,65048
28.32985,62672
28.33918,62916
28.34853,62617
28.35787,60973
28.36720,62281
28.37655,63475
28.38588,64594
28.39522,65259
28.40457,65659
28.41390,64829
28.42323,66678
28.43258,66649
28.44192,66374
28.45125,68955
28.46060,69851
28.46993,69006
28.47928,70161
28.48862,67849
28.49795,66596
28.50730,67600
28.51663,68208
28.52597,69500
28.53532,66964
28.54465,67374
28.55398,67405
28.56333,66312
28.57267,66144
28.58200,68273
28.59135,66007
28.60068,66525
28.61002,69568
28.61937,68199
28.62870,66634
28.63805,70795
28.64738,69526
28.65672,72385
28.66607,79033
28.67540,77054
28.68473,73106
28.69408,74948
28.70342,72652
28.71275,69155
28.72210,71274
28.73143,71774
28.74077,74587
28.75012,74794
28.75945,73849
28.76878,73004
28.77813,74616
28.78747,73141
28.79680,71961
28.80615,73558
28.81548,76781
28.82483,75888
28.83417,76944
28.84350,75240
28.85285,75519
28.86218,78727
28.87152,75633
28.88087,76628
28.89020,75254
28.89953,75304
28.90888,77332
28.91822,75638
28.92755,77160
28.93690,75130
28.94623,76891
28.95557,75169
28.96492,76586
28.97425,74245
28.98358,78099
28.99293,77728
29.00227,75395
29.01162,78008
29.02095,80238
29.03028,78453
29.03963,80460
29.04897,80923
29.05830,78894
29.06765,76677
29.07698,79958
29.08632,78562
29.09567,80008
29.10500,79075
29.11433,82111
29.12368,80885
29.13302,83037
29.14235,80998
29.15170,84988
29.16103,80922
29.17037,86713
29.17972,89299
29.18905,90550
29.19840,88225
29.20773,85208
29.21707,84203
29.22642,82846
29.23575,84004
29.24508,82174
29.25443,84244
29.26377,81176
29.27310,84004
29.28245,86223
29.29178,83487
29.30112,84511
29.31047,84249
29.31980,85257
29.32913,82550
29.33848,85820
29.34782,86631
29.35715,84013
29.36650,86774
29.37583,86130
29.38518,86684
29.39452,85799
29.40385,88004
29.41320,86115
29.42253,84028
29.43187,86426
29.44122,87364
29.45055,94417
29.45988,93955
29.46923,94761
29.47857,89202
29.48790,87397
29.49725,86883
29.50658,86986
29.51592,89750
29.52527,86910
29.53460,88639
29.54395,92084
29.55328,87951
29.56262,86496
29.57197,86642
29.58130,88311
29.59063,88569
29.59998,86216
29.60932,87305
29.61865,89765
29.62800,88827
29.63733,87468
29.64667,88434
29.65602,87105
29.66535,89468
29.67468,86897
29.68403,89972
29.69337,89109
29.70270,88689
29.71205,88060
29.72138,89542
29.73073,89477
29.74007,87366
29.74940,85814
29.75875,84934
29.76808,89374
29.77742,88335
29.78677,87377
29.79610,86569
29.80543,88377
29.81478,90236
29.82412,89911
29.83345,85593
29.84280,90714
29.85213,86221
29.86147,87366
29.87082,89552
29.88015,88172
29.88948,89144
29.89883,89280
29.90817,86918
29.91752,89270
29.92685,86326
29.93618,88924
29.94553,89101
29.95487,88044
29.96420,89656
29.97355,92020
29.98288,92652
29.99222,89623
30.00157,90874
30.01090,90413
30.02023,90649
30.02958,88987
30.03892,90662
30.04825,92827
30.05760,93568
30.06693,92898
30.07627,95581
30.08562,97813
30.09495,95773
30.10430,99866
30.11363,100982
30.12297,99973
30.13232,97751
30.14165,94584
30.15098,96308
30.16033,95413
30.16967,93686
30.17900,93391
30.18835,92520
30.19768,92641
30.20702,93764
30.21637,92634
30.22570,90440
30.23503,88637
30.24438,89283
30.25372,90676
30.26307,92036
30.27240,92631
30.28173,92735
30.29108,90515
30.30042,89580
30.30975,89045
30.31910,91001
30.32843,90027
30.33777,92351
30.34712,93992
30.35645,93771
30.36578,96476
30.37513,101486
30.38447,103099
30.39380,103475
30.40315,102269
30.41248,99057
30.42182,97283
30.43117,95975
30.44050,95679
30.44985,91617
30.45918,95063
30.46852,92188
30.47787,91276
30.48720,93534
30.49653,96051
30.50588,91328
30.51522,91512
30.52455,92462
30.53390,92773
30.54323,91451
30.55257,90990
30.56192,92087
30.57125,93005
30.58058,93748
30.58993,94553
30.59927,91626
30.60860,96702
30.61795,100618
30.62728,104309
30.63663,103863
30.64597,106824
30.65530,110148
30.66465,108225
30.67398,109244
30.68332,105934
30.69267,105494
30.70200,107576
30.71133,101944
30.72068,103955
30.73002,101034
30.73935,98953
30.74870,96126
30.75803,98509
30.76737,98104
30.77672,99772
30.78605,101007
30.79538,99200
30.80473,99130
30.81407,99997
30.82342,96825
30.83275,99443
30.84208,97766
30.85143,99836
30.86077,98631
30.87010,99275
30.87945,99730
30.88878,103970
30.89812,100260
30.90747,101255
30.91680,104305
30.92613,105948
30.93548,104914
30.94482,103537
30.95415,105586
30.96350,104404
30.97283,104482
30.98217,103077
30.99152,105865
31.00085,103280
31.01020,102345
31.01953,107192
31.02887,104123
31.03822,104198
31.04755,99901
31.05688,101430
31.06623,101864
31.07557,99438
31.08490,101804
31.09425,99174
31.10358,103619
31.11292,100777
31.12227,100122
31.13160,97254
31.14093,98315
31.15028,98365
31.15962,99711
31.16895,99692
31.17830,100565
31.18763,103213
31.19698,104365
31.20632,102961
31.21565,101457
31.22500,105618
31.23433,98033
31.24367,104565
31.25302,101320
31.26235,103064
31.27168,103003
31.28103,100517
31.29037,104358
31.29970,100113
31.30905,101528
31.31838,101341
31.32772,102087
31.33707,99714
31.34640,99761
31.35575,100899
31.36508,98474
